"SPL Horizontal"																																																																							
"On-Axis"		"10°"		"-10°"		"20°"		"-20°"		"30°"		"-30°"		"40°"		"-40°"		"50°"		"-50°"		"60°"		"-60°"		"70°"		"-70°"		"80°"		"-80°"		"90°"		"-90°"		"100°"		"-100°"		"110°"		"-110°"		"120°"		"-120°"		"130°"		"-130°"		"140°"		"-140°"		"150°"		"-150°"		"160°"		"-160°"		"170°"		"-170°"		"180°"	
"Frequency [Hz]"	"Sound Pessure Level [dB]  / [2.83V 1m] "	"Frequency [Hz]"	"Sound Pessure Level [dB]  / [2.83V 1m] "	"Frequency [Hz]"	"Sound Pessure Level [dB]  / [2.83V 1m] "	"Frequency [Hz]"	"Sound Pessure Level [dB]  / [2.83V 1m] "	"Frequency [Hz]"	"Sound Pessure Level [dB]  / [2.83V 1m] "	"Frequency [Hz]"	"Sound Pessure Level [dB]  / [2.83V 1m] "	"Frequency [Hz]"	"Sound Pessure Level [dB]  / [2.83V 1m] "	"Frequency [Hz]"	"Sound Pessure Level [dB]  / [2.83V 1m] "	"Frequency [Hz]"	"Sound Pessure Level [dB]  / [2.83V 1m] "	"Frequency [Hz]"	"Sound Pessure Level [dB]  / [2.83V 1m] "	"Frequency [Hz]"	"Sound Pessure Level [dB]  / [2.83V 1m] "	"Frequency [Hz]"	"Sound Pessure Level [dB]  / [2.83V 1m] "	"Frequency [Hz]"	"Sound Pessure Level [dB]  / [2.83V 1m] "	"Frequency [Hz]"	"Sound Pessure Level [dB]  / [2.83V 1m] "	"Frequency [Hz]"	"Sound Pessure Level [dB]  / [2.83V 1m] "	"Frequency [Hz]"	"Sound Pessure Level [dB]  / [2.83V 1m] "	"Frequency [Hz]"	"Sound Pessure Level [dB]  / [2.83V 1m] "	"Frequency [Hz]"	"Sound Pessure Level [dB]  / [2.83V 1m] "	"Frequency [Hz]"	"Sound Pessure Level [dB]  / [2.83V 1m] "	"Frequency [Hz]"	"Sound Pessure Level [dB]  / [2.83V 1m] "	"Frequency [Hz]"	"Sound Pessure Level [dB]  / [2.83V 1m] "	"Frequency [Hz]"	"Sound Pessure Level [dB]  / [2.83V 1m] "	"Frequency [Hz]"	"Sound Pessure Level [dB]  / [2.83V 1m] "	"Frequency [Hz]"	"Sound Pessure Level [dB]  / [2.83V 1m] "	"Frequency [Hz]"	"Sound Pessure Level [dB]  / [2.83V 1m] "	"Frequency [Hz]"	"Sound Pessure Level [dB]  / [2.83V 1m] "	"Frequency [Hz]"	"Sound Pessure Level [dB]  / [2.83V 1m] "	"Frequency [Hz]"	"Sound Pessure Level [dB]  / [2.83V 1m] "	"Frequency [Hz]"	"Sound Pessure Level [dB]  / [2.83V 1m] "	"Frequency [Hz]"	"Sound Pessure Level [dB]  / [2.83V 1m] "	"Frequency [Hz]"	"Sound Pessure Level [dB]  / [2.83V 1m] "	"Frequency [Hz]"	"Sound Pessure Level [dB]  / [2.83V 1m] "	"Frequency [Hz]"	"Sound Pessure Level [dB]  / [2.83V 1m] "	"Frequency [Hz]"	"Sound Pessure Level [dB]  / [2.83V 1m] "	"Frequency [Hz]"	"Sound Pessure Level [dB]  / [2.83V 1m] "	"Frequency [Hz]"	"Sound Pessure Level [dB]  / [2.83V 1m] "
20.5078	56.7749	20.5078	56.5931	20.5078	56.7528	20.5078	56.2013	20.5078	56.5249	20.5078	55.5875	20.5078	56.0807	20.5078	54.7411	20.5078	55.402	20.5078	53.6762	20.5078	54.4683	20.5078	52.4999	20.5078	53.2793	20.5078	51.5598	20.5078	51.9317	20.5078	51.4797	20.5078	50.8175	20.5078	52.5499	20.5078	50.7242	20.5078	54.2766	20.5078	51.9932	20.5078	56.0784	20.5078	53.9386	20.5078	57.6856	20.5078	55.8847	20.5078	59.0207	20.5078	57.5756	20.5078	60.0739	20.5078	58.9588	20.5078	60.8528	20.5078	60.0399	20.5078	61.3661	20.5078	60.8349	20.5078	61.6203	20.5078	61.3578	20.5078	61.6179
23.4375	59.8313	23.4375	59.6992	23.4375	59.8085	23.4375	59.4202	23.4375	59.6295	23.4375	59.016	23.4375	59.3002	23.4375	58.5359	23.4375	58.841	23.4375	58.0818	23.4375	58.3042	23.4375	57.8257	23.4375	57.8029	23.4375	57.9704	23.4375	57.5335	23.4375	58.618	23.4375	57.7232	23.4375	59.6745	23.4375	58.4652	23.4375	60.9325	23.4375	59.6236	23.4375	62.2071	23.4375	60.9589	23.4375	63.3843	23.4375	62.2797	23.4375	64.4048	23.4375	63.4776	23.4375	65.2407	23.4375	64.5008	23.4375	65.8784	23.4375	65.3265	23.4375	66.3114	23.4375	65.9454	23.4375	66.5362	23.4375	66.3539	23.4375	66.5507
26.3672	63.6236	26.3672	63.5781	26.3672	63.5882	26.3672	63.4635	26.3672	63.4731	26.3672	63.3067	26.3672	63.2928	26.3672	63.1549	26.3672	63.0797	26.3672	63.0778	26.3672	62.89	26.3672	63.1602	26.3672	62.8064	26.3672	63.4749	26.3672	62.9241	26.3672	64.0463	26.3672	63.3139	26.3672	64.8331	26.3672	63.9805	26.3672	65.7496	26.3672	64.8567	26.3672	66.7028	26.3672	65.8393	26.3672	67.6163	26.3672	66.8307	26.3672	68.4361	26.3672	67.758	26.3672	69.1268	26.3672	68.5728	26.3672	69.6657	26.3672	69.245	26.3672	70.0385	26.3672	69.756	26.3672	70.2368	26.3672	70.095	26.3672	70.256
29.2969	67.7995	29.2969	67.7999	29.2969	67.7913	29.2969	67.801	29.2969	67.7765	29.2969	67.8202	29.2969	67.7654	29.2969	67.8832	29.2969	67.778	29.2969	68.0205	29.2969	67.8422	29.2969	68.2612	29.2969	67.99	29.2969	68.6241	29.2969	68.2507	29.2969	69.11	29.2969	68.6406	29.2969	69.6991	29.2969	69.1561	29.2969	70.3558	29.2969	69.7724	29.2969	71.0373	29.2969	70.4498	29.2969	71.701	29.2969	71.1431	29.2969	72.3096	29.2969	71.809	29.2969	72.8332	29.2969	72.411	29.2969	73.2488	29.2969	72.9203	29.2969	73.5397	29.2969	73.3155	29.2969	73.6952	29.2969	73.5815	29.2969	73.7094
32.2266	71.3055	32.2266	71.3283	32.2266	71.2994	32.2266	71.3718	32.2266	71.3109	32.2266	71.444	32.2266	71.3453	32.2266	71.5562	32.2266	71.4121	32.2266	71.7212	32.2266	71.5238	32.2266	71.9503	32.2266	71.6942	32.2266	72.2507	32.2266	71.9345	32.2266	72.6221	32.2266	72.2512	32.2266	73.0555	32.2266	72.6418	32.2266	73.5333	32.2266	73.0947	32.2266	74.0318	32.2266	73.5896	32.2266	74.5244	32.2266	74.1004	32.2266	74.9842	32.2266	74.5988	32.2266	75.3865	32.2266	75.0573	32.2266	75.7105	32.2266	75.4516	32.2266	75.9398	32.2266	75.7616	32.2266	76.0632	32.2266	75.9725	32.2266	76.0744
35.1563	73.9524	35.1563	73.9773	35.1563	73.9511	35.1563	74.0274	35.1563	73.9737	35.1563	74.1064	35.1563	74.0227	35.1563	74.219	35.1563	74.1022	35.1563	74.3708	35.1563	74.2178	35.1563	74.5662	35.1563	74.3751	35.1563	74.8082	35.1563	74.5789	35.1563	75.0959	35.1563	74.8313	35.1563	75.4241	35.1563	75.1309	35.1563	75.7829	35.1563	75.471	35.1563	76.1576	35.1563	75.8401	35.1563	76.5308	35.1563	76.2222	35.1563	76.8828	35.1563	76.5982	35.1563	77.1946	35.1563	76.9481	35.1563	77.4484	35.1563	77.2523	35.1563	77.6299	35.1563	77.4937	35.1563	77.7286	35.1563	77.6588	35.1563	77.7385
38.0859	75.8158	38.0859	75.8374	38.0859	75.8184	38.0859	75.8839	38.0859	75.8454	38.0859	75.9569	38.0859	75.8979	38.0859	76.0581	38.0859	75.9774	38.0859	76.1897	38.0859	76.0861	38.0859	76.3535	38.0859	76.2261	38.0859	76.5501	38.0859	76.399	38.0859	76.7784	38.0859	76.6051	38.0859	77.0349	38.0859	76.8427	38.0859	77.313	38.0859	77.1073	38.0859	77.6031	38.0859	77.3914	38.0859	77.8929	38.0859	77.6844	38.0859	78.1681	38.0859	77.9731	38.0859	78.4139	38.0859	78.2427	38.0859	78.616	38.0859	78.4781	38.0859	78.7621	38.0859	78.6654	38.0859	78.843	38.0859	78.7933	38.0859	78.8537
41.0156	77.213	41.0156	77.2331	41.0156	77.2153	41.0156	77.276	41.0156	77.24	41.0156	77.3419	41.0156	77.2872	41.0156	77.4315	41.0156	77.3573	41.0156	77.5452	41.0156	77.4506	41.0156	77.6829	41.0156	77.5675	41.0156	77.8443	41.0156	77.7081	41.0156	78.0278	41.0156	77.872	41.0156	78.2304	41.0156	78.0575	41.0156	78.4473	41.0156	78.2618	41.0156	78.6719	41.0156	78.4799	41.0156	78.8952	41.0156	78.7048	41.0156	79.1068	41.0156	78.9272	41.0156	79.2955	41.0156	79.1366	41.0156	79.4501	41.0156	79.3213	41.0156	79.5609	41.0156	79.4701	41.0156	79.6206	41.0156	79.5737	41.0156	79.625
43.9453	78.2838	43.9453	78.3054	43.9453	78.2831	43.9453	78.3479	43.9453	78.3034	43.9453	78.4109	43.9453	78.3446	43.9453	78.494	43.9453	78.4064	43.9453	78.5966	43.9453	78.4884	43.9453	78.7177	43.9453	78.5902	43.9453	78.8561	43.9453	78.711	43.9453	79.01	43.9453	78.8497	43.9453	79.1767	43.9453	79.0045	43.9453	79.3526	43.9453	79.1729	43.9453	79.5326	43.9453	79.351	43.9453	79.7103	43.9453	79.5335	43.9453	79.8779	43.9453	79.7135	43.9453	80.0268	43.9453	79.8829	43.9453	80.1485	43.9453	80.0327	43.9453	80.2353	43.9453	80.154	43.9453	80.281	43.9453	80.2391	43.9453	80.2824
46.875	79.286	46.875	79.3059	46.875	79.2856	46.875	79.3447	46.875	79.3045	46.875	79.402	46.875	79.3424	46.875	79.4765	46.875	79.3986	46.875	79.5672	46.875	79.4723	46.875	79.6725	46.875	79.5622	46.875	79.7907	46.875	79.667	46.875	79.9198	46.875	79.7852	46.875	80.0574	46.875	79.9148	46.875	80.2006	46.875	80.0536	46.875	80.3454	46.875	80.1983	46.875	80.4871	46.875	80.3451	46.875	80.6201	46.875	80.4888	46.875	80.738	46.875	80.6234	46.875	80.8342	46.875	80.7421	46.875	80.9027	46.875	80.8382	46.875	80.9388	46.875	80.9056	46.875	80.9399
49.8047	80.219	49.8047	80.2335	49.8047	80.2228	49.8047	80.266	49.8047	80.2448	49.8047	80.3158	49.8047	80.2843	49.8047	80.3816	49.8047	80.3402	49.8047	80.4621	49.8047	80.4112	49.8047	80.5553	49.8047	80.4956	49.8047	80.6594	49.8047	80.5915	49.8047	80.7721	49.8047	80.6969	49.8047	80.8911	49.8047	80.8098	49.8047	81.0134	49.8047	80.9278	49.8047	81.136	49.8047	81.0483	49.8047	81.2548	49.8047	81.1682	49.8047	81.3656	49.8047	81.2837	49.8047	81.4634	49.8047	81.3906	49.8047	81.5433	49.8047	81.4838	49.8047	81.6006	49.8047	81.5584	49.8047	81.6319	49.8047	81.6099	49.8047	81.635
52.7344	81.211	52.7344	81.2281	52.7344	81.2097	52.7344	81.2605	52.7344	81.2241	52.7344	81.3073	52.7344	81.2538	52.7344	81.3671	52.7344	81.2976	52.7344	81.438	52.7344	81.3541	52.7344	81.5182	52.7344	81.4217	52.7344	81.6054	52.7344	81.4985	52.7344	81.6974	52.7344	81.5823	52.7344	81.7918	52.7344	81.6714	52.7344	81.8863	52.7344	81.7635	52.7344	81.9784	52.7344	81.8568	52.7344	82.0655	52.7344	81.949	52.7344	82.1445	52.7344	82.0374	52.7344	82.2124	52.7344	82.1194	52.7344	82.266	52.7344	82.1914	52.7344	82.3025	52.7344	82.2503	52.7344	82.3197	52.7344	82.2928	52.7344	82.3164
55.6641	82.062	55.6641	82.0766	55.6641	82.0613	55.6641	82.1046	55.6641	82.0745	55.6641	82.145	55.6641	82.101	55.6641	82.1965	55.6641	82.1396	55.6641	82.2571	55.6641	82.1889	55.6641	82.3248	55.6641	82.2471	55.6641	82.3975	55.6641	82.3122	55.6641	82.473	55.6641	82.3822	55.6641	82.5491	55.6641	82.4551	55.6641	82.6238	55.6641	82.529	55.6641	82.6952	55.6641	82.6024	55.6641	82.7614	55.6641	82.6734	55.6641	82.8206	55.6641	82.7404	55.6641	82.8708	55.6641	82.8016	55.6641	82.9101	55.6641	82.8549	55.6641	82.9366	55.6641	82.8981	55.6641	82.949	55.6641	82.9292	55.6641	82.9464
58.5938	82.854	58.5938	82.8656	58.5938	82.8548	58.5938	82.8892	58.5938	82.8681	58.5938	82.9239	58.5938	82.893	58.5938	82.9681	58.5938	82.9285	58.5938	83.0202	58.5938	82.973	58.5938	83.078	58.5938	83.0246	58.5938	83.1394	58.5938	83.0814	58.5938	83.2022	58.5938	83.1411	58.5938	83.2644	58.5938	83.2019	58.5938	83.3243	58.5938	83.262	58.5938	83.3803	58.5938	83.3199	58.5938	83.4311	58.5938	83.3743	58.5938	83.4755	58.5938	83.4242	58.5938	83.5126	58.5938	83.4685	58.5938	83.5412	58.5938	83.5062	58.5938	83.5606	58.5938	83.5362	58.5938	83.5699	58.5938	83.5574	58.5938	83.5688
61.5234	83.5326	61.5234	83.5422	61.5234	83.5341	61.5234	83.5625	61.5234	83.5467	61.5234	83.5925	61.5234	83.5697	61.5234	83.631	61.5234	83.602	61.5234	83.676	61.5234	83.6419	61.5234	83.7256	61.5234	83.6875	61.5234	83.7775	61.5234	83.7369	61.5234	83.8298	61.5234	83.7878	61.5234	83.8804	61.5234	83.8384	61.5234	83.9277	61.5234	83.8868	61.5234	83.9707	61.5234	83.9319	61.5234	84.0083	61.5234	83.9726	61.5234	84.04	61.5234	84.0085	61.5234	84.0656	61.5234	84.039	61.5234	84.0849	61.5234	84.064	61.5234	84.0977	61.5234	84.0833	61.5234	84.1039	61.5234	84.0965	61.5234	84.1035
64.4531	84.0636	64.4531	84.0715	64.4531	84.0659	64.4531	84.0892	64.4531	84.0783	64.4531	84.1158	64.4531	84.1001	64.4531	84.15	64.4531	84.1302	64.4531	84.1899	64.4531	84.167	64.4531	84.2337	64.4531	84.2085	64.4531	84.279	64.4531	84.2527	64.4531	84.3239	64.4531	84.2974	64.4531	84.3665	64.4531	84.3407	64.4531	84.4052	64.4531	84.3809	64.4531	84.439	64.4531	84.4168	64.4531	84.4674	64.4531	84.4476	64.4531	84.4901	64.4531	84.4732	64.4531	84.5076	64.4531	84.4937	64.4531	84.52	64.4531	84.5094	64.4531	84.528	64.4531	84.5208	64.4531	84.5319	64.4531	84.5282	64.4531	84.5319
67.3828	84.4585	67.3828	84.4644	67.3828	84.4618	67.3828	84.4791	67.3828	84.4743	67.3828	84.5018	67.3828	84.4952	67.3828	84.5313	67.3828	84.5234	67.3828	84.5657	67.3828	84.5575	67.3828	84.6033	67.3828	84.5954	67.3828	84.6419	67.3828	84.6351	67.3828	84.6795	67.3828	84.6745	67.3828	84.7144	67.3828	84.7116	67.3828	84.7451	67.3828	84.7448	67.3828	84.7708	67.3828	84.7728	67.3828	84.7913	67.3828	84.795	67.3828	84.8066	67.3828	84.8116	67.3828	84.8176	67.3828	84.8229	67.3828	84.8251	67.3828	84.8299	67.3828	84.83	67.3828	84.8337	67.3828	84.8331	67.3828	84.8351	67.3828	84.8347
70.3125	84.9285	70.3125	84.9336	70.3125	84.9309	70.3125	84.946	70.3125	84.9408	70.3125	84.9648	70.3125	84.9576	70.3125	84.9888	70.3125	84.9804	70.3125	85.0166	70.3125	85.0077	70.3125	85.0462	70.3125	85.0379	70.3125	85.076	70.3125	85.069	70.3125	85.1039	70.3125	85.0991	70.3125	85.1285	70.3125	85.1263	70.3125	85.1484	70.3125	85.149	70.3125	85.163	70.3125	85.1664	70.3125	85.1724	70.3125	85.178	70.3125	85.1772	70.3125	85.1842	70.3125	85.1785	70.3125	85.1859	70.3125	85.1777	70.3125	85.1845	70.3125	85.1764	70.3125	85.1816	70.3125	85.1757	70.3125	85.1785	70.3125	85.1764
73.2422	85.3293	73.2422	85.33	73.2422	85.3342	73.2422	85.336	73.2422	85.3446	73.2422	85.3468	73.2422	85.3599	73.2422	85.3613	73.2422	85.3791	73.2422	85.3782	73.2422	85.4011	73.2422	85.3961	73.2422	85.4242	73.2422	85.4132	73.2422	85.4466	73.2422	85.4281	73.2422	85.4666	73.2422	85.4393	73.2422	85.4824	73.2422	85.4461	73.2422	85.4928	73.2422	85.4481	73.2422	85.4969	73.2422	85.4458	73.2422	85.4948	73.2422	85.4403	73.2422	85.487	73.2422	85.4332	73.2422	85.475	73.2422	85.4266	73.2422	85.4608	73.2422	85.4222	73.2422	85.4466	73.2422	85.4217	73.2422	85.4343	73.2422	85.4257
76.1719	85.6145	76.1719	85.6167	76.1719	85.617	76.1719	85.6234	76.1719	85.624	76.1719	85.6337	76.1719	85.6353	76.1719	85.6467	76.1719	85.65	76.1719	85.6613	76.1719	85.6668	76.1719	85.6758	76.1719	85.6845	76.1719	85.6887	76.1719	85.7013	76.1719	85.6985	76.1719	85.7154	76.1719	85.7039	76.1719	85.7253	76.1719	85.7042	76.1719	85.7298	76.1719	85.6992	76.1719	85.7281	76.1719	85.6894	76.1719	85.7202	76.1719	85.6764	76.1719	85.7072	76.1719	85.6621	76.1719	85.6906	76.1719	85.6487	76.1719	85.6727	76.1719	85.6387	76.1719	85.656	76.1719	85.6338	76.1719	85.6429	76.1719	85.6352
79.1016	85.895	79.1016	85.8991	79.1016	85.8941	79.1016	85.906	79.1016	85.8963	79.1016	85.9152	79.1016	85.9015	79.1016	85.9255	79.1016	85.9089	79.1016	85.9359	79.1016	85.9176	79.1016	85.945	79.1016	85.9262	79.1016	85.9512	79.1016	85.9335	79.1016	85.9532	79.1016	85.9378	79.1016	85.9498	79.1016	85.9378	79.1016	85.9404	79.1016	85.9325	79.1016	85.925	79.1016	85.9214	79.1016	85.9045	79.1016	85.9049	79.1016	85.8807	79.1016	85.8841	79.1016	85.8558	79.1016	85.861	79.1016	85.8327	79.1016	85.8384	79.1016	85.8143	79.1016	85.819	79.1016	85.8029	79.1016	85.8055	79.1016	85.7998
82.0313	86.0501	82.0313	86.0543	82.0313	86.0481	82.0313	86.0603	82.0313	86.0483	82.0313	86.0676	82.0313	86.0505	82.0313	86.0755	82.0313	86.0542	82.0313	86.0827	82.0313	86.0586	82.0313	86.0881	82.0313	86.0625	82.0313	86.0903	82.0313	86.0648	82.0313	86.0882	82.0313	86.0641	82.0313	86.0805	82.0313	86.0592	82.0313	86.0668	82.0313	86.0493	82.0313	86.0472	82.0313	86.0339	82.0313	86.0226	82.0313	86.0136	82.0313	85.9947	82.0313	85.9897	82.0313	85.9662	82.0313	85.9641	82.0313	85.9398	82.0313	85.9396	82.0313	85.9185	82.0313	85.9192	82.0313	85.9049	82.0313	85.9055	82.0313	85.9004
84.9609	86.0153	84.9609	86.018	84.9609	86.0143	84.9609	86.022	84.9609	86.0149	84.9609	86.0271	84.9609	86.017	84.9609	86.0325	84.9609	86.0201	84.9609	86.0374	84.9609	86.0236	84.9609	86.0408	84.9609	86.0265	84.9609	86.0413	84.9609	86.0277	84.9609	86.0379	84.9609	86.026	84.9609	86.0297	84.9609	86.0203	84.9609	86.016	84.9609	86.0098	84.9609	85.9969	84.9609	85.9941	84.9609	85.9732	84.9609	85.9736	84.9609	85.9465	84.9609	85.9496	84.9609	85.9194	84.9609	85.924	84.9609	85.8944	84.9609	85.8995	84.9609	85.8745	84.9609	85.8787	84.9609	85.8621	84.9609	85.8645	84.9609	85.8587
87.8906	86.0565	87.8906	86.0588	87.8906	86.0543	87.8906	86.061	87.8906	86.0524	87.8906	86.0628	87.8906	86.0506	87.8906	86.0637	87.8906	86.0487	87.8906	86.063	87.8906	86.0462	87.8906	86.0598	87.8906	86.0425	87.8906	86.0533	87.8906	86.0366	87.8906	86.0424	87.8906	86.0277	87.8906	86.0266	87.8906	86.0148	87.8906	86.0053	87.8906	85.9973	87.8906	85.979	87.8906	85.9751	87.8906	85.9487	87.8906	85.9487	87.8906	85.9162	87.8906	85.9193	87.8906	85.884	87.8906	85.8891	87.8906	85.8551	87.8906	85.8607	87.8906	85.8324	87.8906	85.8372	87.8906	85.8183	87.8906	85.821	87.8906	85.8144
90.8203	86.123	90.8203	86.1253	90.8203	86.1195	90.8203	86.1263	90.8203	86.1148	90.8203	86.1256	90.8203	86.109	90.8203	86.1228	90.8203	86.1018	90.8203	86.1175	90.8203	86.093	90.8203	86.1089	90.8203	86.0822	90.8203	86.0963	90.8203	86.0686	90.8203	86.0789	90.8203	86.0517	90.8203	86.0561	90.8203	86.0307	90.8203	86.0278	90.8203	86.0054	90.8203	85.9943	90.8203	85.9757	90.8203	85.9569	90.8203	85.9426	90.8203	85.9176	90.8203	85.9074	90.8203	85.879	90.8203	85.8725	90.8203	85.8444	90.8203	85.8407	90.8203	85.8169	90.8203	85.8151	90.8203	85.7991	90.8203	85.7985	90.8203	85.7929
93.75	86.1354	93.75	86.1378	93.75	86.1312	93.75	86.1382	93.75	86.1253	93.75	86.1365	93.75	86.1177	93.75	86.1324	93.75	86.1084	93.75	86.1256	93.75	86.0973	93.75	86.1155	93.75	86.0841	93.75	86.1016	93.75	86.0684	93.75	86.0831	93.75	86.0497	93.75	86.0597	93.75	86.0275	93.75	86.0311	93.75	86.0015	93.75	85.9977	93.75	85.9719	93.75	85.9607	93.75	85.9393	93.75	85.922	93.75	85.9052	93.75	85.8841	93.75	85.8718	93.75	85.8499	93.75	85.8416	93.75	85.8227	93.75	85.8176	93.75	85.8047	93.75	85.8024	93.75	85.7978
96.6797	86.2265	96.6797	86.2275	96.6797	86.222	96.6797	86.2252	96.6797	86.2142	96.6797	86.2194	96.6797	86.2033	96.6797	86.2102	96.6797	86.1894	96.6797	86.1975	96.6797	86.1725	96.6797	86.1811	96.6797	86.1529	96.6797	86.1606	96.6797	86.1303	96.6797	86.1359	96.6797	86.1045	96.6797	86.1065	96.6797	86.0756	96.6797	86.0725	96.6797	86.0433	96.6797	86.0344	96.6797	86.0082	96.6797	85.9935	96.6797	85.9709	96.6797	85.9514	96.6797	85.9331	96.6797	85.9109	96.6797	85.8969	96.6797	85.8748	96.6797	85.8648	96.6797	85.846	96.6797	85.8397	96.6797	85.827	96.6797	85.824	96.6797	85.8195
102.539	86.2814	102.539	86.2788	102.539	86.2778	102.539	86.2705	102.539	86.2681	102.539	86.2566	102.539	86.2525	102.539	86.2376	102.539	86.2312	102.539	86.214	102.539	86.2047	102.539	86.1861	102.539	86.1736	102.539	86.154	102.539	86.1382	102.539	86.1179	102.539	86.0991	102.539	86.0779	102.539	86.0568	102.539	86.0343	102.539	86.0119	102.539	85.988	102.539	85.9654	102.539	85.94	102.539	85.9185	102.539	85.8924	102.539	85.873	102.539	85.8474	102.539	85.831	102.539	85.8079	102.539	85.7952	102.539	85.7766	102.539	85.768	102.539	85.7559	102.539	85.7515	102.539	85.7473
105.469	86.2384	105.469	86.2294	105.469	86.2401	105.469	86.2134	105.469	86.2344	105.469	86.1913	105.469	86.2213	105.469	86.1638	105.469	86.2013	105.469	86.1318	105.469	86.1749	105.469	86.096	105.469	86.1429	105.469	86.0573	105.469	86.1057	105.469	86.0159	105.469	86.0642	105.469	85.9725	105.469	86.0191	105.469	85.9274	105.469	85.971	105.469	85.8815	105.469	85.9212	105.469	85.8357	105.469	85.8708	105.469	85.7918	105.469	85.8218	105.469	85.7517	105.469	85.7762	105.469	85.7177	105.469	85.7364	105.469	85.6923	105.469	85.705	105.469	85.6774	105.469	85.6838	105.469	85.6745
108.398	86.1591	108.398	86.1489	108.398	86.1605	108.398	86.1304	108.398	86.1531	108.398	86.1043	108.398	86.1374	108.398	86.0715	108.398	86.1139	108.398	86.0332	108.398	86.0834	108.398	85.9905	108.398	86.0469	108.398	85.9446	108.398	86.0054	108.398	85.8964	108.398	85.9598	108.398	85.847	108.398	85.911	108.398	85.7971	108.398	85.8599	108.398	85.7479	108.398	85.8077	108.398	85.7005	108.398	85.7556	108.398	85.6566	108.398	85.7054	108.398	85.6178	108.398	85.6589	108.398	85.5862	108.398	85.6183	108.398	85.5637	108.398	85.5857	108.398	85.5518	108.398	85.5629	108.398	85.5514
111.328	86.1726	111.328	86.163	111.328	86.1727	111.328	86.1443	111.328	86.1634	111.328	86.1173	111.328	86.145	111.328	86.0831	111.328	86.1183	111.328	86.0429	111.328	86.0843	111.328	85.9981	111.328	86.0441	111.328	85.9499	111.328	85.9988	111.328	85.8995	111.328	85.9498	111.328	85.8481	111.328	85.898	111.328	85.7966	111.328	85.8446	111.328	85.7462	111.328	85.791	111.328	85.6979	111.328	85.7383	111.328	85.6533	111.328	85.6884	111.328	85.6141	111.328	85.643	111.328	85.5818	111.328	85.604	111.328	85.5584	111.328	85.5735	111.328	85.5453	111.328	85.5529	111.328	85.5433
117.188	86.2669	117.188	86.2556	117.188	86.2669	117.188	86.2336	117.188	86.2557	117.188	86.2017	117.188	86.2337	117.188	86.1614	117.188	86.2019	117.188	86.1144	117.188	86.1617	117.188	86.0624	117.188	86.1147	117.188	86.0074	117.188	86.0626	117.188	85.951	117.188	86.0071	117.188	85.8948	117.188	85.9499	117.188	85.8402	117.188	85.8925	117.188	85.7884	117.188	85.8366	117.188	85.7407	117.188	85.7835	117.188	85.6981	117.188	85.7347	117.188	85.6619	117.188	85.6917	117.188	85.6331	117.188	85.6557	117.188	85.6128	117.188	85.6279	117.188	85.6018	117.188	85.6094	117.188	85.6006
120.117	86.2958	120.117	86.283	120.117	86.2963	120.117	86.2587	120.117	86.2847	120.117	86.2238	120.117	86.2616	120.117	86.1801	120.117	86.228	120.117	86.1294	120.117	86.1855	120.117	86.0739	120.117	86.1358	120.117	86.0157	120.117	86.0811	120.117	85.9568	120.117	86.0232	120.117	85.8991	120.117	85.964	120.117	85.8442	120.117	85.9055	120.117	85.7932	120.117	85.8491	120.117	85.7473	120.117	85.7965	120.117	85.7074	120.117	85.7489	120.117	85.6742	120.117	85.7075	120.117	85.6485	120.117	85.6734	120.117	85.6308	120.117	85.6473	120.117	85.6215	120.117	85.6298	120.117	85.6212
125.977	86.0904	125.977	86.0742	125.977	86.092	125.977	86.044	125.977	86.0791	125.977	86.0012	125.977	86.0527	125.977	85.9477	125.977	86.0143	125.977	85.8863	125.977	85.966	125.977	85.8198	125.977	85.9104	125.977	85.7513	125.977	85.8502	125.977	85.684	125.977	85.7878	125.977	85.6205	125.977	85.726	125.977	85.5632	125.977	85.6669	125.977	85.5137	125.977	85.6121	125.977	85.473	125.977	85.563	125.977	85.4415	125.977	85.5203	125.977	85.419	125.977	85.4843	125.977	85.4046	125.977	85.4549	125.977	85.3977	125.977	85.4318	125.977	85.3975	125.977	85.4146	125.977	85.4032
128.906	86.0723	128.906	86.0583	128.906	86.0703	128.906	86.0289	128.906	86.0526	128.906	85.9852	128.906	86.0204	128.906	85.9295	128.906	85.9755	128.906	85.8643	128.906	85.9205	128.906	85.7928	128.906	85.8582	128.906	85.7184	128.906	85.7917	128.906	85.6447	128.906	85.7241	128.906	85.5749	128.906	85.6583	128.906	85.5117	128.906	85.5967	128.906	85.4574	128.906	85.5411	128.906	85.4134	128.906	85.4926	128.906	85.3799	128.906	85.4517	128.906	85.3568	128.906	85.4182	128.906	85.343	128.906	85.3914	128.906	85.3371	128.906	85.3705	128.906	85.3377	128.906	85.3548	128.906	85.3439
134.766	86.1706	134.766	86.1615	134.766	86.1617	134.766	86.1353	134.766	86.135	134.766	86.0934	134.766	86.0918	134.766	86.0383	134.766	86.034	134.766	85.9731	134.766	85.9646	134.766	85.901	134.766	85.8873	134.766	85.8259	134.766	85.8061	134.766	85.7512	134.766	85.7252	134.766	85.6804	134.766	85.6487	134.766	85.6162	134.766	85.5802	134.766	85.5606	134.766	85.5223	134.766	85.5149	134.766	85.4764	134.766	85.479	134.766	85.4428	134.766	85.4522	134.766	85.4205	134.766	85.4331	134.766	85.4077	134.766	85.4199	134.766	85.4022	134.766	85.4109	134.766	85.4018	134.766	85.4049
137.695	86.1236	137.695	86.1127	137.695	86.1152	137.695	86.0834	137.695	86.0876	137.695	86.0377	137.695	86.0416	137.695	85.9785	137.695	85.9796	137.695	85.909	137.695	85.9047	137.695	85.8333	137.695	85.8206	137.695	85.7553	137.695	85.7321	137.695	85.6791	137.695	85.6439	137.695	85.6081	137.695	85.5609	137.695	85.5452	137.695	85.4873	137.695	85.4921	137.695	85.4264	137.695	85.4495	137.695	85.3801	137.695	85.4169	137.695	85.3486	137.695	85.3929	137.695	85.3306	137.695	85.3753	137.695	85.3239	137.695	85.3618	137.695	85.3252	137.695	85.3505	137.695	85.3315	137.695	85.3404
143.555	85.9464	143.555	85.9236	143.555	85.9465	143.555	85.8796	143.555	85.9237	143.555	85.8168	143.555	85.8791	143.555	85.7389	143.555	85.8148	143.555	85.6504	143.555	85.7342	143.555	85.5565	143.555	85.6415	143.555	85.4626	143.555	85.5418	143.555	85.374	143.555	85.4408	143.555	85.2953	143.555	85.3443	143.555	85.2299	143.555	85.2576	143.555	85.1793	143.555	85.1851	143.555	85.1435	143.555	85.1297	143.555	85.1207	143.555	85.0922	143.555	85.1076	143.555	85.0713	143.555	85.1004	143.555	85.0641	143.555	85.0953	143.555	85.0664	143.555	85.0897	143.555	85.0737	143.555	85.0823
149.414	85.9738	149.414	85.9481	149.414	85.9731	149.414	85.8974	149.414	85.9463	149.414	85.8239	149.414	85.8948	149.414	85.7314	149.414	85.8214	149.414	85.6246	149.414	85.7297	149.414	85.5096	149.414	85.6249	149.414	85.3927	149.414	85.5127	149.414	85.2807	149.414	85.3996	149.414	85.1801	149.414	85.2919	149.414	85.0959	149.414	85.1956	149.414	85.0315	149.414	85.1154	149.414	84.9877	149.414	85.0541	149.414	84.963	149.414	85.0119	149.414	84.9536	149.414	84.9869	149.414	84.9545	149.414	84.9751	149.414	84.9602	149.414	84.9715	149.414	84.9662	149.414	84.9711	149.414	84.97
155.273	86.0254	155.273	85.9993	155.273	86.0225	155.273	85.9459	155.273	85.9907	155.273	85.8678	155.273	85.9311	155.273	85.7689	155.273	85.8462	155.273	85.6543	155.273	85.74	155.273	85.53	155.273	85.6175	155.273	85.4027	155.273	85.4854	155.273	85.2796	155.273	85.351	155.273	85.1671	155.273	85.2219	155.273	85.0709	155.273	85.1056	155.273	84.9943	155.273	85.0083	155.273	84.9387	155.273	84.9338	155.273	84.9024	155.273	84.8832	155.273	84.8819	155.273	84.8546	155.273	84.8719	155.273	84.8435	155.273	84.8672	155.273	84.844	155.273	84.8633	155.273	84.8504	155.273	84.8577
158.203	86.0126	158.203	85.9831	158.203	86.0127	158.203	85.9257	158.203	85.983	158.203	85.8434	158.203	85.9248	158.203	85.7405	158.203	85.8405	158.203	85.6226	158.203	85.7343	158.203	85.4963	158.203	85.6116	158.203	85.3689	158.203	85.4791	158.203	85.248	158.203	85.3445	158.203	85.1406	158.203	85.2161	158.203	85.052	158.203	85.1017	158.203	84.9854	158.203	85.0077	158.203	84.9411	158.203	84.9382	158.203	84.9165	158.203	84.8941	158.203	84.9067	158.203	84.8729	158.203	84.9055	158.203	84.8695	158.203	84.9068	158.203	84.8772	158.203	84.9057	158.203	84.8891	158.203	84.8997
164.063	86.1048	164.063	86.0702	164.063	86.107	164.063	86.0046	164.063	86.0766	164.063	85.911	164.063	86.015	164.063	85.7941	164.063	85.9252	164.063	85.6601	164.063	85.8116	164.063	85.5166	164.063	85.68	164.063	85.3724	164.063	85.5381	164.063	85.2369	164.063	85.3943	164.063	85.1188	164.063	85.258	164.063	85.0252	164.063	85.138	164.063	84.9601	164.063	85.0416	164.063	84.9236	164.063	84.9731	164.063	84.9119	164.063	84.9331	164.063	84.9179	164.063	84.9182	164.063	84.9331	164.063	84.9217	164.063	84.9489	164.063	84.9351	164.063	84.9587	164.063	84.9498	164.063	84.959
169.922	86.0363	169.922	85.9975	169.922	86.0401	169.922	85.9255	169.922	86.0088	169.922	85.8235	169.922	85.9436	169.922	85.6967	169.922	85.8475	169.922	85.5517	169.922	85.7251	169.922	85.3971	169.922	85.5827	169.922	85.243	169.922	85.4285	169.922	85.1001	169.922	85.2724	169.922	84.9783	169.922	85.1252	169.922	84.8859	169.922	84.9974	169.922	84.8269	169.922	84.8978	169.922	84.8008	169.922	84.8317	169.922	84.8023	169.922	84.7996	169.922	84.8221	169.922	84.7967	169.922	84.8494	169.922	84.8146	169.922	84.8737	169.922	84.8421	169.922	84.887	169.922	84.8685	169.922	84.8851
175.781	85.9226	175.781	85.8742	175.781	85.9306	175.781	85.7867	175.781	85.8988	175.781	85.6631	175.781	85.829	175.781	85.5084	175.781	85.7249	175.781	85.3303	175.781	85.5917	175.781	85.1389	175.781	85.4366	175.781	84.947	175.781	85.269	175.781	84.7693	175.781	85.1	175.781	84.6204	175.781	84.9417	175.781	84.5126	175.781	84.8063	175.781	84.4527	175.781	84.7035	175.781	84.4405	175.781	84.6389	175.781	84.468	175.781	84.6121	175.781	84.5215	175.781	84.6166	175.781	84.585	175.781	84.6412	175.781	84.643	175.781	84.6721	175.781	84.6839	175.781	84.6957	175.781	84.7015
181.641	85.9413	181.641	85.9029	181.641	85.9341	181.641	85.8195	181.641	85.882	181.641	85.693	181.641	85.7872	181.641	85.5274	181.641	85.6534	181.641	85.3292	181.641	85.4863	181.641	85.1078	181.641	85.2936	181.641	84.8762	181.641	85.086	181.641	84.6506	181.641	84.8765	181.641	84.449	181.641	84.6803	181.641	84.289	181.641	84.5126	181.641	84.1833	181.641	84.3861	181.641	84.1366	181.641	84.3079	181.641	84.1434	181.641	84.2775	181.641	84.1893	181.641	84.2861	181.641	84.2549	181.641	84.3187	181.641	84.3202	181.641	84.3574	181.641	84.369	181.641	84.3858	181.641	84.3915
190.43	86.1899	190.43	86.1534	190.43	86.1788	190.43	86.0704	190.43	86.1196	190.43	85.9426	190.43	86.0126	190.43	85.7726	190.43	85.859	190.43	85.5648	190.43	85.6616	190.43	85.3256	190.43	85.4255	190.43	85.0647	190.43	85.1593	190.43	84.7954	190.43	84.8752	190.43	84.5344	190.43	84.59	190.43	84.3005	190.43	84.3238	190.43	84.1109	190.43	84.0976	190.43	83.9773	190.43	83.9285	190.43	83.9017	190.43	83.8253	190.43	83.8753	190.43	83.7848	190.43	83.8806	190.43	83.7928	190.43	83.8971	190.43	83.828	190.43	83.9066	190.43	83.8686	190.43	83.8976
196.289	86.2046	196.289	86.1575	196.289	86.2045	196.289	86.0646	196.289	86.1569	196.289	85.9273	196.289	86.0617	196.289	85.7486	196.289	85.9199	196.289	85.5328	196.289	85.7335	196.289	85.2862	196.289	85.5066	196.289	85.0184	196.289	85.246	196.289	84.7425	196.289	84.9622	196.289	84.4748	196.289	84.6702	196.289	84.2336	196.289	84.3886	196.289	84.036	196.289	84.1383	196.289	83.8936	196.289	83.9383	196.289	83.8086	196.289	83.8009	196.289	83.7727	196.289	83.7275	196.289	83.7695	196.289	83.7078	196.289	83.7791	196.289	83.7229	196.289	83.7842	196.289	83.7513	196.289	83.775
202.148	86.181	202.148	86.1232	202.148	86.1914	202.148	86.019	202.148	86.154	202.148	85.8704	202.148	86.069	202.148	85.6802	202.148	85.9371	202.148	85.4532	202.148	85.7603	202.148	85.1963	202.148	85.5423	202.148	84.9194	202.148	85.2888	202.148	84.6357	202.148	85.0092	202.148	84.3619	202.148	84.7168	202.148	84.1161	202.148	84.429	202.148	83.9152	202.148	84.1658	202.148	83.7706	202.148	83.9465	202.148	83.6842	202.148	83.7854	202.148	83.6477	202.148	83.6866	202.148	83.6449	202.148	83.6429	202.148	83.6563	202.148	83.6376	202.148	83.6655	202.148	83.6504	202.148	83.6633
210.938	86.1681	210.938	86.1162	210.938	86.1749	210.938	86.019	210.938	86.1371	210.938	85.8765	210.938	86.0557	210.938	85.6896	210.938	85.9317	210.938	85.4607	210.938	85.7672	210.938	85.1945	210.938	85.5656	210.938	84.8996	210.938	85.332	210.938	84.5886	210.938	85.0747	210.938	84.2797	210.938	84.805	210.938	83.9948	210.938	84.5374	210.938	83.7564	210.938	84.2884	210.938	83.5824	210.938	84.0735	210.938	83.4802	210.938	83.9041	210.938	83.4441	210.938	83.7835	210.938	83.4573	210.938	83.7058	210.938	83.4977	210.938	83.6579	210.938	83.5456	210.938	83.6234	210.938	83.5883
216.797	86.0007	216.797	85.9599	216.797	85.998	216.797	85.8756	216.797	85.9524	216.797	85.7484	216.797	85.8654	216.797	85.58	216.797	85.7389	216.797	85.3735	216.797	85.5762	216.797	85.1342	216.797	85.3817	216.797	84.8703	216.797	85.1621	216.797	84.594	216.797	84.9263	216.797	84.3216	216.797	84.6859	216.797	84.0724	216.797	84.4549	216.797	83.8657	216.797	84.2478	216.797	83.7169	216.797	84.0773	216.797	83.6319	216.797	83.9506	216.797	83.6055	216.797	83.8676	216.797	83.6226	216.797	83.8199	216.797	83.6634	216.797	83.7936	216.797	83.7089	216.797	83.7733	216.797	83.7468
225.586	85.9643	225.586	85.94	225.586	85.9362	225.586	85.8639	225.586	85.8556	225.586	85.7374	225.586	85.7238	225.586	85.563	225.586	85.5431	225.586	85.3448	225.586	85.3185	225.586	85.0892	225.586	85.0575	225.586	84.8065	225.586	84.7719	225.586	84.5113	225.586	84.4778	225.586	84.223	225.586	84.1957	225.586	83.9645	225.586	83.948	225.586	83.7582	225.586	83.7552	225.586	83.6202	225.586	83.6305	225.586	83.5549	225.586	83.575	225.586	83.5523	225.586	83.5771	225.586	83.5914	225.586	83.6153	225.586	83.646	225.586	83.6644	225.586	83.6919	225.586	83.7018	225.586	83.7126
234.375	86.2643	234.375	86.2149	234.375	86.2607	234.375	86.1147	234.375	86.2025	234.375	85.9668	234.375	86.0889	234.375	85.7749	234.375	85.92	234.375	85.5444	234.375	85.6975	234.375	85.2826	234.375	85.4255	234.375	84.9997	234.375	85.1121	234.375	84.7094	234.375	84.7705	234.375	84.4289	234.375	84.4209	234.375	84.1778	234.375	84.0897	234.375	83.9746	234.375	83.8068	234.375	83.832	234.375	83.5994	234.375	83.7521	234.375	83.4827	234.375	83.7248	234.375	83.454	234.375	83.7296	234.375	83.4928	234.375	83.7419	234.375	83.568	234.375	83.7397	234.375	83.648	234.375	83.7091
240.234	85.9755	240.234	85.9119	240.234	85.9852	240.234	85.7966	240.234	85.9396	240.234	85.6329	240.234	85.8384	240.234	85.4253	240.234	85.6825	240.234	85.1804	240.234	85.4744	240.234	84.9074	240.234	85.2196	240.234	84.6193	240.234	84.927	240.234	84.3331	240.234	84.611	240.234	84.0694	240.234	84.2917	240.234	83.8501	240.234	83.9949	240.234	83.6933	240.234	83.7482	240.234	83.608	240.234	83.5752	240.234	83.5897	240.234	83.4875	240.234	83.621	240.234	83.4798	240.234	83.6758	240.234	83.5308	240.234	83.7268	240.234	83.6104	240.234	83.752	240.234	83.6877	240.234	83.7391
249.023	86.0344	249.023	85.9625	249.023	86.0465	249.023	85.8328	249.023	85.9975	249.023	85.6484	249.023	85.887	249.023	85.4138	249.023	85.7156	249.023	85.1358	249.023	85.4857	249.023	84.8243	249.023	85.2021	249.023	84.494	249.023	84.8744	249.023	84.1647	249.023	84.5176	249.023	83.8609	249.023	84.1544	249.023	83.6092	249.023	83.8142	249.023	83.432	249.023	83.5304	249.023	83.3404	249.023	83.332	249.023	83.3289	249.023	83.2341	249.023	83.3759	249.023	83.2306	249.023	83.4497	249.023	83.2957	249.023	83.5176	249.023	83.3923	249.023	83.5534	249.023	83.4838	249.023	83.5423
257.813	86.0476	257.813	85.9574	257.813	86.0762	257.813	85.8069	257.813	86.0422	257.813	85.5984	257.813	85.9449	257.813	85.336	257.813	85.7844	257.813	85.0267	257.813	85.5616	257.813	84.6821	257.813	85.2803	257.813	84.32	257.813	84.9481	257.813	83.9653	257.813	84.5794	257.813	83.6493	257.813	84.1972	257.813	83.4045	257.813	83.8335	257.813	83.2562	257.813	83.5267	257.813	83.212	257.813	83.3121	257.813	83.2578	257.813	83.2101	257.813	83.3609	257.813	83.2162	257.813	83.4802	257.813	83.3017	257.813	83.578	257.813	83.4235	257.813	83.6264	257.813	83.5383	257.813	83.6122
266.602	85.9917	266.602	85.8916	266.602	86.0275	266.602	85.7274	266.602	85.9989	266.602	85.4999	266.602	85.906	266.602	85.2122	266.602	85.7489	266.602	84.8702	266.602	85.5284	266.602	84.4856	266.602	85.2475	266.602	84.0778	266.602	84.9133	266.602	83.6761	266.602	84.5394	266.602	83.3195	266.602	84.1487	266.602	83.0508	266.602	83.7749	266.602	82.9044	266.602	83.4588	266.602	82.8909	266.602	83.2398	266.602	82.9906	266.602	83.1413	266.602	83.1591	266.602	83.159	266.602	83.3429	266.602	83.2606	266.602	83.4945	266.602	83.3972	266.602	83.5812	266.602	83.5194	266.602	83.5881
278.32	85.9406	278.32	85.9004	278.32	85.9116	278.32	85.7852	278.32	85.8199	278.32	85.5907	278.32	85.6721	278.32	85.3148	278.32	85.4753	278.32	84.9591	278.32	85.2361	278.32	84.5315	278.32	84.9617	278.32	84.0493	278.32	84.6606	278.32	83.5434	278.32	84.3445	278.32	83.0614	278.32	84.0301	278.32	82.6635	278.32	83.74	278.32	82.4088	278.32	83.5002	278.32	82.3307	278.32	83.3346	278.32	82.4185	278.32	83.2551	278.32	82.6215	278.32	83.2547	278.32	82.8717	278.32	83.3065	278.32	83.1072	278.32	83.3713	278.32	83.2855	278.32	83.4086	278.32	83.3859
287.109	86.0432	287.109	86.0129	287.109	86.0006	287.109	85.9066	287.109	85.8873	287.109	85.7203	287.109	85.7052	287.109	85.45	287.109	85.4571	287.109	85.0931	287.109	85.1471	287.109	84.6516	287.109	84.7831	287.109	84.1372	287.109	84.3778	287.109	83.5768	287.109	83.9516	287.109	83.0197	287.109	83.5337	287.109	82.5372	287.109	83.1615	287.109	82.2079	287.109	82.8749	287.109	82.0839	287.109	82.7053	287.109	82.1596	287.109	82.6618	287.109	82.3728	287.109	82.7249	287.109	82.6373	287.109	82.8517	287.109	82.8775	287.109	82.9894	287.109	83.0438	287.109	83.0891	287.109	83.114
295.898	86.2009	295.898	86.1639	295.898	86.1666	295.898	86.0599	295.898	86.0549	295.898	85.89	295.898	85.8591	295.898	85.652	295.898	85.5733	295.898	85.3411	295.898	85.1952	295.898	84.9524	295.898	84.728	295.898	84.4849	295.898	84.1847	295.898	83.9476	295.898	83.5928	295.898	83.3677	295.898	82.9988	295.898	82.7981	295.898	82.4685	295.898	82.3165	295.898	82.0751	295.898	82.0051	295.898	81.8731	295.898	81.9094	295.898	81.8694	295.898	82.0058	295.898	82.0176	295.898	82.2138	295.898	82.2404	295.898	82.4382	295.898	82.4595	295.898	82.6036	295.898	82.6141	295.898	82.6665
307.617	86.3995	307.617	86.2862	307.617	86.4501	307.617	86.1116	307.617	86.4348	307.617	85.8762	307.617	86.3482	307.617	85.5802	307.617	86.1832	307.617	85.2252	307.617	85.9318	307.617	84.8158	307.617	85.5875	307.617	84.3621	307.617	85.1478	307.617	83.8835	307.617	84.62	307.617	83.4116	307.617	84.0268	307.617	82.9918	307.617	83.4146	307.617	82.6753	307.617	82.8564	307.617	82.5032	307.617	82.4403	307.617	82.4847	307.617	82.2351	307.617	82.5878	307.617	82.2487	307.617	82.7507	307.617	82.4198	307.617	82.9043	307.617	82.6522	307.617	82.9918	307.617	82.8576	307.617	82.9787
319.336	86.2665	319.336	86.184	319.336	86.2818	319.336	86.0317	319.336	86.2317	319.336	85.8059	319.336	86.1163	319.336	85.5035	319.336	85.9336	319.336	85.1227	319.336	85.68	319.336	84.6652	319.336	85.3513	319.336	84.1408	319.336	84.9453	319.336	83.573	319.336	84.4667	319.336	83.0062	319.336	83.9331	319.336	82.5079	319.336	83.3827	319.336	82.1578	319.336	82.8786	319.336	82.0156	319.336	82.4997	319.336	82.0842	319.336	82.311	319.336	82.3031	319.336	82.3249	319.336	82.5785	319.336	82.4882	319.336	82.8224	319.336	82.7099	319.336	82.9728	319.336	82.9011	319.336	82.9991
331.055	86.3511	331.055	86.2701	331.055	86.3675	331.055	86.1197	331.055	86.3223	331.055	85.8941	331.055	86.2163	331.055	85.5862	331.055	86.0477	331.055	85.1896	331.055	85.8127	331.055	84.7007	331.055	85.5057	331.055	84.1228	331.055	85.1215	331.055	83.4735	331.055	84.6587	331.055	82.7952	331.055	84.125	331.055	82.1635	331.055	83.5448	331.055	81.6826	331.055	82.9667	331.055	81.4467	331.055	82.465	331.055	81.4807	331.055	82.1219	331.055	81.7152	331.055	81.9884	331.055	82.028	331.055	82.0476	331.055	82.3052	331.055	82.2184	331.055	82.4721	331.055	82.3977	331.055	82.4992
342.773	85.806	342.773	85.7759	342.773	85.7665	342.773	85.6756	342.773	85.6575	342.773	85.5024	342.773	85.4792	342.773	85.2522	342.773	85.2323	342.773	84.9185	342.773	84.9193	342.773	84.4957	342.773	84.5456	342.773	83.9825	342.773	84.1225	342.773	83.3897	342.773	83.6705	342.773	82.7516	342.773	83.2237	342.773	82.1385	342.773	82.8302	342.773	81.6574	342.773	82.5452	342.773	81.4204	342.773	82.4119	342.773	81.4777	342.773	82.4389	342.773	81.7748	342.773	82.5899	342.773	82.1873	342.773	82.797	342.773	82.5902	342.773	82.9846	342.773	82.8975	342.773	83.0888	342.773	83.0663
354.492	86.2671	354.492	86.1971	354.492	86.2607	354.492	86.0517	354.492	86.1752	354.492	85.8304	354.492	86.0062	354.492	85.5303	354.492	85.7472	354.492	85.1467	354.492	85.3896	354.492	84.6745	354.492	84.9242	354.492	84.1114	354.492	84.3435	354.492	83.4654	354.492	83.6486	354.492	82.7669	354.492	82.8609	354.492	82.084	354.492	82.0414	354.492	81.529	354.492	81.3099	354.492	81.2296	354.492	80.8344	354.492	81.2509	354.492	80.7448	354.492	81.5359	354.492	81.022	354.492	81.9384	354.492	81.504	354.492	82.3072	354.492	82.0016	354.492	82.5352	354.492	82.3791	354.492	82.5647
366.211	86.2391	366.211	86.1247	366.211	86.2806	366.211	85.9366	366.211	86.2483	366.211	85.6721	366.211	86.1394	366.211	85.3264	366.211	85.9491	366.211	84.8932	366.211	85.6705	366.211	84.3664	366.211	85.2954	366.211	83.7438	366.211	84.8151	366.211	83.0341	366.211	84.2238	366.211	82.2691	366.211	83.5245	366.211	81.5198	366.211	82.74	366.211	80.9028	366.211	81.9282	366.211	80.5493	366.211	81.1976	366.211	80.5235	366.211	80.6928	366.211	80.7611	366.211	80.5228	366.211	81.1084	366.211	80.6704	366.211	81.4125	366.211	80.9949	366.211	81.5712	366.211	81.3265	366.211	81.5398
377.93	86.7691	377.93	86.6756	377.93	86.7769	377.93	86.4944	377.93	86.7	377.93	86.222	377.93	86.5378	377.93	85.8535	377.93	86.2884	377.93	85.3825	377.93	85.9483	377.93	84.8027	377.93	85.5132	377.93	84.111	377.93	84.9799	377.93	83.3144	377.93	84.35	377.93	82.4421	377.93	83.6367	377.93	81.5643	377.93	82.8749	377.93	80.806	377.93	82.1325	377.93	80.3243	377.93	81.5116	377.93	80.2183	377.93	81.1195	377.93	80.441	377.93	81.0058	377.93	80.8302	377.93	81.1188	377.93	81.2161	377.93	81.334	377.93	81.4856	377.93	81.5212	377.93	81.5872
392.578	86.5998	392.578	86.5268	392.578	86.5934	392.578	86.3715	392.578	86.5072	392.578	86.1286	392.578	86.3378	392.578	85.7899	392.578	86.079	392.578	85.3456	392.578	85.7228	392.578	84.7856	392.578	85.2608	392.578	84.1035	392.578	84.6882	392.578	83.3041	392.578	84.0082	392.578	82.417	392.578	83.2415	392.578	81.5176	392.578	82.4375	392.578	80.7423	392.578	81.6852	392.578	80.2595	392.578	81.1046	392.578	80.1668	392.578	80.7984	392.578	80.4018	392.578	80.7832	392.578	80.7907	392.578	80.9715	392.578	81.1655	392.578	81.228	392.578	81.4204	392.578	81.4335	392.578	81.51
407.227	86.2021	407.227	86.1354	407.227	86.1995	407.227	85.996	407.227	86.1272	407.227	85.7771	407.227	85.9815	407.227	85.4675	407.227	85.7543	407.227	85.0522	407.227	85.4339	407.227	84.513	407.227	85.0066	407.227	83.8327	407.227	84.4603	407.227	83.0039	407.227	83.7922	407.227	82.0472	407.227	83.021	407.227	81.0463	407.227	82.2074	407.227	80.1891	407.227	81.4738	407.227	79.7441	407.227	80.9924	407.227	79.871	407.227	80.8948	407.227	80.4414	407.227	81.1565	407.227	81.1656	407.227	81.6077	407.227	81.8086	407.227	82.0531	407.227	82.2453	407.227	82.3525	407.227	82.4276
421.875	86.3977	421.875	86.3621	421.875	86.3858	421.875	86.2733	421.875	86.3261	421.875	86.1199	421.875	86.2123	421.875	85.8853	421.875	86.0315	421.875	85.5478	421.875	85.7643	421.875	85.0826	421.875	85.3854	421.875	84.4645	421.875	84.866	421.875	83.6742	421.875	84.1781	421.875	82.7103	421.875	83.3018	421.875	81.6154	421.875	82.2443	421.875	80.5236	421.875	81.0784	421.875	79.6966	421.875	80.0049	421.875	79.4202	421.875	79.3592	421.875	79.7265	421.875	79.3788	421.875	80.3372	421.875	79.9149	421.875	80.9309	421.875	80.5938	421.875	81.3084	421.875	81.1284	421.875	81.3807
436.523	85.7541	436.523	85.6949	436.523	85.7676	436.523	85.5828	436.523	85.7388	436.523	85.407	436.523	85.6668	436.523	85.1522	436.523	85.5441	436.523	84.7989	436.523	85.3556	436.523	84.3248	436.523	85.0798	436.523	83.7092	436.523	84.6911	436.523	82.9418	436.523	84.1652	436.523	82.0397	436.523	83.4871	436.523	81.08	436.523	82.6654	436.523	80.2384	436.523	81.758	436.523	79.77	436.523	80.9054	436.523	79.8355	436.523	80.3299	436.523	80.3216	436.523	80.2154	436.523	80.9456	436.523	80.5283	436.523	81.4673	436.523	81.0375	436.523	81.7558	436.523	81.5005	436.523	81.7634
451.172	85.9267	451.172	85.9022	451.172	85.9181	451.172	85.8412	451.172	85.8756	451.172	85.7336	451.172	85.7935	451.172	85.56	451.172	85.6597	451.172	85.291	451.172	85.4547	451.172	84.8876	451.172	85.1514	451.172	84.3051	451.172	84.7193	451.172	83.4986	451.172	84.129	451.172	82.4363	451.172	83.3627	451.172	81.1367	451.172	82.4317	451.172	79.765	451.172	81.412	451.172	78.7738	451.172	80.4954	451.172	78.7175	451.172	79.9816	451.172	79.5321	451.172	80.0725	451.172	80.6072	451.172	80.6352	451.172	81.4918	451.172	81.3323	451.172	82.0131	451.172	81.8844	451.172	82.1359
465.82	85.4907	465.82	85.4313	465.82	85.4995	465.82	85.3248	465.82	85.4576	465.82	85.1743	465.82	85.3662	465.82	84.9773	465.82	85.2229	465.82	84.7192	465.82	85.0161	465.82	84.3718	465.82	84.7227	465.82	83.8964	465.82	84.3105	465.82	83.2519	465.82	83.744	465.82	82.4093	465.82	82.9962	465.82	81.382	465.82	82.0695	465.82	80.2887	465.82	81.0391	465.82	79.4365	465.82	80.1211	465.82	79.2361	465.82	79.6672	465.82	79.7739	465.82	79.8945	465.82	80.669	465.82	80.6013	465.82	81.5001	465.82	81.3872	465.82	82.038	465.82	81.9643	465.82	82.1966
483.398	85.2393	483.398	85.2194	483.398	85.1987	483.398	85.1475	483.398	85.1007	483.398	85.0357	483.398	84.9588	483.398	84.8873	483.398	84.7876	483.398	84.685	483.398	84.5904	483.398	84.388	483.398	84.3493	483.398	83.9362	483.398	84.0253	483.398	83.2595	483.398	83.5667	483.398	82.2901	483.398	82.9233	483.398	80.9922	483.398	82.069	483.398	79.4602	483.398	81.0471	483.398	78.1691	483.398	80.0598	483.398	78.0074	483.398	79.526	483.398	79.1108	483.398	79.7942	483.398	80.58	483.398	80.6705	483.398	81.7685	483.398	81.6479	483.398	82.4735	483.398	82.3675	483.398	82.665
500.977	87.0051	500.977	86.8608	500.977	86.9368	500.977	86.5087	500.977	86.6683	500.977	85.9715	500.977	86.2284	500.977	85.2902	500.977	85.6601	500.977	84.5181	500.977	85.0131	500.977	83.7041	500.977	84.3284	500.977	82.8662	500.977	83.6169	500.977	81.969	500.977	82.8453	500.977	80.9277	500.977	81.9436	500.977	79.6517	500.977	80.8384	500.977	78.1673	500.977	79.5298	500.977	76.9227	500.977	78.2677	500.977	76.9202	500.977	77.7381	500.977	78.3332	500.977	78.4661	500.977	80.0979	500.977	79.9078	500.977	81.4974	500.977	81.2729	500.977	82.3268	500.977	82.1931	500.977	82.5555
518.555	88.694	518.555	88.5615	518.555	88.687	518.555	88.293	518.555	88.5344	518.555	87.8881	518.555	88.2301	518.555	87.3408	518.555	87.7686	518.555	86.6386	518.555	87.1451	518.555	85.7615	518.555	86.3534	518.555	84.6802	518.555	85.382	518.555	83.3513	518.555	84.2061	518.555	81.7072	518.555	82.7775	518.555	79.6358	518.555	81.0064	518.555	76.9414	518.555	78.7306	518.555	73.2956	518.555	75.6544	518.555	68.6656	518.555	71.2925	518.555	67.5857	518.555	66.6415	518.555	71.1544	518.555	68.9579	518.555	73.822	518.555	72.6239	518.555	75.1915	518.555	74.6806	518.555	75.4705
536.133	86.6642	536.133	86.6748	536.133	86.616	536.133	86.64	536.133	86.526	536.133	86.5412	536.133	86.3789	536.133	86.3501	536.133	86.1507	536.133	86.0317	536.133	85.812	536.133	85.5447	536.133	85.3313	536.133	84.841	536.133	84.6763	536.133	83.8633	536.133	83.8152	536.133	82.5407	536.133	82.7178	536.133	80.7864	536.133	81.3624	536.133	78.5114	536.133	79.7603	536.133	75.7436	536.133	78.0237	536.133	73.1941	536.133	76.492	536.133	72.727	536.133	75.7034	536.133	74.173	536.133	75.8339	536.133	75.6863	536.133	76.409	536.133	76.6443	536.133	76.8984	536.133	77.0213
553.711	86.1686	553.711	86.1243	553.711	86.2146	553.711	86.0735	553.711	86.2602	553.711	85.9996	553.711	86.2898	553.711	85.8777	553.711	86.2724	553.711	85.6729	553.711	86.1628	553.711	85.341	553.711	85.9061	553.711	84.8278	553.711	85.4421	553.711	84.0694	553.711	84.7049	553.711	82.9891	553.711	83.618	553.711	81.4925	553.711	82.0829	553.711	79.4608	553.711	79.961	553.711	76.7756	553.711	77.0559	553.711	73.5799	553.711	73.2438	553.711	71.4498	553.711	69.9705	553.711	72.3539	553.711	71.0535	553.711	74.1788	553.711	73.5353	553.711	75.3572	553.711	75.0978	553.711	75.673
574.219	85.6428	574.219	85.7144	574.219	85.616	574.219	85.8261	574.219	85.6344	574.219	85.9606	574.219	85.6933	574.219	86.0807	574.219	85.7752	574.219	86.1298	574.219	85.843	574.219	86.0404	574.219	85.84	574.219	85.7417	574.219	85.6983	574.219	85.1624	574.219	85.3462	574.219	84.2241	574.219	84.7114	574.219	82.8286	574.219	83.718	574.219	80.8369	574.219	82.2801	574.219	78.0421	574.219	80.2997	574.219	74.2302	574.219	77.7093	574.219	70.4025	574.219	74.7626	574.219	70.9632	574.219	72.9212	574.219	73.5099	574.219	73.5108	574.219	75.0309	574.219	74.7882	574.219	75.4046
594.727	84.0766	594.727	84.0649	594.727	84.147	594.727	84.1447	594.727	84.2642	594.727	84.3422	594.727	84.4362	594.727	84.6418	594.727	84.6651	594.727	84.9753	594.727	84.9186	594.727	85.2437	594.727	85.1258	594.727	85.3455	594.727	85.1938	594.727	85.1918	594.727	85.0282	594.727	84.7062	594.727	84.5412	594.727	83.8181	594.727	83.6477	594.727	82.4572	594.727	82.2558	594.727	80.5598	594.727	80.2586	594.727	78.1365	594.727	77.5686	594.727	75.5658	594.727	74.4136	594.727	74.0657	594.727	72.4022	594.727	74.312	594.727	73.0928	594.727	75.0192	594.727	74.4735	594.727	75.1683
615.234	83.1712	615.234	83.0746	615.234	83.2129	615.234	82.9926	615.234	83.2234	615.234	83.052	615.234	83.3009	615.234	83.3407	615.234	83.5484	615.234	83.8139	615.234	83.9809	615.234	84.314	615.234	84.4967	615.234	84.6661	615.234	84.9402	615.234	84.7363	615.234	85.1726	615.234	84.435	615.234	85.0947	615.234	83.7012	615.234	84.639	615.234	82.4979	615.234	83.7572	615.234	80.8461	615.234	82.4245	615.234	78.9599	615.234	80.6889	615.234	77.4895	615.234	78.8299	615.234	77.1855	615.234	77.5518	615.234	77.7362	615.234	77.4282	615.234	78.2723	615.234	77.9593	615.234	78.3558
638.672	84.8222	638.672	84.5386	638.672	84.8244	638.672	84.017	638.672	84.5674	638.672	83.3913	638.672	84.1415	638.672	82.9058	638.672	83.7176	638.672	82.8111	638.672	83.5043	638.672	83.1259	638.672	83.6008	638.672	83.593	638.672	83.8901	638.672	83.9023	638.672	84.1322	638.672	83.833	638.672	84.1099	638.672	83.2442	638.672	83.6739	638.672	82.0384	638.672	82.729	638.672	80.1986	638.672	81.2488	638.672	78.0958	638.672	79.4325	638.672	77.1331	638.672	78.1032	638.672	78.1756	638.672	78.3093	638.672	79.7317	638.672	79.5126	638.672	80.753	638.672	80.5761	638.672	81.0297
659.18	85.279	659.18	85.0197	659.18	85.2903	659.18	84.5416	659.18	85.0674	659.18	83.9289	659.18	84.6741	659.18	83.3387	659.18	84.2381	659.18	82.9709	659.18	83.9327	659.18	82.9336	659.18	83.8797	659.18	83.1188	659.18	84.0342	659.18	83.272	659.18	84.2017	659.18	83.1422	659.18	84.157	659.18	82.5383	659.18	83.7146	659.18	81.3128	659.18	82.725	659.18	79.3726	659.18	81.0554	659.18	76.932	659.18	78.6427	659.18	75.4184	659.18	75.988	659.18	76.3597	659.18	75.2365	659.18	78.0714	659.18	76.8679	659.18	79.1453	659.18	78.5172	659.18	79.3046
682.617	85.671	682.617	85.4775	682.617	85.5513	682.617	84.9805	682.617	85.1285	682.617	84.2297	682.617	84.4422	682.617	83.3638	682.617	83.6028	682.617	82.6519	682.617	82.847	682.617	82.383	682.617	82.4891	682.617	82.5681	682.617	82.6408	682.617	82.8869	682.617	83.0425	682.617	82.9704	682.617	83.3092	682.617	82.5555	682.617	83.1562	682.617	81.454	682.617	82.3972	682.617	79.5155	682.617	80.8855	682.617	76.8259	682.617	78.5493	682.617	74.9094	682.617	75.9403	682.617	76.0684	682.617	75.4188	682.617	78.1575	682.617	77.262	682.617	79.4415	682.617	78.9551	682.617	79.7041
706.055	86.1916	706.055	85.9477	706.055	86.1352	706.055	85.4022	706.055	85.7884	706.055	84.5844	706.055	85.1698	706.055	83.6067	706.055	84.3346	706.055	82.7268	706.055	83.4318	706.055	82.2856	706.055	82.7374	706.055	82.3787	706.055	82.5045	706.055	82.6864	706.055	82.661	706.055	82.7738	706.055	82.8348	706.055	82.3164	706.055	82.6519	706.055	81.0665	706.055	81.8442	706.055	78.7592	706.055	80.1881	706.055	75.2294	706.055	77.4704	706.055	72.5954	706.055	74.0763	706.055	74.9115	706.055	73.5632	706.055	77.6745	706.055	76.2826	706.055	79.117	706.055	78.4134	706.055	79.3413
732.422	86.5809	732.422	86.4143	732.422	86.4944	732.422	85.9953	732.422	86.1451	732.422	85.3271	732.422	85.5256	732.422	84.4561	732.422	84.6667	732.422	83.5439	732.422	83.7054	732.422	82.8955	732.422	82.9465	732.422	82.7508	732.422	82.7216	732.422	82.9606	732.422	83.0031	732.422	83.0999	732.422	83.3808	732.422	82.7865	732.422	83.4367	732.422	81.7369	732.422	82.8853	732.422	79.6522	732.422	81.487	732.422	76.0766	732.422	78.9229	732.422	71.0919	732.422	74.7663	732.422	71.7216	732.422	70.961	732.422	75.5742	732.422	73.7888	732.422	77.5847	732.422	76.7574	732.422	77.9489
758.789	86.6594	758.789	86.4154	758.789	86.6199	758.789	85.8715	758.789	86.2938	758.789	85.003	758.789	85.6584	758.789	83.8135	758.789	84.6874	758.789	82.4421	758.789	83.4061	758.789	81.3561	758.789	82.0273	758.789	81.2008	758.789	81.105	758.789	81.8842	758.789	81.1381	758.789	82.6276	758.789	81.7744	758.789	82.8616	758.789	82.2763	758.789	82.3211	758.789	82.189	758.789	80.8436	758.789	81.2757	758.789	78.3126	758.789	79.3427	758.789	75.1866	758.789	76.3094	758.789	74.282	758.789	73.5627	758.789	76.1426	758.789	74.5758	758.789	77.6158	758.789	76.7761	758.789	77.8525
785.156	86.8706	785.156	86.7384	785.156	86.7905	785.156	86.3797	785.156	86.5001	785.156	85.7697	785.156	85.9899	785.156	84.8858	785.156	85.2432	785.156	83.747	785.156	84.2601	785.156	82.5043	785.156	83.1236	785.156	81.5375	785.156	82.1026	785.156	81.2434	785.156	81.5987	785.156	81.4731	785.156	81.6941	785.156	81.625	785.156	81.9397	785.156	81.1725	785.156	81.7995	785.156	79.7328	785.156	80.8954	785.156	76.9365	785.156	78.9096	785.156	73.0771	785.156	75.5046	785.156	73.0519	785.156	71.6647	785.156	76.1422	785.156	73.1321	785.156	77.835	785.156	76.2906	785.156	77.8679
811.523	87.1902	811.523	86.9934	811.523	87.1402	811.523	86.5188	811.523	86.8419	811.523	85.7136	811.523	86.2624	811.523	84.5333	811.523	85.3503	811.523	83.0286	811.523	84.0754	811.523	81.5632	811.523	82.5376	811.523	80.933	811.523	81.2002	811.523	81.4309	811.523	80.8373	811.523	82.241	811.523	81.4507	811.523	82.5889	811.523	82.1464	811.523	82.1155	811.523	82.251	811.523	80.6076	811.523	81.4424	811.523	77.8771	811.523	79.4876	811.523	74.4475	811.523	76.2329	811.523	74.1479	811.523	73.2267	811.523	76.6743	811.523	74.7789	811.523	78.3147	811.523	77.3448	811.523	78.5447
840.82	86.8114	840.82	86.6403	840.82	86.778	840.82	86.2613	840.82	86.536	840.82	85.6553	840.82	86.0716	840.82	84.7789	840.82	85.3538	840.82	83.5763	840.82	84.3382	840.82	82.0499	840.82	83.0086	840.82	80.447	840.82	81.5046	840.82	79.4293	840.82	80.3131	840.82	79.3974	840.82	80.0061	840.82	79.6749	840.82	80.3321	840.82	79.3938	840.82	80.4634	840.82	78.0577	840.82	79.7859	840.82	75.4332	840.82	77.8705	840.82	72.5353	840.82	74.3192	840.82	73.401	840.82	70.844	840.82	76.0352	840.82	73.3822	840.82	77.5513	840.82	76.3886	840.82	77.6985
870.117	87.2485	870.117	87.0862	870.117	87.2456	870.117	86.7332	870.117	87.0679	870.117	86.1354	870.117	86.6724	870.117	85.2277	870.117	85.993	870.117	83.9719	870.117	84.9691	870.117	82.4472	870.117	83.6093	870.117	81.0294	870.117	82.1319	870.117	80.371	870.117	81.1005	870.117	80.5722	870.117	80.9724	870.117	80.8786	870.117	81.3241	870.117	80.5661	870.117	81.3811	870.117	79.1684	870.117	80.6347	870.117	76.1845	870.117	78.7051	870.117	71.1676	870.117	75.0743	870.117	70.3686	870.117	70.1619	870.117	74.7178	870.117	72.0152	870.117	76.9768	870.117	75.7071	870.117	77.2717
902.344	87.0317	902.344	86.8593	902.344	87.0327	902.344	86.5156	902.344	86.8516	902.344	85.9799	902.344	86.4621	902.344	85.1897	902.344	85.8163	902.344	84.0401	902.344	84.8498	902.344	82.4507	902.344	83.5132	902.344	80.5984	902.344	81.8758	902.344	79.3316	902.344	80.3747	902.344	79.467	902.344	79.8252	902.344	80.1609	902.344	80.2852	902.344	80.274	902.344	80.7982	902.344	79.2766	902.344	80.5994	902.344	76.827	902.344	79.2771	902.344	72.7485	902.344	76.5265	902.344	70.314	902.344	72.7092	902.344	73.081	902.344	72.0068	902.344	75.1897	902.344	74.356	902.344	75.588
931.641	87.2365	931.641	87.1088	931.641	87.2022	931.641	86.8008	931.641	87.0024	931.641	86.2706	931.641	86.6052	931.641	85.4533	931.641	85.9445	931.641	84.285	931.641	84.9396	931.641	82.7818	931.641	83.5592	931.641	81.2441	931.641	81.9721	931.641	80.4407	931.641	80.7719	931.641	80.765	931.641	80.6357	931.641	81.3872	931.641	81.2145	931.641	81.3935	931.641	81.5683	931.641	80.2809	931.641	81.0798	931.641	77.6027	931.641	79.3476	931.641	72.8093	931.641	75.9142	931.641	70.1486	931.641	71.1887	931.641	74.23	931.641	72.1939	931.641	76.636	931.641	75.5624	931.641	77.0155
966.797	86.6937	966.797	86.5721	966.797	86.6751	966.797	86.3202	966.797	86.5067	966.797	85.9284	966.797	86.1845	966.797	85.3416	966.797	85.6923	966.797	84.4407	966.797	84.9649	966.797	83.0576	966.797	83.8697	966.797	81.083	966.797	82.262	966.797	78.8859	966.797	80.2354	966.797	77.9976	966.797	78.7657	966.797	78.9244	966.797	79.059	966.797	79.8025	966.797	79.9709	966.797	79.5036	966.797	80.0402	966.797	77.5366	966.797	78.6922	966.797	73.4572	966.797	75.5287	966.797	70.3665	966.797	70.7356	966.797	73.8055	966.797	71.0758	966.797	76.1458	966.797	74.6801	966.797	76.3798
999.023	86.8376	999.023	86.7039	999.023	86.7923	999.023	86.409	999.023	86.5761	999.023	85.9732	999.023	86.2075	999.023	85.3744	999.023	85.6745	999.023	84.5218	999.023	84.9049	999.023	83.2853	999.023	83.782	999.023	81.6045	999.023	82.2095	999.023	79.7915	999.023	80.3092	999.023	78.8958	999.023	78.9081	999.023	79.3775	999.023	79.0727	999.023	79.9586	999.023	79.9356	999.023	79.5337	999.023	80.0672	999.023	77.4976	999.023	78.7788	999.023	73.2733	999.023	75.5556	999.023	70.0671	999.023	70.4877	999.023	73.9695	999.023	71.5387	999.023	76.5476	999.023	75.3686	999.023	76.9618
1,034.18	86.0412	1,034.18	85.9339	1,034.18	85.9842	1,034.18	85.6669	1,034.18	85.7787	1,034.18	85.256	1,034.18	85.4586	1,034.18	84.7032	1,034.18	85.0413	1,034.18	83.9507	1,034.18	84.4687	1,034.18	82.8573	1,034.18	83.5838	1,034.18	81.2817	1,034.18	82.1975	1,034.18	79.3906	1,034.18	80.2812	1,034.18	78.1635	1,034.18	78.4406	1,034.18	78.3496	1,034.18	77.9638	1,034.18	78.7691	1,034.18	78.5848	1,034.18	78.2146	1,034.18	78.8419	1,034.18	76.116	1,034.18	77.9371	1,034.18	72.1537	1,034.18	75.2341	1,034.18	69.6181	1,034.18	69.7916	1,034.18	73.1657	1,034.18	69.3878	1,034.18	75.7946	1,034.18	74.3597	1,034.18	76.2709
1,072.27	85.801	1,072.27	85.6166	1,072.27	85.7528	1,072.27	85.2609	1,072.27	85.4807	1,072.27	84.8241	1,072.27	85.0605	1,072.27	84.3328	1,072.27	84.573	1,072.27	83.6735	1,072.27	83.9977	1,072.27	82.6305	1,072.27	83.1747	1,072.27	81.0196	1,072.27	81.8946	1,072.27	78.9764	1,072.27	80.082	1,072.27	77.5676	1,072.27	78.1913	1,072.27	77.8078	1,072.27	77.4743	1,072.27	78.3821	1,072.27	78.1073	1,072.27	77.8961	1,072.27	78.639	1,072.27	75.6503	1,072.27	78.054	1,072.27	70.9187	1,072.27	75.6792	1,072.27	68.2984	1,072.27	70.745	1,072.27	72.991	1,072.27	68.9601	1,072.27	75.4693	1,072.27	73.5398	1,072.27	75.6456
1,110.35	85.6728	1,110.35	85.3905	1,110.35	85.6412	1,110.35	84.8505	1,110.35	85.3008	1,110.35	84.1489	1,110.35	84.7291	1,110.35	83.3809	1,110.35	84.0501	1,110.35	82.5638	1,110.35	83.3294	1,110.35	81.5731	1,110.35	82.4564	1,110.35	80.1942	1,110.35	81.1825	1,110.35	78.3697	1,110.35	79.3117	1,110.35	76.771	1,110.35	77.1331	1,110.35	76.6563	1,110.35	76.1775	1,110.35	77.3782	1,110.35	77.124	1,110.35	77.3552	1,110.35	78.037	1,110.35	75.7611	1,110.35	77.6763	1,110.35	72.0405	1,110.35	75.4871	1,110.35	69.0941	1,110.35	71.1433	1,110.35	72.8896	1,110.35	69.8485	1,110.35	75.5054	1,110.35	73.7844	1,110.35	75.777
1,148.44	85.672	1,148.44	85.3789	1,148.44	85.6129	1,148.44	84.785	1,148.44	85.2249	1,148.44	84.0084	1,148.44	84.6008	1,148.44	83.1814	1,148.44	83.8732	1,148.44	82.3358	1,148.44	83.1304	1,148.44	81.3127	1,148.44	82.3079	1,148.44	79.8408	1,148.44	81.1874	1,148.44	77.8019	1,148.44	79.5472	1,148.44	75.8659	1,148.44	77.4859	1,148.44	75.6298	1,148.44	76.0812	1,148.44	76.5182	1,148.44	76.3856	1,148.44	76.6002	1,148.44	76.996	1,148.44	74.7999	1,148.44	76.4787	1,148.44	70.0639	1,148.44	74.1785	1,148.44	67.4365	1,148.44	69.6362	1,148.44	72.7109	1,148.44	67.7722	1,148.44	74.9769	1,148.44	72.1478	1,148.44	74.691
1,189.45	85.7873	1,189.45	85.483	1,189.45	85.7621	1,189.45	84.9302	1,189.45	85.3932	1,189.45	84.231	1,189.45	84.7537	1,189.45	83.4483	1,189.45	83.9807	1,189.45	82.5647	1,189.45	83.1786	1,189.45	81.4791	1,189.45	82.3071	1,189.45	80.0242	1,189.45	81.1741	1,189.45	78.0763	1,189.45	79.5338	1,189.45	76.0737	1,189.45	77.338	1,189.45	75.5257	1,189.45	75.5878	1,189.45	76.2613	1,189.45	75.9575	1,189.45	76.2334	1,189.45	76.9574	1,189.45	74.2359	1,189.45	76.6574	1,189.45	69.2684	1,189.45	74.212	1,189.45	66.6769	1,189.45	69.6419	1,189.45	72.0031	1,189.45	70.6674	1,189.45	74.7468	1,189.45	74.2161	1,189.45	75.4354
1,230.47	86.0326	1,230.47	85.71	1,230.47	85.9701	1,230.47	85.0285	1,230.47	85.5461	1,230.47	84.1068	1,230.47	84.8302	1,230.47	83.179	1,230.47	83.9518	1,230.47	82.4135	1,230.47	83.0777	1,230.47	81.6173	1,230.47	82.2603	1,230.47	80.3194	1,230.47	81.2557	1,230.47	78.16	1,230.47	79.6344	1,230.47	75.6578	1,230.47	77.2725	1,230.47	75.3347	1,230.47	75.5149	1,230.47	76.7646	1,230.47	76.1364	1,230.47	77.0699	1,230.47	77.1672	1,230.47	75.0835	1,230.47	76.8855	1,230.47	69.1596	1,230.47	74.5124	1,230.47	64.3792	1,230.47	69.4054	1,230.47	72.8412	1,230.47	70.4859	1,230.47	76.1473	1,230.47	75.1249	1,230.47	76.8133
1,274.41	86.6268	1,274.41	86.2658	1,274.41	86.5458	1,274.41	85.4814	1,274.41	86.0414	1,274.41	84.397	1,274.41	85.1658	1,274.41	83.3113	1,274.41	84.0802	1,274.41	82.542	1,274.41	83.1032	1,274.41	81.9944	1,274.41	82.4307	1,274.41	81.1344	1,274.41	81.7349	1,274.41	79.3767	1,274.41	80.3952	1,274.41	76.4383	1,274.41	77.9368	1,274.41	74.1103	1,274.41	74.8126	1,274.41	75.5171	1,274.41	74.5637	1,274.41	76.8992	1,274.41	76.5308	1,274.41	75.963	1,274.41	76.8632	1,274.41	70.998	1,274.41	74.2161	1,274.41	54.4581	1,274.41	66.299	1,274.41	72.1181	1,274.41	69.6029	1,274.41	75.9875	1,274.41	75.0383	1,274.41	76.6909
1,318.36	86.5772	1,318.36	86.3205	1,318.36	86.4678	1,318.36	85.6793	1,318.36	85.9797	1,318.36	84.6422	1,318.36	85.0975	1,318.36	83.3294	1,318.36	83.8628	1,318.36	82.1106	1,318.36	82.4682	1,318.36	81.3306	1,318.36	81.2891	1,318.36	80.6984	1,318.36	80.4901	1,318.36	79.438	1,318.36	79.5482	1,318.36	76.8339	1,318.36	77.588	1,318.36	73.5304	1,318.36	74.4014	1,318.36	74.7595	1,318.36	74.2082	1,318.36	77.3188	1,318.36	76.9075	1,318.36	77.5104	1,318.36	77.6174	1,318.36	74.5182	1,318.36	75.5137	1,318.36	65.0766	1,318.36	68.8941	1,318.36	68.8879	1,318.36	59.4876	1,318.36	74.2392	1,318.36	71.7202	1,318.36	74.7895
1,365.23	86.3518	1,365.23	86.1553	1,365.23	86.1827	1,365.23	85.5437	1,365.23	85.6371	1,365.23	84.4494	1,365.23	84.6656	1,365.23	82.9282	1,365.23	83.2536	1,365.23	81.3554	1,365.23	81.578	1,365.23	80.2946	1,365.23	80.1919	1,365.23	79.6971	1,365.23	79.5966	1,365.23	78.8128	1,365.23	79.224	1,365.23	77.0355	1,365.23	77.9407	1,365.23	74.7039	1,365.23	75.0244	1,365.23	74.3395	1,365.23	72.2824	1,365.23	75.8082	1,365.23	74.1124	1,365.23	75.9643	1,365.23	75.7455	1,365.23	73.3672	1,365.23	74.884	1,365.23	66.4611	1,365.23	70.4566	1,365.23	67.286	1,365.23	63.899	1,365.23	72.1842	1,365.23	70.6324	1,365.23	73.1544
1,415.04	85.9688	1,415.04	85.6913	1,415.04	85.8786	1,415.04	85.0392	1,415.04	85.4147	1,415.04	83.9963	1,415.04	84.5744	1,415.04	82.5732	1,415.04	83.3799	1,415.04	80.9131	1,415.04	81.9049	1,415.04	79.4348	1,415.04	80.3471	1,415.04	78.5196	1,415.04	79.0886	1,415.04	77.7113	1,415.04	78.2419	1,415.04	76.1312	1,415.04	77.072	1,415.04	73.8794	1,415.04	74.602	1,415.04	73.764	1,415.04	71.1535	1,415.04	75.3092	1,415.04	72.0498	1,415.04	75.1273	1,415.04	74.8418	1,415.04	71.924	1,415.04	75.0585	1,415.04	66.2611	1,415.04	71.5832	1,415.04	70.9431	1,415.04	65.9925	1,415.04	74.5077	1,415.04	71.9951	1,415.04	74.8772
1,464.84	86.1504	1,464.84	85.8558	1,464.84	86.119	1,464.84	85.245	1,464.84	85.7753	1,464.84	84.3036	1,464.84	85.1305	1,464.84	82.9665	1,464.84	84.1366	1,464.84	81.232	1,464.84	82.705	1,464.84	79.4491	1,464.84	80.8901	1,464.84	78.2794	1,464.84	79.1827	1,464.84	77.4579	1,464.84	78.1524	1,464.84	75.7731	1,464.84	77.2702	1,464.84	72.7414	1,464.84	75.3921	1,464.84	71.8974	1,464.84	72.5581	1,464.84	74.4233	1,464.84	72.8862	1,464.84	75.1739	1,464.84	74.948	1,464.84	72.661	1,464.84	74.5901	1,464.84	65.0924	1,464.84	70.4844	1,464.84	69.0417	1,464.84	63.4205	1,464.84	73.6068	1,464.84	70.7347	1,464.84	73.9865
1,514.65	86.5402	1,514.65	86.3247	1,514.65	86.4844	1,514.65	85.7792	1,514.65	86.1726	1,514.65	84.8608	1,514.65	85.5302	1,514.65	83.5524	1,514.65	84.451	1,514.65	81.8449	1,514.65	82.9375	1,514.65	79.8605	1,514.65	81.1864	1,514.65	78.1694	1,514.65	79.5381	1,514.65	77.2253	1,514.65	78.2108	1,514.65	76.0536	1,514.65	76.9377	1,514.65	73.2179	1,514.65	75.035	1,514.65	70.1892	1,514.65	72.5621	1,514.65	72.8926	1,514.65	72.8426	1,514.65	74.6865	1,514.65	74.9052	1,514.65	73.0687	1,514.65	74.921	1,514.65	66.1842	1,514.65	71.7527	1,514.65	66.9774	1,514.65	64.6644	1,514.65	72.5276	1,514.65	69.0276	1,514.65	72.8969
1,570.31	86.6588	1,570.31	86.4519	1,570.31	86.477	1,570.31	85.8627	1,570.31	86.0045	1,570.31	84.9779	1,570.31	85.3368	1,570.31	83.8404	1,570.31	84.417	1,570.31	82.3577	1,570.31	83.0811	1,570.31	80.4533	1,570.31	81.3071	1,570.31	78.5138	1,570.31	79.4084	1,570.31	77.3528	1,570.31	77.9052	1,570.31	76.5431	1,570.31	76.7704	1,570.31	74.5599	1,570.31	75.1767	1,570.31	71.3039	1,570.31	72.5205	1,570.31	72.0658	1,570.31	71.4318	1,570.31	73.8704	1,570.31	73.7647	1,570.31	72.4482	1,570.31	74.4497	1,570.31	67.4224	1,570.31	71.7083	1,570.31	68.7897	1,570.31	67.8312	1,570.31	72.8581	1,570.31	71.6843	1,570.31	73.7576
1,623.05	86.4297	1,623.05	86.187	1,623.05	86.2615	1,623.05	85.5548	1,623.05	85.7022	1,623.05	84.5899	1,623.05	84.8485	1,623.05	83.3818	1,623.05	83.7935	1,623.05	81.9964	1,623.05	82.4521	1,623.05	80.4031	1,623.05	80.6981	1,623.05	78.6288	1,623.05	78.7799	1,623.05	77.1589	1,623.05	77.2322	1,623.05	76.2104	1,623.05	76.0052	1,623.05	74.5985	1,623.05	74.3733	1,623.05	71.7282	1,623.05	71.7293	1,623.05	71.9336	1,623.05	70.4194	1,623.05	74.0468	1,623.05	72.5803	1,623.05	73.1746	1,623.05	73.2594	1,623.05	68.607	1,623.05	70.4667	1,623.05	69.2628	1,623.05	65.3033	1,623.05	73.1804	1,623.05	70.6164	1,623.05	73.6745
1,681.64	86.0386	1,681.64	85.7513	1,681.64	85.91	1,681.64	85.0664	1,681.64	85.3992	1,681.64	84.0703	1,681.64	84.5662	1,681.64	82.8197	1,681.64	83.4288	1,681.64	81.2622	1,681.64	81.9478	1,681.64	79.4485	1,681.64	80.1611	1,681.64	77.6891	1,681.64	78.2471	1,681.64	76.2224	1,681.64	76.4476	1,681.64	74.8744	1,681.64	74.9749	1,681.64	73.2146	1,681.64	73.4477	1,681.64	71.3131	1,681.64	70.888	1,681.64	71.1024	1,681.64	68.8549	1,681.64	72.2376	1,681.64	70.6808	1,681.64	71.49	1,681.64	71.8718	1,681.64	67.7962	1,681.64	70.213	1,681.64	68.5014	1,681.64	66.3396	1,681.64	72.4057	1,681.64	69.9671	1,681.64	73.0166
1,740.23	86.152	1,740.23	85.7302	1,740.23	86.1511	1,740.23	84.9913	1,740.23	85.666	1,740.23	84.0024	1,740.23	84.7753	1,740.23	82.6985	1,740.23	83.6533	1,740.23	80.9969	1,740.23	82.2922	1,740.23	79.0672	1,740.23	80.506	1,740.23	77.2022	1,740.23	78.4088	1,740.23	75.4304	1,740.23	76.6174	1,740.23	73.7309	1,740.23	75.3399	1,740.23	72.0421	1,740.23	73.8525	1,740.23	70.2788	1,740.23	71.5702	1,740.23	70.2952	1,740.23	69.458	1,740.23	71.289	1,740.23	70.4736	1,740.23	69.8188	1,740.23	71.9309	1,740.23	66.2944	1,740.23	70.3421	1,740.23	69.5834	1,740.23	67.1533	1,740.23	73.1998	1,740.23	71.6576	1,740.23	74.0676
1,801.76	86.6668	1,801.76	86.243	1,801.76	86.6056	1,801.76	85.4101	1,801.76	86.059	1,801.76	84.3117	1,801.76	85.0887	1,801.76	82.9983	1,801.76	83.8714	1,801.76	81.4209	1,801.76	82.4709	1,801.76	79.5841	1,801.76	80.6978	1,801.76	77.633	1,801.76	78.634	1,801.76	75.8374	1,801.76	76.8255	1,801.76	74.2038	1,801.76	75.2937	1,801.76	72.1758	1,801.76	73.4068	1,801.76	69.3467	1,801.76	70.8546	1,801.76	68.093	1,801.76	68.612	1,801.76	70.0684	1,801.76	69.7531	1,801.76	69.9335	1,801.76	70.9475	1,801.76	64.9336	1,801.76	68.4472	1,801.76	66.819	1,801.76	64.3887	1,801.76	71.788	1,801.76	69.8525	1,801.76	72.5034
1,866.21	85.9072	1,866.21	85.4943	1,866.21	85.8168	1,866.21	84.7622	1,866.21	85.1754	1,866.21	83.8021	1,866.21	84.1111	1,866.21	82.5481	1,866.21	82.8328	1,866.21	81.0203	1,866.21	81.3764	1,866.21	79.3361	1,866.21	79.5683	1,866.21	77.5805	1,866.21	77.4784	1,866.21	75.8814	1,866.21	75.5605	1,866.21	74.1247	1,866.21	73.9785	1,866.21	71.9008	1,866.21	72.3513	1,866.21	69.7608	1,866.21	70.2208	1,866.21	68.9651	1,866.21	67.9718	1,866.21	69.1853	1,866.21	68.4667	1,866.21	69.3618	1,866.21	69.8973	1,866.21	67.425	1,866.21	68.3984	1,866.21	66.643	1,866.21	65.4992	1,866.21	70.3218	1,866.21	69.1674	1,866.21	71.3701
1,930.66	85.1121	1,930.66	84.7894	1,930.66	84.9012	1,930.66	83.9723	1,930.66	84.2343	1,930.66	82.798	1,930.66	83.1831	1,930.66	81.3011	1,930.66	81.8116	1,930.66	79.4975	1,930.66	80.2163	1,930.66	77.7507	1,930.66	78.4424	1,930.66	76.3915	1,930.66	76.5429	1,930.66	74.9738	1,930.66	74.7227	1,930.66	73.0114	1,930.66	73.0447	1,930.66	70.9189	1,930.66	71.2217	1,930.66	69.34	1,930.66	69.155	1,930.66	67.9521	1,930.66	67.2075	1,930.66	66.9113	1,930.66	66.3785	1,930.66	66.696	1,930.66	66.757	1,930.66	66.3752	1,930.66	65.8179	1,930.66	67.8152	1,930.66	63.21	1,930.66	70.4034	1,930.66	67.2551	1,930.66	70.6359
2,000.98	85.5698	2,000.98	85.1072	2,000.98	85.4868	2,000.98	83.9998	2,000.98	84.8479	2,000.98	82.3926	2,000.98	83.6227	2,000.98	80.6981	2,000.98	82.0815	2,000.98	78.9072	2,000.98	80.5718	2,000.98	76.6614	2,000.98	78.9242	2,000.98	74.4597	2,000.98	76.7989	2,000.98	73.2744	2,000.98	74.7552	2,000.98	71.9136	2,000.98	73.5424	2,000.98	68.8893	2,000.98	72.103	2,000.98	66.5956	2,000.98	69.4985	2,000.98	68.0927	2,000.98	67.8848	2,000.98	67.9062	2,000.98	68.2838	2,000.98	64.595	2,000.98	67.9863	2,000.98	62.0591	2,000.98	65.5845	2,000.98	67.7802	2,000.98	65.6416	2,000.98	71.9527	2,000.98	70.5503	2,000.98	72.842
2,071.29	86.2679	2,071.29	85.8999	2,071.29	86.0983	2,071.29	84.9019	2,071.29	85.4577	2,071.29	83.3589	2,071.29	84.2662	2,071.29	81.5439	2,071.29	82.6161	2,071.29	79.7949	2,071.29	80.9102	2,071.29	77.8824	2,071.29	79.2155	2,071.29	75.0984	2,071.29	77.0795	2,071.29	72.6267	2,071.29	74.6187	2,071.29	72.2495	2,071.29	73.1868	2,071.29	70.7978	2,071.29	72.1101	2,071.29	66.1956	2,071.29	69.1054	2,071.29	66.8018	2,071.29	66.7568	2,071.29	69.4764	2,071.29	69.8883	2,071.29	67.4935	2,071.29	69.6749	2,071.29	53.9837	2,071.29	63.1593	2,071.29	68.5217	2,071.29	61.6236	2,071.29	73.1701	2,071.29	70.479	2,071.29	73.4579
2,144.53	85.2021	2,144.53	84.8954	2,144.53	85.1918	2,144.53	84.2213	2,144.53	84.7259	2,144.53	83.1634	2,144.53	83.5789	2,144.53	81.6577	2,144.53	81.8624	2,144.53	79.8079	2,144.53	79.8515	2,144.53	77.878	2,144.53	77.7466	2,144.53	75.4795	2,144.53	75.926	2,144.53	72.4867	2,144.53	74.171	2,144.53	71.3203	2,144.53	71.9313	2,144.53	71.473	2,144.53	70.0443	2,144.53	68.3546	2,144.53	67.4889	2,144.53	62.6914	2,144.53	61.8452	2,144.53	67.8874	2,144.53	65.2502	2,144.53	68.8224	2,144.53	68.3871	2,144.53	60.189	2,144.53	66.6289	2,144.53	62.8319	2,144.53	41.7903	2,144.53	70.0473	2,144.53	68.7155	2,144.53	71.6546
2,217.77	84.3239	2,217.77	83.9467	2,217.77	84.0689	2,217.77	82.952	2,217.77	83.4589	2,217.77	81.6439	2,217.77	82.498	2,217.77	79.9662	2,217.77	81.042	2,217.77	78.0124	2,217.77	79.0449	2,217.77	76.1326	2,217.77	76.8962	2,217.77	73.8683	2,217.77	75.0711	2,217.77	70.8217	2,217.77	72.891	2,217.77	68.4982	2,217.77	69.7894	2,217.77	68.3498	2,217.77	67.5546	2,217.77	67.6233	2,217.77	66.7108	2,217.77	62.8307	2,217.77	64.1281	2,217.77	65.057	2,217.77	60.5945	2,217.77	68.9744	2,217.77	65.8037	2,217.77	64.1131	2,217.77	66.7716	2,217.77	57.3055	2,217.77	57.8849	2,217.77	67.0608	2,217.77	63.8059	2,217.77	67.9996
2,296.88	84.5957	2,296.88	84.1337	2,296.88	84.601	2,296.88	83.1875	2,296.88	84.103	2,296.88	81.7727	2,296.88	83.1485	2,296.88	79.8884	2,296.88	81.7417	2,296.88	77.584	2,296.88	79.7383	2,296.88	75.3123	2,296.88	77.4739	2,296.88	73.2342	2,296.88	75.5105	2,296.88	70.5121	2,296.88	73.4846	2,296.88	67.1784	2,296.88	71.0385	2,296.88	65.5227	2,296.88	68.7331	2,296.88	65.7545	2,296.88	67.2721	2,296.88	63.0415	2,296.88	65.4513	2,296.88	61.9154	2,296.88	62.2457	2,296.88	66.9778	2,296.88	65.1051	2,296.88	65.2305	2,296.88	67.5872	2,296.88	41.9136	2,296.88	63.2896	2,296.88	62.9736	2,296.88	50.0173	2,296.88	63.419
2,378.91	85.105	2,378.91	84.6261	2,378.91	84.9844	2,378.91	83.6436	2,378.91	84.2661	2,378.91	82.2065	2,378.91	83.1145	2,378.91	80.2618	2,378.91	81.4698	2,378.91	78.1513	2,378.91	79.1912	2,378.91	76.1763	2,378.91	76.9933	2,378.91	73.7849	2,378.91	74.9205	2,378.91	71.2048	2,378.91	71.8768	2,378.91	68.8578	2,378.91	69.6028	2,378.91	64.3757	2,378.91	68.4447	2,378.91	63.2097	2,378.91	66.0083	2,378.91	62.3415	2,378.91	65.0938	2,378.91	59.1134	2,378.91	63.7722	2,378.91	64.7828	2,378.91	64.7032	2,378.91	63.6963	2,378.91	65.9015	2,378.91	54.0644	2,378.91	59.8141	2,378.91	60.9815	2,378.91	54.3826	2,378.91	62.3523
2,460.94	84.5566	2,460.94	84.0421	2,460.94	84.3232	2,460.94	82.8259	2,460.94	83.4923	2,460.94	81.1802	2,460.94	82.1893	2,460.94	79.2686	2,460.94	80.448	2,460.94	77.1473	2,460.94	78.3525	2,460.94	75.0752	2,460.94	76.1565	2,460.94	72.8562	2,460.94	73.8821	2,460.94	70.5232	2,460.94	70.8909	2,460.94	69.3769	2,460.94	67.8984	2,460.94	67.5442	2,460.94	66.3908	2,460.94	63.7999	2,460.94	63.2069	2,460.94	62.914	2,460.94	60.0128	2,460.94	61.1271	2,460.94	61.4303	2,460.94	63.7152	2,460.94	60.0516	2,460.94	63.4952	2,460.94	63.1191	2,460.94	55.3201	2,460.94	60.3374	2,460.94	58.5841	2,460.94	52.5531	2,460.94	60.905
2,548.83	84.9429	2,548.83	84.2412	2,548.83	84.9354	2,548.83	82.8593	2,548.83	84.1271	2,548.83	80.9835	2,548.83	82.635	2,548.83	78.7222	2,548.83	80.6375	2,548.83	76.0313	2,548.83	78.2242	2,548.83	73.5302	2,548.83	76.1241	2,548.83	71.2686	2,548.83	74.5362	2,548.83	67.8548	2,548.83	71.6322	2,548.83	66.4252	2,548.83	68.0187	2,548.83	66.9008	2,548.83	67.8959	2,548.83	63.231	2,548.83	66.4611	2,548.83	60.4424	2,548.83	59.7577	2,548.83	60.7063	2,548.83	62.0325	2,548.83	62.8554	2,548.83	63.3796	2,548.83	63.992	2,548.83	65.0388	2,548.83	54.0815	2,548.83	63.9755	2,548.83	62.2547	2,548.83	49.4874	2,548.83	60.8905
2,639.65	85.7237	2,639.65	85.121	2,639.65	85.6603	2,639.65	83.9101	2,639.65	84.9257	2,639.65	82.2097	2,639.65	83.574	2,639.65	80.0105	2,639.65	81.7669	2,639.65	77.2084	2,639.65	79.419	2,639.65	74.2297	2,639.65	76.3984	2,639.65	72.1023	2,639.65	73.6663	2,639.65	69.0733	2,639.65	71.467	2,639.65	64.857	2,639.65	68.5861	2,639.65	64.388	2,639.65	67.7408	2,639.65	62.423	2,639.65	67.5563	2,639.65	59.2198	2,639.65	61.8108	2,639.65	56.6172	2,639.65	58.6456	2,639.65	61.3973	2,639.65	61.8102	2,639.65	63.8722	2,639.65	64.7082	2,639.65	56.3063	2,639.65	62.475	2,639.65	53.3759	2,639.65	48.8223	2,639.65	59.572
2,733.4	85.8973	2,733.4	85.3281	2,733.4	85.8179	2,733.4	84.1471	2,733.4	85.0063	2,733.4	82.4365	2,733.4	83.5793	2,733.4	80.5424	2,733.4	81.8107	2,733.4	78.358	2,733.4	79.7577	2,733.4	75.6005	2,733.4	77.1855	2,733.4	73.3656	2,733.4	74.1012	2,733.4	70.7882	2,733.4	71.4942	2,733.4	65.64	2,733.4	68.7901	2,733.4	65.6514	2,733.4	67.1489	2,733.4	65.2155	2,733.4	67.3423	2,733.4	60.8917	2,733.4	63.0104	2,733.4	59.9383	2,733.4	57.3302	2,733.4	57.2678	2,733.4	59.0236	2,733.4	65.9191	2,733.4	63.7878	2,733.4	60.2701	2,733.4	64.8876	2,733.4	56.0406	2,733.4	54.7977	2,733.4	55.0246
2,827.15	86.2021	2,827.15	85.5733	2,827.15	86.0971	2,827.15	84.4433	2,827.15	85.2807	2,827.15	82.8163	2,827.15	83.9346	2,827.15	80.8908	2,827.15	82.1664	2,827.15	79.0372	2,827.15	80.4339	2,827.15	76.6886	2,827.15	78.5217	2,827.15	74.1944	2,827.15	75.6485	2,827.15	72.6282	2,827.15	73.0686	2,827.15	69.7211	2,827.15	69.8537	2,827.15	65.1892	2,827.15	65.0289	2,827.15	65.0922	2,827.15	65.0345	2,827.15	63.1739	2,827.15	64.0492	2,827.15	64.6307	2,827.15	61.2165	2,827.15	60.5962	2,827.15	58.9875	2,827.15	64.1463	2,827.15	62.0302	2,827.15	61.5184	2,827.15	62.2838	2,827.15	52.8947	2,827.15	56.581	2,827.15	49.1435
2,926.76	86.5747	2,926.76	86.0519	2,926.76	86.4222	2,926.76	85.0837	2,926.76	85.6732	2,926.76	83.4952	2,926.76	84.2642	2,926.76	81.6892	2,926.76	82.3195	2,926.76	80.159	2,926.76	80.7366	2,926.76	78.0798	2,926.76	78.9408	2,926.76	75.6688	2,926.76	76.3881	2,926.76	74.3791	2,926.76	74.6218	2,926.76	72.0261	2,926.76	72.3827	2,926.76	68.6084	2,926.76	67.6973	2,926.76	68.4316	2,926.76	67.1365	2,926.76	65.8466	2,926.76	66.3806	2,926.76	64.0727	2,926.76	63.3846	2,926.76	62.0739	2,926.76	62.706	2,926.76	65.9421	2,926.76	61.4364	2,926.76	63.9973	2,926.76	67.3999	2,926.76	48.9205	2,926.76	61.3092	2,926.76	51.6241
3,032.23	86.3823	3,032.23	85.9734	3,032.23	86.2293	3,032.23	85.124	3,032.23	85.6436	3,032.23	83.9604	3,032.23	84.7206	3,032.23	82.5128	3,032.23	83.375	3,032.23	80.6434	3,032.23	81.5255	3,032.23	78.4548	3,032.23	79.5947	3,032.23	75.762	3,032.23	77.4664	3,032.23	73.5584	3,032.23	74.992	3,032.23	72.1686	3,032.23	72.8339	3,032.23	69.3956	3,032.23	69.8628	3,032.23	67.3568	3,032.23	68.4725	3,032.23	67.111	3,032.23	67.7112	3,032.23	67.6708	3,032.23	64.3095	3,032.23	64.4661	3,032.23	65.3047	3,032.23	65.0998	3,032.23	63.6942	3,032.23	65.2983	3,032.23	66.1022	3,032.23	48.9562	3,032.23	60.0808	3,032.23	56.3473
3,137.7	86.3727	3,137.7	86.0713	3,137.7	86.3126	3,137.7	85.3684	3,137.7	85.72	3,137.7	84.515	3,137.7	84.9221	3,137.7	83.2648	3,137.7	84.0923	3,137.7	81.2229	3,137.7	82.3389	3,137.7	78.7645	3,137.7	80.2006	3,137.7	76.4808	3,137.7	78.0776	3,137.7	74.2549	3,137.7	75.5048	3,137.7	71.6975	3,137.7	73.1393	3,137.7	69.4859	3,137.7	70.4196	3,137.7	67.5023	3,137.7	68.9961	3,137.7	65.0122	3,137.7	67.9708	3,137.7	64.5232	3,137.7	65.2562	3,137.7	63.4666	3,137.7	64.3361	3,137.7	67.5282	3,137.7	63.0129	3,137.7	67.5987	3,137.7	68.2444	3,137.7	54.1271	3,137.7	61.1804	3,137.7	58.4663
3,249.02	86.3586	3,249.02	85.9855	3,249.02	86.3314	3,249.02	85.4506	3,249.02	85.9223	3,249.02	84.7772	3,249.02	85.4533	3,249.02	83.5777	3,249.02	84.4745	3,249.02	81.7439	3,249.02	82.7935	3,249.02	79.0271	3,249.02	80.9357	3,249.02	76.3655	3,249.02	78.4618	3,249.02	74.9399	3,249.02	75.653	3,249.02	72.9412	3,249.02	73.2266	3,249.02	69.1192	3,249.02	69.9881	3,249.02	65.7223	3,249.02	68.1961	3,249.02	63.9356	3,249.02	68.4894	3,249.02	67.6366	3,249.02	66.2197	3,249.02	63.9217	3,249.02	67.6422	3,249.02	64.9767	3,249.02	63.3372	3,249.02	65.8004	3,249.02	67.0128	3,249.02	36.5615	3,249.02	60.2702	3,249.02	61.5816
3,363.28	86.1938	3,363.28	86.0603	3,363.28	86.1346	3,363.28	85.7025	3,363.28	86.0357	3,363.28	85.0105	3,363.28	85.5902	3,363.28	83.791	3,363.28	84.4577	3,363.28	81.9126	3,363.28	82.7622	3,363.28	79.1448	3,363.28	80.2815	3,363.28	76.3343	3,363.28	77.9615	3,363.28	74.4792	3,363.28	75.9559	3,363.28	72.6592	3,363.28	72.9389	3,363.28	70.1575	3,363.28	69.2874	3,363.28	68.2081	3,363.28	66.5974	3,363.28	62.8628	3,363.28	68.1878	3,363.28	65.4486	3,363.28	66.1742	3,363.28	64.4605	3,363.28	64.6857	3,363.28	64.9609	3,363.28	60.9807	3,363.28	66.2457	3,363.28	66.6216	3,363.28	54.4421	3,363.28	65.2132	3,363.28	61.3728
3,483.4	85.786	3,483.4	85.8599	3,483.4	85.673	3,483.4	85.6417	3,483.4	85.7787	3,483.4	84.9141	3,483.4	85.4678	3,483.4	83.6282	3,483.4	84.6555	3,483.4	81.5735	3,483.4	83.0417	3,483.4	78.7239	3,483.4	80.3154	3,483.4	75.3931	3,483.4	77.7499	3,483.4	72.8262	3,483.4	75.1892	3,483.4	71.0654	3,483.4	73.2206	3,483.4	70.2383	3,483.4	71.5984	3,483.4	70.2269	3,483.4	69.4225	3,483.4	64.7387	3,483.4	67.3771	3,483.4	65.9985	3,483.4	65.193	3,483.4	64.8278	3,483.4	64.0903	3,483.4	61.9526	3,483.4	60.6923	3,483.4	65.3658	3,483.4	65.9159	3,483.4	57.8458	3,483.4	64.1596	3,483.4	60.1919
3,606.45	85.5236	3,606.45	85.8056	3,606.45	85.685	3,606.45	85.8225	3,606.45	85.9793	3,606.45	85.1521	3,606.45	85.6309	3,606.45	83.535	3,606.45	84.6188	3,606.45	81.5731	3,606.45	82.5908	3,606.45	79.5104	3,606.45	80.2362	3,606.45	76.2357	3,606.45	77.4456	3,606.45	72.7706	3,606.45	74.8055	3,606.45	71.5758	3,606.45	74.039	3,606.45	69.1814	3,606.45	71.9975	3,606.45	69.5005	3,606.45	69.2942	3,606.45	67.2545	3,606.45	67.6658	3,606.45	63.0599	3,606.45	62.2539	3,606.45	65.6887	3,606.45	67.5186	3,606.45	59.2563	3,606.45	65.2865	3,606.45	64.5983	3,606.45	67.4704	3,606.45	52.8494	3,606.45	62.5464	3,606.45	58.2354
3,732.42	85.371	3,732.42	85.4115	3,732.42	85.5986	3,732.42	85.4143	3,732.42	85.8859	3,732.42	84.8605	3,732.42	85.861	3,732.42	83.2501	3,732.42	84.8493	3,732.42	80.8727	3,732.42	82.5562	3,732.42	78.69	3,732.42	80.0569	3,732.42	76.1341	3,732.42	77.2743	3,732.42	72.7118	3,732.42	73.5859	3,732.42	70.9652	3,732.42	71.5092	3,732.42	69.4769	3,732.42	71.0157	3,732.42	69.3133	3,732.42	67.8796	3,732.42	67.7363	3,732.42	67.5164	3,732.42	63.877	3,732.42	65.6411	3,732.42	66.4671	3,732.42	67.6597	3,732.42	58.107	3,732.42	65.8945	3,732.42	65.5361	3,732.42	64.9535	3,732.42	51.3687	3,732.42	59.5972	3,732.42	62.7134
3,864.26	85.24	3,864.26	85.412	3,864.26	85.4167	3,864.26	85.6691	3,864.26	85.5981	3,864.26	85.0759	3,864.26	85.648	3,864.26	83.3391	3,864.26	84.7759	3,864.26	80.5146	3,864.26	82.8204	3,864.26	77.9731	3,864.26	80.448	3,864.26	76.0529	3,864.26	77.7457	3,864.26	73.2246	3,864.26	74.293	3,864.26	70.3388	3,864.26	71.016	3,864.26	69.0091	3,864.26	70.5566	3,864.26	66.2486	3,864.26	67.9238	3,864.26	65.4649	3,864.26	67.9684	3,864.26	61.0313	3,864.26	67.4768	3,864.26	68.2285	3,864.26	65.6405	3,864.26	60.4377	3,864.26	62.8369	3,864.26	63.6245	3,864.26	60.0869	3,864.26	53.8922	3,864.26	58.047	3,864.26	63.8243
3,999.02	84.8843	3,999.02	85.3249	3,999.02	85.149	3,999.02	85.6355	3,999.02	85.5157	3,999.02	84.9869	3,999.02	85.5257	3,999.02	83.5618	3,999.02	84.3091	3,999.02	80.941	3,999.02	82.2218	3,999.02	77.7953	3,999.02	79.9575	3,999.02	75.3178	3,999.02	78.1821	3,999.02	72.9352	3,999.02	76.3337	3,999.02	70.1748	3,999.02	73.8781	3,999.02	68.4389	3,999.02	71.0326	3,999.02	65.6191	3,999.02	67.8883	3,999.02	66.5431	3,999.02	66.6791	3,999.02	64.1534	3,999.02	66.2214	3,999.02	67.5365	3,999.02	64.3514	3,999.02	64.0633	3,999.02	64.5114	3,999.02	60.7159	3,999.02	63.1662	3,999.02	48.9228	3,999.02	62.7318	3,999.02	57.8284
4,139.65	84.193	4,139.65	84.4971	4,139.65	84.2394	4,139.65	84.9657	4,139.65	84.9776	4,139.65	84.9123	4,139.65	85.3769	4,139.65	83.7109	4,139.65	84.2004	4,139.65	81.3594	4,139.65	82.3813	4,139.65	78.8754	4,139.65	80.0756	4,139.65	76.2236	4,139.65	78.0443	4,139.65	74.4109	4,139.65	76.7927	4,139.65	72.4376	4,139.65	75.098	4,139.65	70.0633	4,139.65	72.0845	4,139.65	68.2765	4,139.65	69.9909	4,139.65	67.3773	4,139.65	67.298	4,139.65	65.8222	4,139.65	64.9367	4,139.65	66.2026	4,139.65	64.6255	4,139.65	65.6792	4,139.65	65.9834	4,139.65	66.5834	4,139.65	64.5895	4,139.65	58.6876	4,139.65	64.106	4,139.65	50.7236
4,286.13	84.3145	4,286.13	85.0187	4,286.13	84.3964	4,286.13	85.3421	4,286.13	85.6426	4,286.13	84.9081	4,286.13	85.4203	4,286.13	83.3099	4,286.13	84.1408	4,286.13	81.3651	4,286.13	82.6681	4,286.13	79.5313	4,286.13	80.6569	4,286.13	77.2124	4,286.13	78.3315	4,286.13	74.6486	4,286.13	76.2153	4,286.13	72.4563	4,286.13	74.0283	4,286.13	70.2066	4,286.13	74.1726	4,286.13	68.988	4,286.13	71.9598	4,286.13	68.3807	4,286.13	67.5052	4,286.13	64.9977	4,286.13	67.7859	4,286.13	65.8302	4,286.13	64.3282	4,286.13	65.9251	4,286.13	66.1709	4,286.13	68.2293	4,286.13	66.6686	4,286.13	62.296	4,286.13	66.4149	4,286.13	54.4305
4,438.48	84.5796	4,438.48	85.469	4,438.48	84.7254	4,438.48	85.7931	4,438.48	85.4112	4,438.48	84.6873	4,438.48	85.0502	4,438.48	83.3086	4,438.48	84.2256	4,438.48	81.7132	4,438.48	82.8003	4,438.48	80.2436	4,438.48	80.863	4,438.48	78.8368	4,438.48	79.0508	4,438.48	76.3457	4,438.48	77.0037	4,438.48	73.3967	4,438.48	73.73	4,438.48	71.829	4,438.48	71.4856	4,438.48	69.4437	4,438.48	70.7649	4,438.48	68.2911	4,438.48	69.5295	4,438.48	65.5463	4,438.48	69.2484	4,438.48	64.4654	4,438.48	67.6856	4,438.48	65.6811	4,438.48	67.6526	4,438.48	66.713	4,438.48	67.2004	4,438.48	63.7709	4,438.48	64.5471	4,438.48	58.0117
4,593.75	84.6156	4,593.75	85.2162	4,593.75	85.1502	4,593.75	85.6466	4,593.75	85.3918	4,593.75	84.3059	4,593.75	85.2673	4,593.75	83.1697	4,593.75	84.432	4,593.75	81.1736	4,593.75	82.8329	4,593.75	79.4556	4,593.75	80.9939	4,593.75	77.6892	4,593.75	78.8634	4,593.75	75.4488	4,593.75	76.5656	4,593.75	72.1044	4,593.75	74.6079	4,593.75	71.3074	4,593.75	70.7955	4,593.75	68.9338	4,593.75	69.9075	4,593.75	66.9815	4,593.75	69.0682	4,593.75	67.2207	4,593.75	69.4843	4,593.75	67.2365	4,593.75	66.6026	4,593.75	65.9315	4,593.75	67.6996	4,593.75	68.2385	4,593.75	64.4157	4,593.75	60.482	4,593.75	63.4782	4,593.75	57.15
4,757.81	84.6375	4,757.81	85.0754	4,757.81	84.7891	4,757.81	85.1577	4,757.81	85.0478	4,757.81	84.4812	4,757.81	84.9064	4,757.81	82.9653	4,757.81	83.6351	4,757.81	80.9275	4,757.81	82.0625	4,757.81	79.1015	4,757.81	80.5415	4,757.81	76.2976	4,757.81	77.9543	4,757.81	75.2654	4,757.81	75.7812	4,757.81	73.7156	4,757.81	72.8386	4,757.81	70.3738	4,757.81	69.6638	4,757.81	67.9637	4,757.81	70.4578	4,757.81	67.3168	4,757.81	67.9731	4,757.81	66.3665	4,757.81	66.6419	4,757.81	65.1615	4,757.81	64.6863	4,757.81	62.2087	4,757.81	61.3789	4,757.81	65.4348	4,757.81	63.3643	4,757.81	43.6318	4,757.81	64.2563	4,757.81	52.2116
4,924.8	85.0997	4,924.8	85.4128	4,924.8	84.825	4,924.8	85.1069	4,924.8	85.6034	4,924.8	84.4661	4,924.8	84.9084	4,924.8	82.9223	4,924.8	83.1319	4,924.8	81.4733	4,924.8	81.4034	4,924.8	78.4903	4,924.8	79.5392	4,924.8	74.6745	4,924.8	77.5673	4,924.8	72.3009	4,924.8	75.008	4,924.8	71.3577	4,924.8	71.871	4,924.8	68.0786	4,924.8	70.0518	4,924.8	67.0728	4,924.8	68.6447	4,924.8	67.9343	4,924.8	67.7362	4,924.8	64.5914	4,924.8	67.1475	4,924.8	61.9609	4,924.8	63.3676	4,924.8	60.7907	4,924.8	64.0322	4,924.8	65.0099	4,924.8	63.3832	4,924.8	58.7771	4,924.8	64.6346	4,924.8	38.3821
5,097.66	84.9432	5,097.66	84.9515	5,097.66	85.1799	5,097.66	84.9058	5,097.66	85.289	5,097.66	83.3786	5,097.66	84.6956	5,097.66	82.278	5,097.66	83.4746	5,097.66	80.4291	5,097.66	81.4234	5,097.66	78.2797	5,097.66	79.8792	5,097.66	76.3519	5,097.66	77.2317	5,097.66	73.6058	5,097.66	74.0811	5,097.66	70.05	5,097.66	72.3819	5,097.66	69.3182	5,097.66	70.0128	5,097.66	65.6709	5,097.66	67.7862	5,097.66	65.0586	5,097.66	65.1529	5,097.66	65.4942	5,097.66	67.2148	5,097.66	61.624	5,097.66	60.855	5,097.66	61.7053	5,097.66	64.7947	5,097.66	64.7764	5,097.66	61.6134	5,097.66	61.6291	5,097.66	63.0203	5,097.66	47.5008
5,279.3	84.8142	5,279.3	84.899	5,279.3	85.4331	5,279.3	84.9326	5,279.3	85.0687	5,279.3	83.689	5,279.3	84.1985	5,279.3	82.4942	5,279.3	82.8294	5,279.3	80.1975	5,279.3	81.6393	5,279.3	78.444	5,279.3	79.9261	5,279.3	75.7715	5,279.3	76.1105	5,279.3	73.046	5,279.3	73.9092	5,279.3	69.7768	5,279.3	70.6382	5,279.3	68.3952	5,279.3	66.6347	5,279.3	67.0162	5,279.3	68.6648	5,279.3	63.8254	5,279.3	64.8237	5,279.3	65.6514	5,279.3	63.5345	5,279.3	63.1361	5,279.3	60.7619	5,279.3	63.4274	5,279.3	62.4973	5,279.3	63.5764	5,279.3	61.952	5,279.3	57.6911	5,279.3	63.2623	5,279.3	51.0872
5,463.87	85.251	5,463.87	85.1122	5,463.87	85.1252	5,463.87	84.6592	5,463.87	84.993	5,463.87	83.847	5,463.87	84.059	5,463.87	81.742	5,463.87	82.4602	5,463.87	79.0781	5,463.87	81.2625	5,463.87	76.1068	5,463.87	77.8935	5,463.87	72.4025	5,463.87	75.0581	5,463.87	70.5448	5,463.87	72.8136	5,463.87	68.7124	5,463.87	70.5912	5,463.87	67.6182	5,463.87	69.1884	5,463.87	68.5385	5,463.87	66.6771	5,463.87	66.3577	5,463.87	65.705	5,463.87	65.5761	5,463.87	65.6494	5,463.87	62.6369	5,463.87	61.3091	5,463.87	61.6338	5,463.87	61.3995	5,463.87	64.0023	5,463.87	60.8889	5,463.87	54.2132	5,463.87	64.1081	5,463.87	46.546
5,657.23	85.0544	5,657.23	84.8929	5,657.23	84.895	5,657.23	84.4135	5,657.23	84.8327	5,657.23	83.3512	5,657.23	83.7201	5,657.23	82.1206	5,657.23	82.7009	5,657.23	79.7708	5,657.23	80.037	5,657.23	76.2492	5,657.23	77.3594	5,657.23	73.6925	5,657.23	74.9661	5,657.23	72.1942	5,657.23	70.7415	5,657.23	68.8622	5,657.23	69.6694	5,657.23	66.4978	5,657.23	66.7795	5,657.23	65.1208	5,657.23	66.4172	5,657.23	63.3483	5,657.23	64.3138	5,657.23	62.3818	5,657.23	64.3045	5,657.23	57.2957	5,657.23	60.5878	5,657.23	61.6798	5,657.23	60.4949	5,657.23	60.6231	5,657.23	62.5653	5,657.23	56.8299	5,657.23	59.5695	5,657.23	46.7805
5,856.45	84.8633	5,856.45	84.9654	5,856.45	85.4074	5,856.45	84.9365	5,856.45	85.0248	5,856.45	83.6334	5,856.45	83.8465	5,856.45	82.2125	5,856.45	82.4416	5,856.45	79.7347	5,856.45	80.0105	5,856.45	77.373	5,856.45	77.8763	5,856.45	74.1211	5,856.45	73.5026	5,856.45	71.0265	5,856.45	71.8516	5,856.45	68.7896	5,856.45	69.5935	5,856.45	66.6	5,856.45	65.7591	5,856.45	63.4267	5,856.45	64.8506	5,856.45	58.8598	5,856.45	63.9707	5,856.45	60.4554	5,856.45	62.777	5,856.45	56.4464	5,856.45	63.0691	5,856.45	59.0151	5,856.45	59.7494	5,856.45	58.841	5,856.45	61.5947	5,856.45	52.6567	5,856.45	63.0274	5,856.45	53.8079
6,061.52	85.1999	6,061.52	85.5469	6,061.52	85.0576	6,061.52	85.0912	6,061.52	84.9625	6,061.52	84.0292	6,061.52	84.0869	6,061.52	81.9811	6,061.52	82.4059	6,061.52	79.6483	6,061.52	80.6233	6,061.52	76.7424	6,061.52	77.516	6,061.52	73.4218	6,061.52	74.6239	6,061.52	70.3371	6,061.52	71.5823	6,061.52	68.0094	6,061.52	69.8367	6,061.52	67.6849	6,061.52	68.5284	6,061.52	65.9493	6,061.52	65.7751	6,061.52	62.454	6,061.52	65.0476	6,061.52	62.9607	6,061.52	61.8416	6,061.52	60.8286	6,061.52	60.7571	6,061.52	62.6531	6,061.52	59.8992	6,061.52	61.6876	6,061.52	60.269	6,061.52	55.047	6,061.52	60.5587	6,061.52	51.5834
6,275.39	85.5814	6,275.39	85.3161	6,275.39	85.2556	6,275.39	84.8414	6,275.39	84.9773	6,275.39	84.0064	6,275.39	84.5444	6,275.39	82.5042	6,275.39	83.9739	6,275.39	80.2122	6,275.39	81.4275	6,275.39	76.0952	6,275.39	78.3771	6,275.39	73.5607	6,275.39	75.2684	6,275.39	70.8044	6,275.39	72.1266	6,275.39	68.8999	6,275.39	70.7286	6,275.39	66.8307	6,275.39	69.0595	6,275.39	65.7606	6,275.39	66.647	6,275.39	64.5469	6,275.39	64.9958	6,275.39	63.7761	6,275.39	62.2008	6,275.39	61.1412	6,275.39	62.2276	6,275.39	63.5987	6,275.39	62.2892	6,275.39	63.7846	6,275.39	63.5042	6,275.39	56.0335	6,275.39	59.1047	6,275.39	43.7129
6,498.05	85.5536	6,498.05	85.3716	6,498.05	85.6899	6,498.05	85.2509	6,498.05	85.2956	6,498.05	84.4262	6,498.05	84.8304	6,498.05	83.1848	6,498.05	84.0049	6,498.05	80.5287	6,498.05	81.6552	6,498.05	77.3532	6,498.05	79.2189	6,498.05	74.1995	6,498.05	76.2735	6,498.05	71.816	6,498.05	73.2737	6,498.05	70.023	6,498.05	71.0304	6,498.05	66.5006	6,498.05	68.5968	6,498.05	64.7225	6,498.05	66.4474	6,498.05	63.6234	6,498.05	65.7311	6,498.05	63.8739	6,498.05	64.9634	6,498.05	61.7704	6,498.05	63.5819	6,498.05	63.0374	6,498.05	61.8363	6,498.05	62.0963	6,498.05	62.5737	6,498.05	56.5349	6,498.05	62.3063	6,498.05	37.6805
6,726.56	85.9503	6,726.56	85.9302	6,726.56	85.7123	6,726.56	85.6372	6,726.56	85.4336	6,726.56	84.9603	6,726.56	85.3792	6,726.56	83.339	6,726.56	83.8985	6,726.56	80.746	6,726.56	82.0488	6,726.56	78.1373	6,726.56	79.5106	6,726.56	75.0005	6,726.56	76.3346	6,726.56	71.8121	6,726.56	73.1519	6,726.56	69.1826	6,726.56	71.0759	6,726.56	67.3398	6,726.56	67.3145	6,726.56	66.7579	6,726.56	63.852	6,726.56	63.0708	6,726.56	65.261	6,726.56	62.8592	6,726.56	62.3729	6,726.56	59.7269	6,726.56	64.3259	6,726.56	64.5978	6,726.56	60.8846	6,726.56	61.1952	6,726.56	63.1616	6,726.56	56.0873	6,726.56	62.1003	6,726.56	42.9095
6,963.87	86.3871	6,963.87	85.9774	6,963.87	85.5105	6,963.87	85.4658	6,963.87	85.3138	6,963.87	84.8626	6,963.87	85.0934	6,963.87	83.3088	6,963.87	84.2002	6,963.87	81.0305	6,963.87	82.0784	6,963.87	77.2148	6,963.87	79.5645	6,963.87	74.4846	6,963.87	76.606	6,963.87	71.9234	6,963.87	73.2316	6,963.87	69.3779	6,963.87	70.1541	6,963.87	67.3506	6,963.87	68.6574	6,963.87	65.3068	6,963.87	66.2069	6,963.87	63.2661	6,963.87	64.0897	6,963.87	62.6362	6,963.87	62.2851	6,963.87	57.518	6,963.87	59.0555	6,963.87	63.6942	6,963.87	61.8024	6,963.87	60.0773	6,963.87	60.2193	6,963.87	57.0493	6,963.87	62.0173	6,963.87	46.2034
7,209.96	86.0124	7,209.96	85.4293	7,209.96	85.9377	7,209.96	85.3189	7,209.96	85.3639	7,209.96	84.7088	7,209.96	84.8974	7,209.96	83.1394	7,209.96	83.8072	7,209.96	80.2541	7,209.96	81.8252	7,209.96	77.2178	7,209.96	79.5533	7,209.96	74.7809	7,209.96	75.6472	7,209.96	71.0571	7,209.96	72.514	7,209.96	69.517	7,209.96	69.7704	7,209.96	67.6084	7,209.96	67.5206	7,209.96	64.32	7,209.96	63.5691	7,209.96	64.7298	7,209.96	62.7024	7,209.96	61.4652	7,209.96	61.7561	7,209.96	59.8057	7,209.96	63.7095	7,209.96	62.0213	7,209.96	59.356	7,209.96	59.2133	7,209.96	61.2108	7,209.96	58.5752	7,209.96	63.2029	7,209.96	49.4336
7,464.84	86.1293	7,464.84	85.7302	7,464.84	85.6308	7,464.84	85.2566	7,464.84	85.0906	7,464.84	84.3935	7,464.84	84.6479	7,464.84	82.8547	7,464.84	83.4182	7,464.84	80.2935	7,464.84	81.7808	7,464.84	77.6165	7,464.84	78.5227	7,464.84	74.9299	7,464.84	75.2601	7,464.84	71.5187	7,464.84	72.3105	7,464.84	68.5083	7,464.84	69.1473	7,464.84	66.9193	7,464.84	66.6591	7,464.84	63.7347	7,464.84	64.8986	7,464.84	63.758	7,464.84	64.0657	7,464.84	61.8483	7,464.84	60.0896	7,464.84	61.9712	7,464.84	63.6268	7,464.84	58.9846	7,464.84	50.9966	7,464.84	58.017	7,464.84	60.8837	7,464.84	55.4007	7,464.84	58.9771	7,464.84	46.3536
7,728.52	86.4352	7,728.52	85.6976	7,728.52	86.0501	7,728.52	85.2646	7,728.52	85.4162	7,728.52	84.5274	7,728.52	84.7595	7,728.52	82.957	7,728.52	83.6838	7,728.52	79.985	7,728.52	81.6499	7,728.52	77.349	7,728.52	78.1631	7,728.52	74.4315	7,728.52	75.2362	7,728.52	71.494	7,728.52	72.0802	7,728.52	68.2826	7,728.52	69.9998	7,728.52	66.9825	7,728.52	67.4819	7,728.52	65.016	7,728.52	65.1205	7,728.52	62.4427	7,728.52	62.4201	7,728.52	62.6516	7,728.52	51.1116	7,728.52	61.6831	7,728.52	62.4411	7,728.52	59.1712	7,728.52	56.932	7,728.52	55.6005	7,728.52	59.2069	7,728.52	53.2149	7,728.52	58.8934	7,728.52	44.623
8,000.98	86.5007	8,000.98	85.9948	8,000.98	86.332	8,000.98	85.7559	8,000.98	85.7419	8,000.98	85.0713	8,000.98	85.007	8,000.98	83.2855	8,000.98	84.114	8,000.98	80.5424	8,000.98	81.8201	8,000.98	77.0324	8,000.98	78.7561	8,000.98	74.0612	8,000.98	75.3718	8,000.98	70.3357	8,000.98	71.9451	8,000.98	67.6735	8,000.98	69.3708	8,000.98	66.5075	8,000.98	66.6809	8,000.98	64.3483	8,000.98	63.1231	8,000.98	63.7845	8,000.98	64.498	8,000.98	59.9338	8,000.98	59.9963	8,000.98	62.7473	8,000.98	61.7073	8,000.98	62.524	8,000.98	52.9635	8,000.98	56.5264	8,000.98	60.1018	8,000.98	54.9201	8,000.98	59.8381	8,000.98	47.2127
8,282.23	87.3928	8,282.23	86.5729	8,282.23	87.0955	8,282.23	86.1945	8,282.23	86.2428	8,282.23	85.4093	8,282.23	85.3384	8,282.23	83.8372	8,282.23	84.5163	8,282.23	81.1449	8,282.23	82.4612	8,282.23	78.2996	8,282.23	79.6419	8,282.23	74.488	8,282.23	76.6424	8,282.23	71.5128	8,282.23	72.8079	8,282.23	68.6685	8,282.23	69.4122	8,282.23	64.9758	8,282.23	66.75	8,282.23	62.4456	8,282.23	64.927	8,282.23	63.1781	8,282.23	63.0496	8,282.23	60.3316	8,282.23	61.2908	8,282.23	62.479	8,282.23	62.8036	8,282.23	58.5543	8,282.23	57.4346	8,282.23	52.1907	8,282.23	60.4967	8,282.23	55.0285	8,282.23	57.6961	8,282.23	41.3503
8,575.2	87.3392	8,575.2	86.5616	8,575.2	87.346	8,575.2	86.3047	8,575.2	86.3208	8,575.2	85.4836	8,575.2	85.5127	8,575.2	83.7412	8,575.2	84.5632	8,575.2	80.8732	8,575.2	82.1104	8,575.2	78.0939	8,575.2	79.5821	8,575.2	73.8337	8,575.2	76.2208	8,575.2	70.2405	8,575.2	73.2071	8,575.2	67.1121	8,575.2	70.4466	8,575.2	66.3743	8,575.2	67.2907	8,575.2	63.5812	8,575.2	64.7458	8,575.2	63.3716	8,575.2	62.7812	8,575.2	58.5856	8,575.2	61.4901	8,575.2	61.3675	8,575.2	63.2288	8,575.2	60.9727	8,575.2	55.0221	8,575.2	53.8124	8,575.2	61.5542	8,575.2	48.0514	8,575.2	58.4939	8,575.2	47.4956
8,876.95	87.1046	8,876.95	86.1926	8,876.95	87.0242	8,876.95	85.7856	8,876.95	85.9898	8,876.95	85.1578	8,876.95	85.0907	8,876.95	83.1206	8,876.95	84.1598	8,876.95	80.686	8,876.95	81.8289	8,876.95	77.2349	8,876.95	79.2315	8,876.95	72.9892	8,876.95	75.8297	8,876.95	70.4087	8,876.95	71.6465	8,876.95	66.6191	8,876.95	69.0357	8,876.95	64.5173	8,876.95	64.8369	8,876.95	59.9473	8,876.95	64.1364	8,876.95	61.8531	8,876.95	62.0916	8,876.95	56.6452	8,876.95	61.4652	8,876.95	61.4748	8,876.95	61.5481	8,876.95	60.4293	8,876.95	57.8435	8,876.95	49.4614	8,876.95	60.1514	8,876.95	42.6057	8,876.95	58.1439	8,876.95	51.2242
9,190.43	86.5927	9,190.43	85.6672	9,190.43	86.5262	9,190.43	85.3359	9,190.43	85.2662	9,190.43	84.7191	9,190.43	84.551	9,190.43	82.6378	9,190.43	83.5028	9,190.43	80.6854	9,190.43	81.4508	9,190.43	76.8213	9,190.43	78.7553	9,190.43	72.5	9,190.43	74.2746	9,190.43	69.381	9,190.43	70.6485	9,190.43	65.5511	9,190.43	68.7461	9,190.43	64.2658	9,190.43	64.6706	9,190.43	63.1597	9,190.43	65.228	9,190.43	59.5178	9,190.43	62.2088	9,190.43	57.9508	9,190.43	59.0984	9,190.43	61.5435	9,190.43	62.1141	9,190.43	57.1227	9,190.43	58.0628	9,190.43	49.1807	9,190.43	61.1186	9,190.43	45.3537	9,190.43	53.8341	9,190.43	52.2993
9,512.7	86.1995	9,512.7	85.5218	9,512.7	85.8841	9,512.7	85.1261	9,512.7	84.7946	9,512.7	84.5461	9,512.7	84.2247	9,512.7	82.6445	9,512.7	83.3783	9,512.7	81.0324	9,512.7	81.4813	9,512.7	76.9136	9,512.7	77.6758	9,512.7	71.1405	9,512.7	73.4097	9,512.7	68.4068	9,512.7	70.4623	9,512.7	66.1463	9,512.7	68.9551	9,512.7	63.8799	9,512.7	63.7336	9,512.7	61	9,512.7	64.7621	9,512.7	58.0874	9,512.7	60.8331	9,512.7	56.6603	9,512.7	62.2695	9,512.7	60.6134	9,512.7	59.3816	9,512.7	61.0858	9,512.7	57.5018	9,512.7	51.9243	9,512.7	63.9235	9,512.7	46.81	9,512.7	54.875	9,512.7	52.2964
9,849.61	86.3756	9,849.61	85.9684	9,849.61	85.8404	9,849.61	85.3352	9,849.61	85.0156	9,849.61	84.2442	9,849.61	84.4805	9,849.61	82.9711	9,849.61	83.5385	9,849.61	80.9982	9,849.61	81.7046	9,849.61	75.3846	9,849.61	77.6271	9,849.61	70.981	9,849.61	74.6671	9,849.61	69.906	9,849.61	71.0576	9,849.61	67.8988	9,849.61	68.6829	9,849.61	61.9271	9,849.61	63.7272	9,849.61	60.077	9,849.61	64.7934	9,849.61	58.9772	9,849.61	58.4598	9,849.61	61.042	9,849.61	60.8372	9,849.61	60.5146	9,849.61	56.9813	9,849.61	58.2898	9,849.61	58.8502	9,849.61	50.8507	9,849.61	61.5905	9,849.61	54.7563	9,849.61	54.2057	9,849.61	47.881
10,195.3	86.6309	10,195.3	86.172	10,195.3	86.2106	10,195.3	85.3253	10,195.3	85.4705	10,195.3	84.5104	10,195.3	84.5536	10,195.3	83.5205	10,195.3	83.8957	10,195.3	80.278	10,195.3	81.868	10,195.3	76.2057	10,195.3	78.5111	10,195.3	72.7431	10,195.3	75.8086	10,195.3	70.3268	10,195.3	71.1614	10,195.3	68.1587	10,195.3	68.8738	10,195.3	61.345	10,195.3	65.9957	10,195.3	62.1964	10,195.3	63.4698	10,195.3	59.3805	10,195.3	60.2387	10,195.3	61.5977	10,195.3	58.4254	10,195.3	60.6798	10,195.3	57.0509	10,195.3	56.6356	10,195.3	60.3843	10,195.3	47.665	10,195.3	61.5899	10,195.3	54.6377	10,195.3	54.4636	10,195.3	45.8214
10,555.7	86.7856	10,555.7	86.4552	10,555.7	86.4798	10,555.7	85.6133	10,555.7	85.9954	10,555.7	84.6596	10,555.7	85.0287	10,555.7	83.4121	10,555.7	84.2086	10,555.7	79.8402	10,555.7	82.0131	10,555.7	76.9841	10,555.7	79.1977	10,555.7	73.7903	10,555.7	75.9786	10,555.7	69.5925	10,555.7	71.2512	10,555.7	67.0322	10,555.7	67.6896	10,555.7	59.9603	10,555.7	66.0196	10,555.7	61.4973	10,555.7	62.4113	10,555.7	60.5583	10,555.7	59.6045	10,555.7	59.989	10,555.7	60.1255	10,555.7	60.3835	10,555.7	57.4021	10,555.7	53.1704	10,555.7	58.8524	10,555.7	47.069	10,555.7	59.7253	10,555.7	52.4199	10,555.7	54.1699	10,555.7	47.7834
10,927.7	86.2065	10,927.7	86.0749	10,927.7	86.1838	10,927.7	85.1918	10,927.7	85.8408	10,927.7	84.7162	10,927.7	84.7127	10,927.7	82.9834	10,927.7	83.8734	10,927.7	79.6334	10,927.7	81.3796	10,927.7	77.2628	10,927.7	78.7607	10,927.7	73.3783	10,927.7	75.573	10,927.7	68.3177	10,927.7	70.0226	10,927.7	66.6296	10,927.7	66.9723	10,927.7	61.7743	10,927.7	66.0952	10,927.7	59.3792	10,927.7	61.3217	10,927.7	60.3513	10,927.7	60.9775	10,927.7	59.0044	10,927.7	60.3576	10,927.7	58.8561	10,927.7	58.5347	10,927.7	52.7917	10,927.7	59.3027	10,927.7	41.7888	10,927.7	57.5664	10,927.7	50.9137	10,927.7	54.8858	10,927.7	48.8301
11,314.5	85.8285	11,314.5	85.6597	11,314.5	85.8968	11,314.5	84.9084	11,314.5	85.4222	11,314.5	84.1109	11,314.5	84.2616	11,314.5	81.9855	11,314.5	83.2683	11,314.5	78.5548	11,314.5	80.7395	11,314.5	76.5315	11,314.5	78.7864	11,314.5	72.183	11,314.5	74.1536	11,314.5	66.7044	11,314.5	69.5839	11,314.5	66.0024	11,314.5	66.0881	11,314.5	61.2441	11,314.5	65.5576	11,314.5	58.6619	11,314.5	59.3637	11,314.5	60.9498	11,314.5	60.3291	11,314.5	58.1123	11,314.5	58.6274	11,314.5	58.2159	11,314.5	57.6125	11,314.5	52.1764	11,314.5	56.6125	11,314.5	41.1571	11,314.5	56.7096	11,314.5	46.5969	11,314.5	51.8658	11,314.5	52.6558
11,712.9	85.5483	11,712.9	85.431	11,712.9	85.6979	11,712.9	84.5146	11,712.9	85.1053	11,712.9	83.7465	11,712.9	83.9227	11,712.9	81.1742	11,712.9	82.4776	11,712.9	77.9891	11,712.9	80.0817	11,712.9	75.9764	11,712.9	77.6372	11,712.9	71.4044	11,712.9	73.1625	11,712.9	65.9081	11,712.9	70.0472	11,712.9	64.8867	11,712.9	65.8171	11,712.9	61.9479	11,712.9	64.4054	11,712.9	59.5737	11,712.9	59.512	11,712.9	59.027	11,712.9	61.3203	11,712.9	58.8469	11,712.9	57.5071	11,712.9	54.6044	11,712.9	57.48	11,712.9	52.1925	11,712.9	56.0641	11,712.9	39.2368	11,712.9	54.6273	11,712.9	48.7131	11,712.9	52.2073	11,712.9	51.9413
12,126	85.4619	12,126	85.1141	12,126	85.695	12,126	84.3378	12,126	85.0348	12,126	83.704	12,126	83.7577	12,126	80.5806	12,126	82.1383	12,126	78.1661	12,126	80.0158	12,126	75.4407	12,126	76.9967	12,126	71.79	12,126	72.8953	12,126	66.4858	12,126	70.0989	12,126	64.752	12,126	65.7507	12,126	63.0663	12,126	64.2037	12,126	59.0118	12,126	57.5624	12,126	59.6281	12,126	59.0049	12,126	57.9468	12,126	57.7673	12,126	56.8877	12,126	56.4633	12,126	52.2007	12,126	56.9998	12,126	36.6418	12,126	52.5265	12,126	49.8963	12,126	54.0065	12,126	52.0615
12,553.7	85.6085	12,553.7	85.0462	12,553.7	85.6268	12,553.7	84.5185	12,553.7	84.8287	12,553.7	83.5335	12,553.7	83.7759	12,553.7	80.714	12,553.7	82.2194	12,553.7	78.518	12,553.7	80.1292	12,553.7	75.2953	12,553.7	76.9102	12,553.7	72.6812	12,553.7	73.7857	12,553.7	67.121	12,553.7	70.9903	12,553.7	65.0995	12,553.7	64.5076	12,553.7	62.974	12,553.7	63.5263	12,553.7	59.5981	12,553.7	58.9536	12,553.7	58.8169	12,553.7	58.2011	12,553.7	58.8715	12,553.7	57.3755	12,553.7	56.1961	12,553.7	56.9969	12,553.7	48.9614	12,553.7	56.9785	12,553.7	46.3495	12,553.7	54.0334	12,553.7	50.1548	12,553.7	56.4013	12,553.7	48.5347
12,996.1	85.51	12,996.1	85.0519	12,996.1	85.4923	12,996.1	84.8234	12,996.1	84.7807	12,996.1	83.5756	12,996.1	84.1202	12,996.1	81.0251	12,996.1	82.6459	12,996.1	78.2048	12,996.1	80.3137	12,996.1	76.077	12,996.1	77.3606	12,996.1	72.793	12,996.1	74.8709	12,996.1	66.2747	12,996.1	71.1331	12,996.1	63.881	12,996.1	64.2096	12,996.1	64.1503	12,996.1	64.4395	12,996.1	59.8493	12,996.1	60.4475	12,996.1	59.1748	12,996.1	58.8503	12,996.1	58.4601	12,996.1	54.7951	12,996.1	56.3244	12,996.1	55.8302	12,996.1	51.9589	12,996.1	56.9327	12,996.1	50.1925	12,996.1	55.6478	12,996.1	53.3165	12,996.1	57.7831	12,996.1	54.3019
13,453.1	85.3435	13,453.1	85.0699	13,453.1	85.2602	13,453.1	85.0318	13,453.1	84.7665	13,453.1	83.781	13,453.1	84.2326	13,453.1	81.3835	13,453.1	83.1049	13,453.1	78.5198	13,453.1	80.7372	13,453.1	76.9982	13,453.1	78.3341	13,453.1	73.2619	13,453.1	75.1821	13,453.1	67.1616	13,453.1	71.7924	13,453.1	63.5647	13,453.1	63.6547	13,453.1	64.8504	13,453.1	65.1268	13,453.1	59.5095	13,453.1	60.9074	13,453.1	60.7025	13,453.1	59.6108	13,453.1	58.9717	13,453.1	57.3117	13,453.1	54.8521	13,453.1	56.6415	13,453.1	54.3194	13,453.1	57.5817	13,453.1	55.0623	13,453.1	58.4475	13,453.1	54.9215	13,453.1	59.5354	13,453.1	54.8647
13,927.7	84.5845	13,927.7	84.5686	13,927.7	84.6304	13,927.7	84.8614	13,927.7	84.4699	13,927.7	83.8906	13,927.7	84.2798	13,927.7	81.5455	13,927.7	83.4285	13,927.7	78.6211	13,927.7	81.0621	13,927.7	77.599	13,927.7	79.0604	13,927.7	73.8137	13,927.7	75.4312	13,927.7	68.6157	13,927.7	72.823	13,927.7	61.6123	13,927.7	64.5826	13,927.7	65.9739	13,927.7	65.235	13,927.7	60.7294	13,927.7	60.9352	13,927.7	61.6401	13,927.7	60.0663	13,927.7	59.4754	13,927.7	58.8501	13,927.7	57.1876	13,927.7	59.1757	13,927.7	57	13,927.7	57.3073	13,927.7	57.8493	13,927.7	59.8623	13,927.7	56.9622	13,927.7	61.6529	13,927.7	58.6076
14,419.9	83.548	14,419.9	84.0099	14,419.9	83.7416	14,419.9	84.7234	14,419.9	84.0066	14,419.9	83.6553	14,419.9	84.4131	14,419.9	81.2823	14,419.9	83.4745	14,419.9	78.6257	14,419.9	81.3313	14,419.9	77.2545	14,419.9	79.0088	14,419.9	73.9125	14,419.9	75.5112	14,419.9	69.4109	14,419.9	73.389	14,419.9	59.2863	14,419.9	65.584	14,419.9	66.3513	14,419.9	64.4117	14,419.9	61.2543	14,419.9	61.91	14,419.9	60.0165	14,419.9	59.3338	14,419.9	60.0907	14,419.9	59.1999	14,419.9	57.7588	14,419.9	58.7813	14,419.9	58.0557	14,419.9	58.1817	14,419.9	59.0294	14,419.9	60.5601	14,419.9	60.4645	14,419.9	63.6996	14,419.9	59.5487
14,929.7	82.8253	14,929.7	83.4872	14,929.7	83.2186	14,929.7	84.5149	14,929.7	83.8897	14,929.7	83.4564	14,929.7	84.7641	14,929.7	80.8233	14,929.7	83.5905	14,929.7	78.455	14,929.7	81.5444	14,929.7	76.8907	14,929.7	78.6218	14,929.7	73.9127	14,929.7	75.8765	14,929.7	69.4827	14,929.7	73.3765	14,929.7	54.1241	14,929.7	65.9436	14,929.7	66.7994	14,929.7	63.5613	14,929.7	60.4914	14,929.7	63.0132	14,929.7	61.0083	14,929.7	57.3265	14,929.7	58.9603	14,929.7	58.1483	14,929.7	57.5209	14,929.7	57.4975	14,929.7	59.277	14,929.7	58.5561	14,929.7	61.6054	14,929.7	61.4187	14,929.7	62.0476	14,929.7	64.7279	14,929.7	61.1216
15,454.1	82.1815	15,454.1	83.4386	15,454.1	82.6533	15,454.1	84.5214	15,454.1	83.8666	15,454.1	83.3547	15,454.1	84.8997	15,454.1	80.7029	15,454.1	83.4267	15,454.1	77.9796	15,454.1	81.3186	15,454.1	77.0962	15,454.1	77.9927	15,454.1	73.4319	15,454.1	75.5431	15,454.1	69.7879	15,454.1	73.5042	15,454.1	47.8727	15,454.1	66.1948	15,454.1	66.9975	15,454.1	61.796	15,454.1	61.1938	15,454.1	63.4987	15,454.1	61.4985	15,454.1	56.1634	15,454.1	57.2634	15,454.1	58.5698	15,454.1	57.3133	15,454.1	57.4575	15,454.1	60.1416	15,454.1	59.264	15,454.1	62.1873	15,454.1	63.3753	15,454.1	63.9795	15,454.1	65.0586	15,454.1	61.6825
15,999	81.881	15,999	83.1948	15,999	82.2881	15,999	84.4014	15,999	83.8327	15,999	82.9506	15,999	84.8548	15,999	79.9517	15,999	83.3172	15,999	76.8278	15,999	80.7226	15,999	76.417	15,999	77.8032	15,999	72.183	15,999	74.9978	15,999	70.1245	15,999	73.5052	15,999	54.7787	15,999	65.9259	15,999	66.4623	15,999	58.1734	15,999	60.4013	15,999	63.3926	15,999	59.6586	15,999	56.1888	15,999	57.054	15,999	56.6378	15,999	58.5249	15,999	55.9569	15,999	60.3734	15,999	60.2236	15,999	63.1389	15,999	62.8876	15,999	64.8336	15,999	66.2056	15,999	62.6085
16,564.5	82.072	16,564.5	83.237	16,564.5	82.3904	16,564.5	84.3793	16,564.5	83.8922	16,564.5	82.2392	16,564.5	84.9816	16,564.5	79.1176	16,564.5	83.0747	16,564.5	75.6714	16,564.5	80.1551	16,564.5	75.1013	16,564.5	77.6775	16,564.5	71.9693	16,564.5	74.392	16,564.5	69.2984	16,564.5	72.9432	16,564.5	57.5946	16,564.5	66.6962	16,564.5	65.718	16,564.5	56.7066	16,564.5	59.7167	16,564.5	64.1533	16,564.5	58.9408	16,564.5	52.2405	16,564.5	56.4766	16,564.5	57.4952	16,564.5	58.4766	16,564.5	55.1539	16,564.5	61.9646	16,564.5	60.6376	16,564.5	64.2297	16,564.5	63.7438	16,564.5	66.3755	16,564.5	66.8882	16,564.5	63.5243
17,147.5	82.8417	17,147.5	83.9092	17,147.5	83.0244	17,147.5	84.4747	17,147.5	84.5411	17,147.5	81.8426	17,147.5	85.3024	17,147.5	78.661	17,147.5	82.9888	17,147.5	74.5734	17,147.5	79.5841	17,147.5	74.2881	17,147.5	77.1896	17,147.5	72.1404	17,147.5	73.724	17,147.5	69.4041	17,147.5	72.5351	17,147.5	62.7813	17,147.5	67.6822	17,147.5	65.4353	17,147.5	52.7899	17,147.5	60.452	17,147.5	64.1656	17,147.5	57.9119	17,147.5	53.967	17,147.5	56.0405	17,147.5	58.9729	17,147.5	60.8306	17,147.5	57.089	17,147.5	62.6105	17,147.5	61.3462	17,147.5	64.8029	17,147.5	64.5446	17,147.5	67.4906	17,147.5	66.6674	17,147.5	63.7584
17,753.9	83.2206	17,753.9	84.4557	17,753.9	83.1902	17,753.9	84.5676	17,753.9	84.9852	17,753.9	81.4912	17,753.9	85.3034	17,753.9	78.0529	17,753.9	82.4851	17,753.9	73.6492	17,753.9	78.777	17,753.9	73.8097	17,753.9	76.136	17,753.9	71.4584	17,753.9	72.5006	17,753.9	69.6662	17,753.9	72.4128	17,753.9	65.4241	17,753.9	67.9264	17,753.9	64.8086	17,753.9	41.8697	17,753.9	59.4197	17,753.9	64.581	17,753.9	57.033	17,753.9	55.8377	17,753.9	56.1804	17,753.9	60.1502	17,753.9	61.7547	17,753.9	56.8425	17,753.9	63.7389	17,753.9	61.9601	17,753.9	65.4894	17,753.9	65.4741	17,753.9	68.2372	17,753.9	66.8521	17,753.9	63.1888
18,377.9	82.8209	18,377.9	84.3172	18,377.9	82.5419	18,377.9	84.1586	18,377.9	84.63	18,377.9	80.6699	18,377.9	84.5979	18,377.9	77.196	18,377.9	81.2512	18,377.9	72.2389	18,377.9	77.2695	18,377.9	72.4934	18,377.9	74.7552	18,377.9	70.2167	18,377.9	71.2327	18,377.9	69.3968	18,377.9	71.8421	18,377.9	66.4489	18,377.9	67.3147	18,377.9	63.2713	18,377.9	49.0389	18,377.9	57.4668	18,377.9	63.6249	18,377.9	55.7282	18,377.9	56.6639	18,377.9	56.1285	18,377.9	59.1461	18,377.9	60.9548	18,377.9	57.1984	18,377.9	64.1767	18,377.9	61.9928	18,377.9	65.417	18,377.9	65.8693	18,377.9	69.4859	18,377.9	67.305	18,377.9	63.8181
19,028.3	82.969	19,028.3	84.349	19,028.3	82.4564	19,028.3	83.903	19,028.3	84.3308	19,028.3	79.7722	19,028.3	83.9881	19,028.3	76.2878	19,028.3	80.2714	19,028.3	70.8511	19,028.3	75.6519	19,028.3	70.5933	19,028.3	73.6763	19,028.3	69.0022	19,028.3	70.2918	19,028.3	68.9376	19,028.3	70.4288	19,028.3	67.6296	19,028.3	67.0999	19,028.3	61.7821	19,028.3	55.4409	19,028.3	56.3004	19,028.3	63.368	19,028.3	54.5196	19,028.3	58.0198	19,028.3	55.5197	19,028.3	59.272	19,028.3	61.6403	19,028.3	56.3524	19,028.3	63.4587	19,028.3	62.4304	19,028.3	65.0913	19,028.3	65.5872	19,028.3	69.8377	19,028.3	67.289	19,028.3	63.2236
19,699.2	83.7196	19,699.2	84.9655	19,699.2	82.9858	19,699.2	83.9778	19,699.2	84.6271	19,699.2	79.2718	19,699.2	83.7219	19,699.2	75.5665	19,699.2	79.5374	19,699.2	70.0049	19,699.2	74.3992	19,699.2	69.5812	19,699.2	72.7696	19,699.2	67.4185	19,699.2	69.1191	19,699.2	69.2013	19,699.2	68.7665	19,699.2	68.5476	19,699.2	67.6842	19,699.2	61.372	19,699.2	58.009	19,699.2	55.2025	19,699.2	62.4258	19,699.2	55.1118	19,699.2	58.4242	19,699.2	55.9868	19,699.2	59.4451	19,699.2	61.4393	19,699.2	56.2181	19,699.2	63.9576	19,699.2	62.7586	19,699.2	64.6722	19,699.2	65.6481	19,699.2	69.551	19,699.2	67.1742	19,699.2	62.2752
19,998	83.9473	19,998	84.9704	19,998	83.0121	19,998	83.8918	19,998	84.6809	19,998	79.1442	19,998	83.5159	19,998	74.9327	19,998	79.2898	19,998	69.3573	19,998	73.9372	19,998	69.6642	19,998	72.1498	19,998	66.4736	19,998	68.3289	19,998	68.9735	19,998	67.4804	19,998	68.2056	19,998	67.4282	19,998	62.5129	19,998	59.465	19,998	55.5811	19,998	61.9457	19,998	57.7035	19,998	57.605	19,998	55.1436	19,998	60.1736	19,998	63.4421	19,998	55.6461	19,998	63.3537	19,998	63.0764	19,998	64.0218	19,998	65.7827	19,998	69.0623	19,998	66.3336	19,998	63.1019
