"SPL Vertical"																																																																							
"On-Axis"		"10°"		"-10°"		"20°"		"-20°"		"30°"		"-30°"		"40°"		"-40°"		"50°"		"-50°"		"60°"		"-60°"		"70°"		"-70°"		"80°"		"-80°"		"90°"		"-90°"		"100°"		"-100°"		"110°"		"-110°"		"120°"		"-120°"		"130°"		"-130°"		"140°"		"-140°"		"150°"		"-150°"		"160°"		"-160°"		"170°"		"-170°"		"180°"	
"Frequency [Hz]"	"Sound Pessure Level [dB]  / [2.83V 1m] "	"Frequency [Hz]"	"Sound Pessure Level [dB]  / [2.83V 1m] "	"Frequency [Hz]"	"Sound Pessure Level [dB]  / [2.83V 1m] "	"Frequency [Hz]"	"Sound Pessure Level [dB]  / [2.83V 1m] "	"Frequency [Hz]"	"Sound Pessure Level [dB]  / [2.83V 1m] "	"Frequency [Hz]"	"Sound Pessure Level [dB]  / [2.83V 1m] "	"Frequency [Hz]"	"Sound Pessure Level [dB]  / [2.83V 1m] "	"Frequency [Hz]"	"Sound Pessure Level [dB]  / [2.83V 1m] "	"Frequency [Hz]"	"Sound Pessure Level [dB]  / [2.83V 1m] "	"Frequency [Hz]"	"Sound Pessure Level [dB]  / [2.83V 1m] "	"Frequency [Hz]"	"Sound Pessure Level [dB]  / [2.83V 1m] "	"Frequency [Hz]"	"Sound Pessure Level [dB]  / [2.83V 1m] "	"Frequency [Hz]"	"Sound Pessure Level [dB]  / [2.83V 1m] "	"Frequency [Hz]"	"Sound Pessure Level [dB]  / [2.83V 1m] "	"Frequency [Hz]"	"Sound Pessure Level [dB]  / [2.83V 1m] "	"Frequency [Hz]"	"Sound Pessure Level [dB]  / [2.83V 1m] "	"Frequency [Hz]"	"Sound Pessure Level [dB]  / [2.83V 1m] "	"Frequency [Hz]"	"Sound Pessure Level [dB]  / [2.83V 1m] "	"Frequency [Hz]"	"Sound Pessure Level [dB]  / [2.83V 1m] "	"Frequency [Hz]"	"Sound Pessure Level [dB]  / [2.83V 1m] "	"Frequency [Hz]"	"Sound Pessure Level [dB]  / [2.83V 1m] "	"Frequency [Hz]"	"Sound Pessure Level [dB]  / [2.83V 1m] "	"Frequency [Hz]"	"Sound Pessure Level [dB]  / [2.83V 1m] "	"Frequency [Hz]"	"Sound Pessure Level [dB]  / [2.83V 1m] "	"Frequency [Hz]"	"Sound Pessure Level [dB]  / [2.83V 1m] "	"Frequency [Hz]"	"Sound Pessure Level [dB]  / [2.83V 1m] "	"Frequency [Hz]"	"Sound Pessure Level [dB]  / [2.83V 1m] "	"Frequency [Hz]"	"Sound Pessure Level [dB]  / [2.83V 1m] "	"Frequency [Hz]"	"Sound Pessure Level [dB]  / [2.83V 1m] "	"Frequency [Hz]"	"Sound Pessure Level [dB]  / [2.83V 1m] "	"Frequency [Hz]"	"Sound Pessure Level [dB]  / [2.83V 1m] "	"Frequency [Hz]"	"Sound Pessure Level [dB]  / [2.83V 1m] "	"Frequency [Hz]"	"Sound Pessure Level [dB]  / [2.83V 1m] "	"Frequency [Hz]"	"Sound Pessure Level [dB]  / [2.83V 1m] "	"Frequency [Hz]"	"Sound Pessure Level [dB]  / [2.83V 1m] "	"Frequency [Hz]"	"Sound Pessure Level [dB]  / [2.83V 1m] "
20.5078	56.7749	20.5078	57.0992	20.5078	56.2591	20.5078	57.2216	20.5078	55.5554	20.5078	57.1223	20.5078	54.6659	20.5078	56.7712	20.5078	53.6037	20.5078	56.1277	20.5078	52.4262	20.5078	55.1498	20.5078	51.3102	20.5078	53.8378	20.5078	50.64	20.5078	52.4025	20.5078	50.8614	20.5078	51.6328	20.5078	51.9867	20.5078	52.4958	20.5078	53.5757	20.5078	54.5037	20.5078	55.2315	20.5078	56.6029	20.5078	56.7656	20.5078	58.3631	20.5078	58.1126	20.5078	59.7136	20.5078	59.2538	20.5078	60.6781	20.5078	60.1829	20.5078	61.2948	20.5078	60.8938	20.5078	61.5984	20.5078	61.3768	20.5078	61.6179
23.4375	59.8313	23.4375	60.082	23.4375	59.4439	23.4375	60.1758	23.4375	58.9483	23.4375	60.0969	23.4375	58.39	23.4375	59.8368	23.4375	57.8459	23.4375	59.4066	23.4375	57.4357	23.4375	58.8681	23.4375	57.3102	23.4375	58.3899	23.4375	57.588	23.4375	58.2794	23.4375	58.2754	23.4375	58.825	23.4375	59.2625	23.4375	59.9881	23.4375	60.4001	23.4375	61.4385	23.4375	61.5663	23.4375	62.8682	23.4375	62.6826	23.4375	64.1128	23.4375	63.7024	23.4375	65.1094	23.4375	64.5969	23.4375	65.843	23.4375	65.3459	23.4375	66.3187	23.4375	65.9323	23.4375	66.5494	23.4375	66.3394	23.4375	66.5507
26.3672	63.6236	26.3672	63.7806	26.3672	63.3998	26.3672	63.852	26.3672	63.139	26.3672	63.8304	26.3672	62.8837	26.3672	63.724	26.3672	62.6897	26.3672	63.5672	26.3672	62.622	26.3672	63.4342	26.3672	62.7409	26.3672	63.445	26.3672	63.081	26.3672	63.7341	26.3672	63.6366	26.3672	64.37	26.3672	64.364	26.3672	65.2947	26.3672	65.2002	26.3672	66.3615	26.3672	66.0824	26.3672	67.4214	26.3672	66.9575	26.3672	68.3698	26.3672	67.7846	26.3672	69.1481	26.3672	68.5318	26.3672	69.729	26.3672	69.1734	26.3672	70.1045	26.3672	69.6874	26.3672	70.2772	26.3672	70.0542	26.3672	70.256
29.2969	67.7995	29.2969	67.8989	29.2969	67.6989	29.2969	67.9879	29.2969	67.6139	29.2969	68.0664	29.2969	67.5662	29.2969	68.1458	29.2969	67.5806	29.2969	68.2511	29.2969	67.6811	29.2969	68.4199	29.2969	67.8861	29.2969	68.6956	29.2969	68.2043	29.2969	69.1115	29.2969	68.6321	29.2969	69.6725	29.2969	69.1543	29.2969	70.3477	29.2969	69.7468	29.2969	71.0789	29.2969	70.3813	29.2969	71.8004	29.2969	71.028	29.2969	72.4544	29.2969	71.6586	29.2969	72.9983	29.2969	72.2463	29.2969	73.4048	29.2969	72.7665	29.2969	73.6601	29.2969	73.1968	29.2969	73.7604	29.2969	73.5169	29.2969	73.7094
32.2266	71.3055	32.2266	71.3897	32.2266	71.2408	32.2266	71.4894	32.2266	71.2032	32.2266	71.6053	32.2266	71.2026	32.2266	71.7438	32.2266	71.2499	32.2266	71.9166	32.2266	71.3556	32.2266	72.1396	32.2266	71.5278	32.2266	72.4291	32.2266	71.7708	32.2266	72.7954	32.2266	72.0842	32.2266	73.2368	32.2266	72.4622	32.2266	73.7361	32.2266	72.894	32.2266	74.2629	32.2266	73.3644	32.2266	74.7795	32.2266	73.8554	32.2266	75.2484	32.2266	74.3468	32.2266	75.6381	32.2266	74.8171	32.2266	75.9253	32.2266	75.245	32.2266	76.0963	32.2266	75.6095	32.2266	76.1453	32.2266	75.8915	32.2266	76.0744
35.1563	73.9524	35.1563	74.0389	35.1563	73.891	35.1563	74.1485	35.1563	73.8582	35.1563	74.2814	35.1563	73.8587	35.1563	74.44	35.1563	73.8978	35.1563	74.629	35.1563	73.9804	35.1563	74.854	35.1563	74.1107	35.1563	75.1203	35.1563	74.2914	35.1563	75.4299	35.1563	74.5229	35.1563	75.7791	35.1563	74.8029	35.1563	76.1564	35.1563	75.1262	35.1563	76.5435	35.1563	75.4842	35.1563	76.9169	35.1563	75.8654	35.1563	77.2515	35.1563	76.2556	35.1563	77.5247	35.1563	76.6382	35.1563	77.7185	35.1563	76.9955	35.1563	77.821	35.1563	77.3092	35.1563	77.8272	35.1563	77.5619	35.1563	77.7385
38.0859	75.8158	38.0859	75.9094	38.0859	75.7478	38.0859	76.027	38.0859	75.7074	38.0859	76.168	38.0859	75.6974	38.0859	76.3324	38.0859	75.7203	38.0859	76.521	38.0859	75.7788	38.0859	76.7347	38.0859	75.8753	38.0859	76.9739	38.0859	76.0112	38.0859	77.2372	38.0859	76.187	38.0859	77.5199	38.0859	76.4017	38.0859	77.8137	38.0859	76.6522	38.0859	78.1058	38.0859	76.9336	38.0859	78.3803	38.0859	77.2381	38.0859	78.6201	38.0859	77.5557	38.0859	78.8087	38.0859	77.8737	38.0859	78.9327	38.0859	78.1776	38.0859	78.9832	38.0859	78.4522	38.0859	78.9563	38.0859	78.6821	38.0859	78.8537
41.0156	77.213	41.0156	77.3085	41.0156	77.1413	41.0156	77.4263	41.0156	77.0948	41.0156	77.565	41.0156	77.0752	41.0156	77.7234	41.0156	77.0838	41.0156	77.9003	41.0156	77.1222	41.0156	78.0943	41.0156	77.1913	41.0156	78.3035	41.0156	77.2921	41.0156	78.5249	41.0156	77.4248	41.0156	78.7538	41.0156	77.5888	41.0156	78.9834	41.0156	77.7825	41.0156	79.2044	41.0156	78.0028	41.0156	79.4055	41.0156	78.2447	41.0156	79.5746	41.0156	78.5012	41.0156	79.7	41.0156	78.7631	41.0156	79.7719	41.0156	79.019	41.0156	79.7841	41.0156	79.2564	41.0156	79.7343	41.0156	79.4624	41.0156	79.625
43.9453	78.2838	43.9453	78.3857	43.9453	78.2045	43.9453	78.5088	43.9453	78.1493	43.9453	78.651	43.9453	78.1192	43.9453	78.8102	43.9453	78.115	43.9453	78.9837	43.9453	78.1375	43.9453	79.1686	43.9453	78.187	43.9453	79.3616	43.9453	78.2638	43.9453	79.5585	43.9453	78.368	43.9453	79.7545	43.9453	78.4992	43.9453	79.9431	43.9453	78.6563	43.9453	80.1171	43.9453	78.8373	43.9453	80.2677	43.9453	79.0392	43.9453	80.3862	43.9453	79.2568	43.9453	80.4642	43.9453	79.4832	43.9453	80.4949	43.9453	79.7097	43.9453	80.4746	43.9453	79.9258	43.9453	80.4027	43.9453	80.1203	43.9453	80.2824
46.875	79.286	46.875	79.3922	46.875	79.2013	46.875	79.5179	46.875	79.1391	46.875	79.6609	46.875	79.1003	46.875	79.8181	46.875	79.0854	46.875	79.9863	46.875	79.0946	46.875	80.1615	46.875	79.1279	46.875	80.3393	46.875	79.1852	46.875	80.5151	46.875	79.2663	46.875	80.6834	46.875	79.3711	46.875	80.8388	46.875	79.4987	46.875	80.9748	46.875	79.6482	46.875	81.0851	46.875	79.8174	46.875	81.1631	46.875	80.0028	46.875	81.2033	46.875	80.1995	46.875	81.2015	46.875	80.4005	46.875	81.1558	46.875	80.5973	46.875	81.0673	46.875	80.7803	46.875	80.9399
49.8047	80.219	49.8047	80.3314	49.8047	80.1273	49.8047	80.4624	49.8047	80.0578	49.8047	80.6089	49.8047	80.0114	49.8047	80.7674	49.8047	79.9883	49.8047	80.9337	49.8047	79.9887	49.8047	81.103	49.8047	80.0121	49.8047	81.2705	49.8047	80.0581	49.8047	81.4309	49.8047	80.1262	49.8047	81.579	49.8047	80.2157	49.8047	81.7095	49.8047	80.3259	49.8047	81.8172	49.8047	80.4558	49.8047	81.8971	49.8047	80.6038	49.8047	81.9448	49.8047	80.7674	49.8047	81.9566	49.8047	80.9427	49.8047	81.9306	49.8047	81.1245	49.8047	81.8665	49.8047	81.3059	49.8047	81.7664	49.8047	81.4789	49.8047	81.635
52.7344	81.211	52.7344	81.3277	52.7344	81.1126	52.7344	81.4602	52.7344	81.0344	52.7344	81.6054	52.7344	80.9772	52.7344	81.7591	52.7344	80.9416	52.7344	81.9169	52.7344	80.9273	52.7344	82.0736	52.7344	80.9342	52.7344	82.2241	52.7344	80.9615	52.7344	82.3631	52.7344	81.0087	52.7344	82.4856	52.7344	81.0752	52.7344	82.5869	52.7344	81.1606	52.7344	82.6627	52.7344	81.2642	52.7344	82.7094	52.7344	81.3852	52.7344	82.7242	52.7344	81.5222	52.7344	82.7054	52.7344	81.6729	52.7344	82.6527	52.7344	81.8335	52.7344	82.5677	52.7344	81.9988	52.7344	82.4538	52.7344	82.1622	52.7344	82.3164
55.6641	82.062	55.6641	82.1833	55.6641	81.9574	55.6641	82.3186	55.6641	81.8716	55.6641	82.4642	55.6641	81.8056	55.6641	82.616	55.6641	81.7599	55.6641	82.7689	55.6641	81.7345	55.6641	82.9176	55.6641	81.729	55.6641	83.0568	55.6641	81.7427	55.6641	83.1811	55.6641	81.7751	55.6641	83.2857	55.6641	81.8255	55.6641	83.3661	55.6641	81.8935	55.6641	83.4188	55.6641	81.9789	55.6641	83.441	55.6641	82.0814	55.6641	83.4313	55.6641	82.2002	55.6641	83.3893	55.6641	82.334	55.6641	83.3161	55.6641	82.4803	55.6641	83.2146	55.6641	82.635	55.6641	83.0894	55.6641	82.7925	55.6641	82.9464
58.5938	82.854	58.5938	82.9768	58.5938	82.7467	58.5938	83.1122	58.5938	82.6569	58.5938	83.2564	58.5938	82.5859	58.5938	83.4049	58.5938	82.5341	58.5938	83.5526	58.5938	82.5016	58.5938	83.694	58.5938	82.4879	58.5938	83.8237	58.5938	82.4921	58.5938	83.9363	58.5938	82.5137	58.5938	84.027	58.5938	82.552	58.5938	84.0917	58.5938	82.6068	58.5938	84.1272	58.5938	82.6778	58.5938	84.1317	58.5938	82.7653	58.5938	84.1043	58.5938	82.869	58.5938	84.0458	58.5938	82.9884	58.5938	83.9584	58.5938	83.1218	58.5938	83.846	58.5938	83.2663	58.5938	83.714	58.5938	83.4172	58.5938	83.5688
61.5234	83.5326	61.5234	83.6571	61.5234	83.4226	61.5234	83.7929	61.5234	83.3294	61.5234	83.9362	61.5234	83.2543	61.5234	84.0822	61.5234	83.1978	61.5234	84.2256	61.5234	83.1598	61.5234	84.3607	61.5234	83.1397	61.5234	84.482	61.5234	83.1368	61.5234	84.5842	61.5234	83.1501	61.5234	84.6626	61.5234	83.1791	61.5234	84.7134	61.5234	83.2232	61.5234	84.7339	61.5234	83.2825	61.5234	84.7227	61.5234	83.3573	61.5234	84.68	61.5234	83.448	61.5234	84.6073	61.5234	83.5546	61.5234	84.508	61.5234	83.6762	61.5234	84.3868	61.5234	83.811	61.5234	84.2497	61.5234	83.9551	61.5234	84.1035
64.4531	84.0636	64.4531	84.1911	64.4531	83.9499	64.4531	84.329	64.4531	83.8524	64.4531	84.4731	64.4531	83.7726	64.4531	84.6185	64.4531	83.7113	64.4531	84.7597	64.4531	83.6682	64.4531	84.8911	64.4531	83.6429	64.4531	85.007	64.4531	83.6345	64.4531	85.102	64.4531	83.642	64.4531	85.1717	64.4531	83.6645	64.4531	85.2125	64.4531	83.7016	64.4531	85.2218	64.4531	83.7533	64.4531	85.1989	64.4531	83.82	64.4531	85.1444	64.4531	83.9023	64.4531	85.0606	64.4531	84.0007	64.4531	84.9514	64.4531	84.115	64.4531	84.8225	64.4531	84.2439	64.4531	84.6803	64.4531	84.3844	64.4531	84.5319
67.3828	84.4585	67.3828	84.5878	67.3828	84.3422	67.3828	84.7266	67.3828	84.2415	67.3828	84.8705	67.3828	84.158	67.3828	85.0146	67.3828	84.0924	67.3828	85.1532	67.3828	84.0447	67.3828	85.2806	67.3828	84.0144	67.3828	85.3912	67.3828	84.0004	67.3828	85.4798	67.3828	84.0018	67.3828	85.5419	67.3828	84.0178	67.3828	85.574	67.3828	84.048	67.3828	85.574	67.3828	84.0923	67.3828	85.5414	67.3828	84.1514	67.3828	85.4771	67.3828	84.2262	67.3828	85.3842	67.3828	84.3175	67.3828	85.267	67.3828	84.4257	67.3828	85.1316	67.3828	84.55	67.3828	84.985	67.3828	84.6877	67.3828	84.8347
70.3125	84.9285	70.3125	85.0632	70.3125	84.8054	70.3125	85.2057	70.3125	84.6969	70.3125	85.3509	70.3125	84.6053	70.3125	85.4938	70.3125	84.5317	70.3125	85.6284	70.3125	84.4762	70.3125	85.7492	70.3125	84.4384	70.3125	85.8506	70.3125	84.4174	70.3125	85.9277	70.3125	84.4122	70.3125	85.9764	70.3125	84.4216	70.3125	85.9938	70.3125	84.445	70.3125	85.9785	70.3125	84.4822	70.3125	85.9305	70.3125	84.5337	70.3125	85.8519	70.3125	84.6005	70.3125	85.7463	70.3125	84.6834	70.3125	85.6191	70.3125	84.7835	70.3125	85.4767	70.3125	84.9004	70.3125	85.3267	70.3125	85.0325	70.3125	85.1764
73.2422	85.3293	73.2422	85.466	73.2422	85.2024	73.2422	85.6086	73.2422	85.0887	73.2422	85.752	73.2422	84.9905	73.2422	85.891	73.2422	84.9091	73.2422	86.0198	73.2422	84.845	73.2422	86.1327	73.2422	84.7978	73.2422	86.2245	73.2422	84.7667	73.2422	86.2902	73.2422	84.7508	73.2422	86.3261	73.2422	84.7492	73.2422	86.3296	73.2422	84.7611	73.2422	86.2996	73.2422	84.7866	73.2422	86.2369	73.2422	84.8264	73.2422	86.1438	73.2422	84.8817	73.2422	86.0249	73.2422	84.9541	73.2422	85.886	73.2422	85.045	73.2422	85.7346	73.2422	85.1549	73.2422	85.5786	73.2422	85.2828	73.2422	85.4257
76.1719	85.6145	76.1719	85.7536	76.1719	85.4845	76.1719	85.8975	76.1719	85.367	76.1719	86.0411	76.1719	85.2646	76.1719	86.179	76.1719	85.1787	76.1719	86.3054	76.1719	85.1099	76.1719	86.4146	76.1719	85.0579	76.1719	86.5013	76.1719	85.0221	76.1719	86.5609	76.1719	85.0014	76.1719	86.5898	76.1719	84.9947	76.1719	86.5855	76.1719	85.0016	76.1719	86.5474	76.1719	85.022	76.1719	86.4764	76.1719	85.0566	76.1719	86.3754	76.1719	85.1068	76.1719	86.2492	76.1719	85.1744	76.1719	86.1042	76.1719	85.2609	76.1719	85.9482	76.1719	85.3673	76.1719	85.7892	76.1719	85.493	76.1719	85.6352
79.1016	85.895	79.1016	86.0357	79.1016	85.762	79.1016	86.1797	79.1016	85.6403	79.1016	86.3218	79.1016	85.5326	79.1016	86.4564	79.1016	85.4407	79.1016	86.5779	79.1016	85.3652	79.1016	86.6808	79.1016	85.3062	79.1016	86.7597	79.1016	85.263	79.1016	86.8103	79.1016	85.2345	79.1016	86.829	79.1016	85.2199	79.1016	86.814	79.1016	85.2186	79.1016	86.7645	79.1016	85.2305	79.1016	86.6822	79.1016	85.2565	79.1016	86.5703	79.1016	85.2981	79.1016	86.434	79.1016	85.3575	79.1016	86.2805	79.1016	85.4367	79.1016	86.118	79.1016	85.5373	79.1016	85.955	79.1016	85.659	79.1016	85.7998
82.0313	86.0501	82.0313	86.1922	82.0313	85.915	82.0313	86.3368	82.0313	85.7906	82.0313	86.4786	82.0313	85.6799	82.0313	86.612	82.0313	85.5847	82.0313	86.7314	82.0313	85.5057	82.0313	86.8312	82.0313	85.443	82.0313	86.9063	82.0313	85.3959	82.0313	86.9523	82.0313	85.3636	82.0313	86.9661	82.0313	85.345	82.0313	86.9456	82.0313	85.3396	82.0313	86.8908	82.0313	85.3476	82.0313	86.8031	82.0313	85.3697	82.0313	86.686	82.0313	85.4077	82.0313	86.5452	82.0313	85.4638	82.0313	86.3876	82.0313	85.5403	82.0313	86.2219	82.0313	85.6389	82.0313	86.0567	82.0313	85.7596	82.0313	85.9004
84.9609	86.0153	84.9609	86.1597	84.9609	85.8776	84.9609	86.306	84.9609	85.7507	84.9609	86.4489	84.9609	85.6376	84.9609	86.5827	84.9609	85.5403	84.9609	86.7016	84.9609	85.4598	84.9609	86.8003	84.9609	85.3962	84.9609	86.8737	84.9609	85.3488	84.9609	86.9178	84.9609	85.3167	84.9609	86.9295	84.9609	85.2987	84.9609	86.9071	84.9609	85.2943	84.9609	86.8506	84.9609	85.3033	84.9609	86.7615	84.9609	85.3265	84.9609	86.6436	84.9609	85.3655	84.9609	86.5023	84.9609	85.4223	84.9609	86.3447	84.9609	85.4992	84.9609	86.1792	84.9609	85.5978	84.9609	86.0145	84.9609	85.7183	84.9609	85.8587
87.8906	86.0565	87.8906	86.2039	87.8906	85.9144	87.8906	86.3516	87.8906	85.7822	87.8906	86.4941	87.8906	85.6631	87.8906	86.6254	87.8906	85.5597	87.8906	86.7399	87.8906	85.473	87.8906	86.8323	87.8906	85.4035	87.8906	86.8978	87.8906	85.3506	87.8906	86.9327	87.8906	85.3133	87.8906	86.9345	87.8906	85.2906	87.8906	86.9019	87.8906	85.2816	87.8906	86.8354	87.8906	85.2863	87.8906	86.7372	87.8906	85.3053	87.8906	86.6115	87.8906	85.34	87.8906	86.4639	87.8906	85.3925	87.8906	86.302	87.8906	85.4651	87.8906	86.1342	87.8906	85.5597	87.8906	85.969	87.8906	85.6767	87.8906	85.8144
90.8203	86.123	90.8203	86.2724	90.8203	85.9779	90.8203	86.4208	90.8203	85.8415	90.8203	86.5625	90.8203	85.7176	90.8203	86.6916	90.8203	85.6088	90.8203	86.8025	90.8203	85.5164	90.8203	86.8899	90.8203	85.4408	90.8203	86.9492	90.8203	85.3818	90.8203	86.977	90.8203	85.3383	90.8203	86.9707	90.8203	85.3095	90.8203	86.9295	90.8203	85.2944	90.8203	86.8541	90.8203	85.293	90.8203	86.7471	90.8203	85.306	90.8203	86.6129	90.8203	85.335	90.8203	86.4578	90.8203	85.3822	90.8203	86.2895	90.8203	85.4502	90.8203	86.1168	90.8203	85.5412	90.8203	85.9486	90.8203	85.6558	90.8203	85.7929
93.75	86.1354	93.75	86.2887	93.75	85.9862	93.75	86.4404	93.75	85.8458	93.75	86.5847	93.75	85.7182	93.75	86.7155	93.75	85.606	93.75	86.8272	93.75	85.511	93.75	86.9145	93.75	85.4337	93.75	86.9729	93.75	85.3735	93.75	86.999	93.75	85.3296	93.75	86.9907	93.75	85.3009	93.75	86.9473	93.75	85.2866	93.75	86.8698	93.75	85.2863	93.75	86.7608	93.75	85.3008	93.75	86.6248	93.75	85.3314	93.75	86.4681	93.75	85.3804	93.75	86.2985	93.75	85.4503	93.75	86.1245	93.75	85.543	93.75	85.955	93.75	85.6592	93.75	85.7978
96.6797	86.2265	96.6797	86.3837	96.6797	86.0718	96.6797	86.5376	96.6797	85.9249	96.6797	86.6822	96.6797	85.7902	96.6797	86.8113	96.6797	85.671	96.6797	86.9193	96.6797	85.5692	96.6797	87.0012	96.6797	85.4857	96.6797	87.0529	96.6797	85.4202	96.6797	87.0712	96.6797	85.372	96.6797	87.0546	96.6797	85.3398	96.6797	87.0027	96.6797	85.3227	96.6797	86.917	96.6797	85.3202	96.6797	86.8005	96.6797	85.3327	96.6797	86.6581	96.6797	85.3615	96.6797	86.4963	96.6797	85.4087	96.6797	86.323	96.6797	85.4767	96.6797	86.1468	96.6797	85.5675	96.6797	85.9764	96.6797	85.6821	96.6797	85.8195
102.539	86.2814	102.539	86.4489	102.539	86.1137	102.539	86.6101	102.539	85.9518	102.539	86.7585	102.539	85.8006	102.539	86.8881	102.539	85.6644	102.539	86.9931	102.539	85.5457	102.539	87.069	102.539	85.4462	102.539	87.1118	102.539	85.3663	102.539	87.1191	102.539	85.3055	102.539	87.0896	102.539	85.2631	102.539	87.0238	102.539	85.2382	102.539	86.9238	102.539	85.2305	102.539	86.7931	102.539	85.2402	102.539	86.6371	102.539	85.2685	102.539	86.4626	102.539	85.317	102.539	86.2777	102.539	85.3879	102.539	86.0913	102.539	85.4831	102.539	85.9119	102.539	85.6032	102.539	85.7473
105.469	86.2384	105.469	86.4102	105.469	86.0651	105.469	86.5742	105.469	85.8963	105.469	86.7239	105.469	85.7377	105.469	86.8533	105.469	85.5935	105.469	86.9571	105.469	85.4671	105.469	87.0307	105.469	85.3605	105.469	87.0707	105.469	85.2744	105.469	87.0748	105.469	85.2088	105.469	87.0422	105.469	85.1631	105.469	86.9734	105.469	85.1366	105.469	86.8707	105.469	85.129	105.469	86.7377	105.469	85.1404	105.469	86.5795	105.469	85.1717	105.469	86.4028	105.469	85.2244	105.469	86.2155	105.469	85.3001	105.469	86.0261	105.469	85.4004	105.469	85.8432	105.469	85.5257	105.469	85.6745
108.398	86.1591	108.398	86.3301	108.398	85.9851	108.398	86.4918	108.398	85.8144	108.398	86.6378	108.398	85.6526	108.398	86.7624	108.398	85.5043	108.398	86.8604	108.398	85.3732	108.398	86.9276	108.398	85.2616	108.398	86.9609	108.398	85.1706	108.398	86.9586	108.398	85.1005	108.398	86.9202	108.398	85.0509	108.398	86.8467	108.398	85.0214	108.398	86.7406	108.398	85.0115	108.398	86.6057	108.398	85.0216	108.398	86.4471	108.398	85.0522	108.398	86.2713	108.398	85.1045	108.398	86.0858	108.398	85.1801	108.398	85.8987	108.398	85.2799	108.398	85.7181	108.398	85.4042	108.398	85.5514
111.328	86.1726	111.328	86.3418	111.328	85.9996	111.328	86.5007	111.328	85.8291	111.328	86.6431	111.328	85.667	111.328	86.7631	111.328	85.5181	111.328	86.8558	111.328	85.3861	111.328	86.9172	111.328	85.2737	111.328	86.9445	111.328	85.182	111.328	86.9365	111.328	85.1114	111.328	86.893	111.328	85.0615	111.328	86.8156	111.328	85.0318	111.328	86.707	111.328	85.0218	111.328	86.5714	111.328	85.0314	111.328	86.4141	111.328	85.0613	111.328	86.2412	111.328	85.1122	111.328	86.0602	111.328	85.1853	111.328	85.8786	111.328	85.2817	111.328	85.7041	111.328	85.4015	111.328	85.5433
117.188	86.2669	117.188	86.4383	117.188	86.0904	117.188	86.5978	117.188	85.9154	117.188	86.739	117.188	85.7481	117.188	86.856	117.188	85.5939	117.188	86.944	117.188	85.4569	117.188	86.9994	117.188	85.34	117.188	87.0196	117.188	85.2448	117.188	87.0039	117.188	85.1717	117.188	86.9528	117.188	85.1206	117.188	86.8686	117.188	85.0908	117.188	86.7546	117.188	85.0816	117.188	86.6154	117.188	85.0928	117.188	86.4565	117.188	85.1241	117.188	86.2842	117.188	85.1761	117.188	86.1054	117.188	85.2495	117.188	85.9274	117.188	85.3449	117.188	85.7571	117.188	85.4623	117.188	85.6006
120.117	86.2958	120.117	86.4695	120.117	86.116	120.117	86.6304	120.117	85.9371	120.117	86.7718	120.117	85.7656	120.117	86.8882	120.117	85.6072	120.117	86.9746	120.117	85.4662	120.117	87.0277	120.117	85.346	120.117	87.0452	120.117	85.2483	120.117	87.0267	120.117	85.1737	120.117	86.973	120.117	85.1223	120.117	86.8866	120.117	85.0932	120.117	86.7712	120.117	85.0858	120.117	86.6314	120.117	85.0995	120.117	86.4726	120.117	85.134	120.117	86.3011	120.117	85.1893	120.117	86.1236	120.117	85.2656	120.117	85.9468	120.117	85.3633	120.117	85.7774	120.117	85.4822	120.117	85.6212
125.977	86.0904	125.977	86.2651	125.977	85.9076	125.977	86.4246	125.977	85.7242	125.977	86.5623	125.977	85.547	125.977	86.6726	125.977	85.3826	125.977	86.7511	125.977	85.2361	125.977	86.7948	125.977	85.1112	125.977	86.8023	125.977	85.0104	125.977	86.7741	125.977	84.9346	125.977	86.7121	125.977	84.884	125.977	86.6199	125.977	84.8577	125.977	86.5018	125.977	84.8549	125.977	86.3631	125.977	84.8741	125.977	86.209	125.977	84.9144	125.977	86.0452	125.977	84.9748	125.977	85.8773	125.977	85.0545	125.977	85.711	125.977	85.153	125.977	85.5514	125.977	85.2696	125.977	85.4032
128.906	86.0723	128.906	86.2489	128.906	85.8864	128.906	86.4088	128.906	85.6986	128.906	86.5454	128.906	85.5163	128.906	86.6531	128.906	85.3463	128.906	86.7276	128.906	85.1939	128.906	86.7662	128.906	85.0635	128.906	86.7679	128.906	84.9576	128.906	86.7333	128.906	84.8778	128.906	86.6649	128.906	84.8242	128.906	86.5668	128.906	84.7962	128.906	86.4439	128.906	84.7927	128.906	86.3015	128.906	84.8124	128.906	86.1454	128.906	84.8537	128.906	85.9809	128.906	84.9153	128.906	85.8135	128.906	84.996	128.906	85.6485	128.906	85.095	128.906	85.4906	128.906	85.2113	128.906	85.3439
134.766	86.1706	134.766	86.3478	134.766	85.9822	134.766	86.5063	134.766	85.7906	134.766	86.6394	134.766	85.6035	134.766	86.7415	134.766	85.4281	134.766	86.8085	134.766	85.2704	134.766	86.838	134.766	85.1351	134.766	86.8295	134.766	85.0252	134.766	86.7845	134.766	84.9426	134.766	86.7065	134.766	84.8876	134.766	86.6005	134.766	84.8597	134.766	86.4721	134.766	84.8576	134.766	86.3274	134.766	84.8796	134.766	86.1723	134.766	84.9233	134.766	86.0119	134.766	84.9868	134.766	85.851	134.766	85.0681	134.766	85.6939	134.766	85.1656	134.766	85.5442	134.766	85.2783	134.766	85.4049
137.695	86.1236	137.695	86.3032	137.695	85.9318	137.695	86.4627	137.695	85.7359	137.695	86.5953	137.695	85.5442	137.695	86.6952	137.695	85.3642	137.695	86.7585	137.695	85.2024	137.695	86.7829	137.695	85.0638	137.695	86.7683	137.695	84.9517	137.695	86.7168	137.695	84.8681	137.695	86.6324	137.695	84.8134	137.695	86.5208	137.695	84.787	137.695	86.3885	137.695	84.7874	137.695	86.242	137.695	84.8124	137.695	86.0872	137.695	84.8593	137.695	85.9292	137.695	84.9253	137.695	85.7723	137.695	85.0082	137.695	85.62	137.695	85.1058	137.695	85.4753	137.695	85.2169	137.695	85.3404
143.555	85.9464	143.555	86.1317	143.555	85.7458	143.555	86.2936	143.555	85.5387	143.555	86.4248	143.555	85.3344	143.555	86.5197	143.555	85.141	143.555	86.5744	143.555	84.9663	143.555	86.5872	143.555	84.8159	143.555	86.5586	143.555	84.6943	143.555	86.4915	143.555	84.6038	143.555	86.3914	143.555	84.5454	143.555	86.2651	143.555	84.5182	143.555	86.1206	143.555	84.5205	143.555	85.9655	143.555	84.5492	143.555	85.8064	143.555	84.6007	143.555	85.6484	143.555	84.671	143.555	85.495	143.555	84.7566	143.555	85.3486	143.555	84.8547	143.555	85.2108	143.555	84.9635	143.555	85.0823
149.414	85.9738	149.414	86.1648	149.414	85.7638	149.414	86.3284	149.414	85.5443	149.414	86.4574	149.414	85.3248	149.414	86.5461	149.414	85.1148	149.414	86.5909	149.414	84.9227	149.414	86.5902	149.414	84.7557	149.414	86.5452	149.414	84.6192	149.414	86.4594	149.414	84.5165	149.414	86.3393	149.414	84.4492	149.414	86.1931	149.414	84.4168	149.414	86.0302	149.414	84.417	149.414	85.8597	149.414	84.4461	149.414	85.6893	149.414	84.4991	149.414	85.5246	149.414	84.5708	149.414	85.3693	149.414	84.6564	149.414	85.2251	149.414	84.7525	149.414	85.0923	149.414	84.857	149.414	84.97
155.273	86.0254	155.273	86.2228	155.273	85.8058	155.273	86.3899	155.273	85.5733	155.273	86.5195	155.273	85.3378	155.273	86.6061	155.273	85.1087	155.273	86.6464	155.273	84.8953	155.273	86.639	155.273	84.7056	155.273	86.5851	155.273	84.5461	155.273	86.4886	155.273	84.4216	155.273	86.3563	155.273	84.3352	155.273	86.1967	155.273	84.2874	155.273	86.0196	155.273	84.2769	155.273	85.8342	155.273	84.3	155.273	85.6486	155.273	84.3515	155.273	85.4687	155.273	84.4254	155.273	85.2982	155.273	84.5162	155.273	85.1392	155.273	84.6197	155.273	84.9925	155.273	84.7336	155.273	84.8577
158.203	86.0126	158.203	86.2087	158.203	85.7941	158.203	86.3739	158.203	85.5623	158.203	86.5014	158.203	85.3271	158.203	86.5857	158.203	85.0981	158.203	86.6238	158.203	84.8847	158.203	86.6145	158.203	84.6949	158.203	86.5595	158.203	84.5357	158.203	86.4633	158.203	84.4122	158.203	86.3331	158.203	84.3277	158.203	86.1779	158.203	84.2833	158.203	86.0075	158.203	84.2776	158.203	85.8312	158.203	84.307	158.203	85.656	158.203	84.3658	158.203	85.4868	158.203	84.4475	158.203	85.3261	158.203	84.5458	158.203	85.1749	158.203	84.6557	158.203	85.033	158.203	84.774	158.203	84.8997
164.063	86.1048	164.063	86.2995	164.063	85.8851	164.063	86.4606	164.063	85.6501	164.063	86.5811	164.063	85.4099	164.063	86.6556	164.063	85.175	164.063	86.681	164.063	84.9551	164.063	86.6566	164.063	84.7591	164.063	86.5848	164.063	84.5947	164.063	86.4711	164.063	84.4677	164.063	86.3244	164.063	84.3819	164.063	86.1557	164.063	84.3388	164.063	85.977	164.063	84.3369	164.063	85.7989	164.063	84.3719	164.063	85.6294	164.063	84.437	164.063	85.4727	164.063	84.5241	164.063	85.3294	164.063	84.6252	164.063	85.1981	164.063	84.7336	164.063	85.0757	164.063	84.8453	164.063	84.959
169.922	86.0363	169.922	86.2355	169.922	85.8106	169.922	86.3993	169.922	85.5685	169.922	86.5201	169.922	85.3207	169.922	86.5924	169.922	85.0781	169.922	86.6129	169.922	84.8512	169.922	86.5809	169.922	84.6495	169.922	86.499	169.922	84.4813	169.922	86.3734	169.922	84.3534	169.922	86.2141	169.922	84.2699	169.922	86.0338	169.922	84.2325	169.922	85.8463	169.922	84.2392	169.922	85.664	169.922	84.2846	169.922	85.4959	169.922	84.3603	169.922	85.3461	169.922	84.4565	169.922	85.2143	169.922	84.5632	169.922	85.0971	169.922	84.6727	169.922	84.9892	169.922	84.7804	169.922	84.8851
175.781	85.9226	175.781	86.1293	175.781	85.6842	175.781	86.2951	175.781	85.425	175.781	86.4124	175.781	85.1566	175.781	86.4757	175.781	84.8912	175.781	86.4817	175.781	84.641	175.781	86.4303	175.781	84.4177	175.781	86.3249	175.781	84.2319	175.781	86.1732	175.781	84.0923	175.781	85.9874	175.781	84.0047	175.781	85.7832	175.781	83.9712	175.781	85.5779	175.781	83.9893	175.781	85.3869	175.781	84.0515	175.781	85.2205	175.781	84.1465	175.781	85.0825	175.781	84.261	175.781	84.9699	175.781	84.3821	175.781	84.8753	175.781	84.4992	175.781	84.7889	175.781	84.6061	175.781	84.7015
181.641	85.9413	181.641	86.1534	181.641	85.6925	181.641	86.3196	181.641	85.4175	181.641	86.432	181.641	85.1281	181.641	86.4848	181.641	84.8364	181.641	86.4741	181.641	84.5552	181.641	86.399	181.641	84.2976	181.641	86.2623	181.641	84.0759	181.641	86.0716	181.641	83.9017	181.641	85.8398	181.641	83.7837	181.641	85.5852	181.641	83.7264	181.641	85.3293	181.641	83.7284	181.641	85.0932	181.641	83.782	181.641	84.8928	181.641	83.8736	181.641	84.7354	181.641	83.987	181.641	84.6184	181.641	84.1056	181.641	84.5317	181.641	84.2165	181.641	84.4609	181.641	84.312	181.641	84.3915
190.43	86.1899	190.43	86.4133	190.43	85.9258	190.43	86.5871	190.43	85.6304	190.43	86.7037	190.43	85.314	190.43	86.7565	190.43	84.9874	190.43	86.7405	190.43	84.6616	190.43	86.653	190.43	84.349	190.43	86.494	190.43	84.0625	190.43	86.2678	190.43	83.8162	190.43	85.9843	190.43	83.6231	190.43	85.6592	190.43	83.4931	190.43	85.3148	190.43	83.4301	190.43	84.9767	190.43	83.4294	190.43	84.6701	190.43	83.4783	190.43	84.4142	190.43	83.5589	190.43	84.2175	190.43	83.652	190.43	84.076	190.43	83.7427	190.43	83.9758	190.43	83.8238	190.43	83.8976
196.289	86.2046	196.289	86.4297	196.289	85.9397	196.289	86.6064	196.289	85.6445	196.289	86.7268	196.289	85.3291	196.289	86.7845	196.289	85.0035	196.289	86.7745	196.289	84.6779	196.289	86.6937	196.289	84.3633	196.289	86.5419	196.289	84.0715	196.289	86.3222	196.289	83.8153	196.289	86.0427	196.289	83.6078	196.289	85.7173	196.289	83.4596	196.289	85.3656	196.289	83.3763	196.289	85.0117	196.289	83.3553	196.289	84.6804	196.289	83.3857	196.289	84.3932	196.289	83.4507	196.289	84.163	196.289	83.5321	196.289	83.9911	196.289	83.6157	196.289	83.8675	196.289	83.6954	196.289	83.775
202.148	86.181	202.148	86.4029	202.148	85.9177	202.148	86.5749	202.148	85.6226	202.148	86.6899	202.148	85.3055	202.148	86.7418	202.148	84.9765	202.148	86.7264	202.148	84.646	202.148	86.6414	202.148	84.3245	202.148	86.4868	202.148	84.0236	202.148	86.2662	202.148	83.756	202.148	85.9879	202.148	83.5348	202.148	85.665	202.148	83.3717	202.148	85.316	202.148	83.2734	202.148	84.9633	202.148	83.2391	202.148	84.6299	202.148	83.2593	202.148	84.336	202.148	83.3183	202.148	84.0947	202.148	83.3983	202.148	83.9086	202.148	83.4852	202.148	83.7698	202.148	83.5724	202.148	83.6633
210.938	86.1681	210.938	86.3849	210.938	85.9132	210.938	86.5551	210.938	85.6292	210.938	86.6711	210.938	85.3253	210.938	86.7265	210.938	85.0107	210.938	86.7164	210.938	84.6941	210.938	86.6372	210.938	84.3851	210.938	86.4881	210.938	84.0938	210.938	86.2711	210.938	83.8324	210.938	85.9927	210.938	83.6134	210.938	85.6646	210.938	83.4483	210.938	85.3038	210.938	83.344	210.938	84.9327	210.938	83.2996	210.938	84.5764	210.938	83.3055	210.938	84.2595	210.938	83.3459	210.938	84.0009	210.938	83.4029	210.938	83.8086	210.938	83.4634	210.938	83.6766	210.938	83.5228	210.938	83.5883
216.797	86.0007	216.797	86.236	216.797	85.7295	216.797	86.4252	216.797	85.4335	216.797	86.5596	216.797	85.1243	216.797	86.6327	216.797	84.8126	216.797	86.6401	216.797	84.5081	216.797	86.5794	216.797	84.2198	216.797	86.4512	216.797	83.9567	216.797	86.2593	216.797	83.7283	216.797	86.0114	216.797	83.545	216.797	85.719	216.797	83.4153	216.797	85.3976	216.797	83.3441	216.797	85.0656	216.797	83.329	216.797	84.7429	216.797	83.3602	216.797	84.4489	216.797	83.4224	216.797	84.1992	216.797	83.4995	216.797	84.0021	216.797	83.5797	216.797	83.8553	216.797	83.6598	216.797	83.7468
225.586	85.9643	225.586	86.2224	225.586	85.6569	225.586	86.4208	225.586	85.3134	225.586	86.5518	225.586	84.949	225.586	86.6104	225.586	84.5803	225.586	86.5941	225.586	84.224	225.586	86.5029	225.586	83.896	225.586	86.3399	225.586	83.6108	225.586	86.1118	225.586	83.3814	225.586	85.83	225.586	83.2181	225.586	85.5103	225.586	83.1267	225.586	85.1724	225.586	83.1066	225.586	84.838	225.586	83.1482	225.586	84.5287	225.586	83.2348	225.586	84.2628	225.586	83.3447	225.586	84.052	225.586	83.4573	225.586	83.8982	225.586	83.5574	225.586	83.7914	225.586	83.6403	225.586	83.7126
234.375	86.2643	234.375	86.4977	234.375	85.9737	234.375	86.6675	234.375	85.6346	234.375	86.7692	234.375	85.2581	234.375	86.7999	234.375	84.8585	234.375	86.7582	234.375	84.4528	234.375	86.6443	234.375	84.0615	234.375	86.4609	234.375	83.7075	234.375	86.2138	234.375	83.4146	234.375	85.9128	234.375	83.2032	234.375	85.5725	234.375	83.0856	234.375	85.2118	234.375	83.0612	234.375	84.8532	234.375	83.1155	234.375	84.5205	234.375	83.2228	234.375	84.2359	234.375	83.3528	234.375	84.0157	234.375	83.4779	234.375	83.864	234.375	83.5797	234.375	83.7698	234.375	83.6533	234.375	83.7091
240.234	85.9755	240.234	86.1992	240.234	85.7002	240.234	86.3638	240.234	85.3822	240.234	86.4637	240.234	85.0325	240.234	86.4951	240.234	84.6636	240.234	86.4562	240.234	84.2905	240.234	86.3475	240.234	83.9309	240.234	86.1724	240.234	83.6055	240.234	85.9383	240.234	83.3369	240.234	85.6569	240.234	83.1462	240.234	85.3442	240.234	83.047	240.234	85.0194	240.234	83.0404	240.234	84.7028	240.234	83.1121	240.234	84.4144	240.234	83.2354	240.234	84.1716	240.234	83.3785	240.234	83.9868	240.234	83.5124	240.234	83.8623	240.234	83.618	240.234	83.7873	240.234	83.6901	240.234	83.7391
249.023	86.0344	249.023	86.2586	249.023	85.7498	249.023	86.416	249.023	85.4134	249.023	86.5021	249.023	85.0361	249.023	86.5139	249.023	84.6318	249.023	86.4503	249.023	84.2178	249.023	86.3121	249.023	83.8156	249.023	86.1033	249.023	83.4506	249.023	85.8316	249.023	83.1506	249.023	85.5099	249.023	82.9407	249.023	85.1562	249.023	82.8363	249.023	84.7929	249.023	82.8366	249.023	84.4442	249.023	82.9229	249.023	84.1346	249.023	83.0628	249.023	83.8849	249.023	83.219	249.023	83.7087	249.023	83.3587	249.023	83.6061	249.023	83.4602	249.023	83.5606	249.023	83.5176	249.023	83.5423
257.813	86.0476	257.813	86.2695	257.813	85.7645	257.813	86.4246	257.813	85.4267	257.813	86.5086	257.813	85.0428	257.813	86.5187	257.813	84.6233	257.813	86.454	257.813	84.1835	257.813	86.316	257.813	83.7449	257.813	86.1092	257.813	83.3374	257.813	85.8421	257.813	82.9976	257.813	85.5281	257.813	82.7623	257.813	85.1845	257.813	82.6569	257.813	84.8319	257.813	82.6828	257.813	84.492	257.813	82.8151	257.813	84.187	257.813	83.0095	257.813	83.9383	257.813	83.2171	257.813	83.7622	257.813	83.3966	257.813	83.6624	257.813	83.5225	257.813	83.6234	257.813	83.5893	257.813	83.6122
266.602	85.9917	266.602	86.1769	266.602	85.743	266.602	86.2954	266.602	85.4342	266.602	86.3445	266.602	85.0697	266.602	86.3222	266.602	84.6568	266.602	86.2282	266.602	84.208	266.602	86.0644	266.602	83.7448	266.602	85.8366	266.602	83.3003	266.602	85.5556	266.602	82.9185	266.602	85.2369	266.602	82.6473	266.602	84.9002	266.602	82.5225	266.602	84.5663	266.602	82.551	266.602	84.2549	266.602	82.7051	266.602	83.9846	266.602	82.9321	266.602	83.7735	266.602	83.173	266.602	83.6361	266.602	83.3782	266.602	83.5746	266.602	83.517	266.602	83.5711	266.602	83.5818	266.602	83.5881
278.32	85.9406	278.32	86.1892	278.32	85.6382	278.32	86.3676	278.32	85.2984	278.32	86.4626	278.32	84.9352	278.32	86.4653	278.32	84.5577	278.32	86.3707	278.32	84.1706	278.32	86.1784	278.32	83.7791	278.32	85.8933	278.32	83.3955	278.32	85.5277	278.32	83.0445	278.32	85.1031	278.32	82.7625	278.32	84.6517	278.32	82.588	278.32	84.214	278.32	82.5446	278.32	83.8316	278.32	82.6266	278.32	83.5385	278.32	82.7979	278.32	83.3534	278.32	83.0054	278.32	83.2752	278.32	83.1965	278.32	83.282	278.32	83.3322	278.32	83.3346	278.32	83.3938	278.32	83.3859
287.109	86.0432	287.109	86.313	287.109	85.6988	287.109	86.4965	287.109	85.2958	287.109	86.5864	287.109	84.8527	287.109	86.5792	287.109	84.3882	287.109	86.4744	287.109	83.9198	287.109	86.2738	287.109	83.4651	287.109	85.9819	287.109	83.0461	287.109	85.6072	287.109	82.693	287.109	85.1641	287.109	82.4422	287.109	84.6746	287.109	82.326	287.109	84.1684	287.109	82.355	287.109	83.6835	287.109	82.507	287.109	83.2665	287.109	82.7314	287.109	82.9673	287.109	82.9647	287.109	82.8239	287.109	83.1481	287.109	82.8373	287.109	83.2399	287.109	82.9601	287.109	83.2236	287.109	83.114
295.898	86.2009	295.898	86.4565	295.898	85.8547	295.898	86.6197	295.898	85.4243	295.898	86.6911	295.898	84.922	295.898	86.6724	295.898	84.3673	295.898	86.5654	295.898	83.7872	295.898	86.3722	295.898	83.217	295.898	86.0965	295.898	82.6998	295.898	85.7455	295.898	82.2846	295.898	85.3307	295.898	82.0181	295.898	84.868	295.898	81.9277	295.898	84.3757	295.898	82.0058	295.898	83.8744	295.898	82.206	295.898	83.3909	295.898	82.4578	295.898	82.967	295.898	82.6881	295.898	82.6596	295.898	82.8386	295.898	82.5168	295.898	82.8771	295.898	82.5395	295.898	82.8056	295.898	82.6665
307.617	86.3995	307.617	86.6125	307.617	86.1167	307.617	86.7512	307.617	85.7658	307.617	86.8099	307.617	85.346	307.617	86.7835	307.617	84.8559	307.617	86.6686	307.617	84.2988	307.617	86.465	307.617	83.6894	307.617	86.1764	307.617	83.0622	307.617	85.8122	307.617	82.4771	307.617	85.3887	307.617	82.014	307.617	84.9296	307.617	81.7481	307.617	84.4637	307.617	81.7107	307.617	84.0212	307.617	81.8681	307.617	83.6315	307.617	82.1399	307.617	83.3214	307.617	82.4378	307.617	83.1113	307.617	82.6937	307.617	83.004	307.617	82.8696	307.617	82.9757	307.617	82.9578	307.617	82.9787
319.336	86.2665	319.336	86.4828	319.336	85.9629	319.336	86.6067	319.336	85.5793	319.336	86.636	319.336	85.1236	319.336	86.5718	319.336	84.6034	319.336	86.4183	319.336	84.0286	319.336	86.182	319.336	83.417	319.336	85.8725	319.336	82.8037	319.336	85.5032	319.336	82.2489	319.336	85.0912	319.336	81.8346	319.336	84.6551	319.336	81.637	319.336	84.2121	319.336	81.6837	319.336	83.7784	319.336	81.9309	319.336	83.3765	319.336	82.2843	319.336	83.0457	319.336	82.6415	319.336	82.8376	319.336	82.9217	319.336	82.7851	319.336	83.0762	319.336	82.8652	319.336	83.0925	319.336	82.9991
331.055	86.3511	331.055	86.5	331.055	86.125	331.055	86.5703	331.055	85.8215	331.055	86.5596	331.055	85.438	331.055	86.4667	331.055	84.9696	331.055	86.2911	331.055	84.413	331.055	86.0347	331.055	83.7741	331.055	85.7029	331.055	83.0796	331.055	85.3067	331.055	82.3902	331.055	84.8633	331.055	81.8059	331.055	84.3941	331.055	81.4422	331.055	83.9189	331.055	81.3698	331.055	83.4528	331.055	81.5597	331.055	83.0131	331.055	81.8985	331.055	82.6343	331.055	82.2538	331.055	82.3729	331.055	82.5235	331.055	82.2788	331.055	82.6515	331.055	82.3464	331.055	82.6297	331.055	82.4992
342.773	85.806	342.773	86.0125	342.773	85.5263	342.773	86.1351	342.773	85.1837	342.773	86.165	342.773	84.7844	342.773	86.0971	342.773	84.3292	342.773	85.9306	342.773	83.8163	342.773	85.6698	342.773	83.2497	342.773	85.3257	342.773	82.6532	342.773	84.9195	342.773	82.0846	342.773	84.4831	342.773	81.6379	342.773	84.055	342.773	81.4157	342.773	83.6685	342.773	81.4698	342.773	83.3413	342.773	81.7593	342.773	83.0789	342.773	82.173	342.773	82.8905	342.773	82.5899	342.773	82.798	342.773	82.9185	342.773	82.8177	342.773	83.1078	342.773	82.929	342.773	83.1474	342.773	83.0663
354.492	86.2671	354.492	86.4726	354.492	85.9678	354.492	86.5771	354.492	85.5825	354.492	86.5751	354.492	85.1165	354.492	86.4632	354.492	84.5714	354.492	86.2392	354.492	83.947	354.492	85.9024	354.492	83.2492	354.492	85.4547	354.492	82.5054	354.492	84.9048	354.492	81.7837	354.492	84.274	354.492	81.2022	354.492	83.5995	354.492	80.898	354.492	82.9341	354.492	80.9443	354.492	82.3405	354.492	81.2859	354.492	81.8861	354.492	81.775	354.492	81.6382	354.492	82.2578	354.492	81.6403	354.492	82.6227	354.492	81.8696	354.492	82.8048	354.492	82.2234	354.492	82.7799	354.492	82.5647
366.211	86.2391	366.211	86.4655	366.211	85.9237	366.211	86.5947	366.211	85.5266	366.211	86.6206	366.211	85.0512	366.211	86.5395	366.211	84.4947	366.211	86.3505	366.211	83.8508	366.211	86.0549	366.211	83.1193	366.211	85.6559	366.211	82.3239	366.211	85.1601	366.211	81.5357	366.211	84.5777	366.211	80.8874	366.211	83.9212	366.211	80.5392	366.211	83.2012	366.211	80.5762	366.211	82.4304	366.211	80.9272	366.211	81.6466	366.211	81.4147	366.211	80.9573	366.211	81.8622	366.211	80.553	366.211	82.1453	366.211	80.588	366.211	82.1926	366.211	80.9989	366.211	81.9793	366.211	81.5398
377.93	86.7691	377.93	86.9903	377.93	86.4369	377.93	87.0997	377.93	85.9962	377.93	87.0994	377.93	85.4475	377.93	86.9952	377.93	84.7865	377.93	86.7951	377.93	84.0047	377.93	86.5079	377.93	83.0992	377.93	86.1419	377.93	82.0935	377.93	85.7054	377.93	81.0743	377.93	85.2058	377.93	80.2268	377.93	84.6463	377.93	79.7964	377.93	84.0223	377.93	79.9085	377.93	83.323	377.93	80.4288	377.93	82.5546	377.93	81.0885	377.93	81.7858	377.93	81.6665	377.93	81.1882	377.93	82.0352	377.93	80.9688	377.93	82.1364	377.93	81.1685	377.93	81.9655	377.93	81.5872
392.578	86.5998	392.578	86.6398	392.578	86.4712	392.578	86.5968	392.578	86.2454	392.578	86.4763	392.578	85.9087	392.578	86.2853	392.578	85.4409	392.578	86.0335	392.578	84.8182	392.578	85.7337	392.578	84.02	392.578	85.403	392.578	83.043	392.578	85.0637	392.578	81.9287	392.578	84.7385	392.578	80.8059	392.578	84.437	392.578	79.9234	392.578	84.1389	392.578	79.5595	392.578	83.7931	392.578	79.7738	392.578	83.3447	392.578	80.3322	392.578	82.7817	392.578	80.9347	392.578	82.1789	392.578	81.3866	392.578	81.6968	392.578	81.6086	392.578	81.4797	392.578	81.6147	392.578	81.51
407.227	86.2021	407.227	86.2957	407.227	86.029	407.227	86.2994	407.227	85.7835	407.227	86.2056	407.227	85.4624	407.227	86.0102	407.227	85.0471	407.227	85.7129	407.227	84.5064	407.227	85.3173	407.227	83.8085	407.227	84.8357	407.227	82.9412	407.227	84.2981	407.227	81.9419	407.227	83.7591	407.227	80.9405	407.227	83.2862	407.227	80.1841	407.227	82.9223	407.227	79.938	407.227	82.6527	407.227	80.2486	407.227	82.4265	407.227	80.8882	407.227	82.2209	407.227	81.5749	407.227	82.0814	407.227	82.1237	407.227	82.0819	407.227	82.4491	407.227	82.2299	407.227	82.5356	407.227	82.4276
421.875	86.3977	421.875	86.4498	421.875	86.2807	421.875	86.4346	421.875	86.0939	421.875	86.3459	421.875	85.8208	421.875	86.1768	421.875	85.4327	421.875	85.9209	421.875	84.8921	421.875	85.5742	421.875	84.1624	421.875	85.138	421.875	83.2226	421.875	84.6245	421.875	82.094	421.875	84.0591	421.875	80.8876	421.875	83.4739	421.875	79.8619	421.875	82.8856	421.875	79.374	421.875	82.2813	421.875	79.5785	421.875	81.643	421.875	80.2335	421.875	81.0198	421.875	80.9676	421.875	80.5848	421.875	81.5285	421.875	80.5442	421.875	81.7952	421.875	80.894	421.875	81.7318	421.875	81.3807
436.523	85.7541	436.523	85.8878	436.523	85.5663	436.523	85.9385	436.523	85.3475	436.523	85.8838	436.523	85.0982	436.523	85.7121	436.523	84.7885	436.523	85.422	436.523	84.3649	436.523	85.0208	436.523	83.7716	436.523	84.5278	436.523	82.9756	436.523	83.9823	436.523	81.9968	436.523	83.449	436.523	80.9495	436.523	82.9977	436.523	80.0819	436.523	82.6549	436.523	79.7057	436.523	82.37	436.523	79.935	436.523	82.0572	436.523	80.5539	436.523	81.6889	436.523	81.2414	436.523	81.3623	436.523	81.7737	436.523	81.253	436.523	82.0413	436.523	81.4331	436.523	82.0187	436.523	81.7634
451.172	85.9267	451.172	86.0193	451.172	85.7775	451.172	86.0294	451.172	85.592	451.172	85.9369	451.172	85.3685	451.172	85.7308	451.172	85.0737	451.172	85.4064	451.172	84.6491	451.172	84.963	451.172	84.0318	451.172	84.4056	451.172	83.1801	451.172	83.7563	451.172	82.1051	451.172	83.0686	451.172	80.9257	451.172	82.4255	451.172	79.9391	451.172	81.8974	451.172	79.5583	451.172	81.4858	451.172	79.933	451.172	81.1391	451.172	80.7538	451.172	80.8587	451.172	81.6102	451.172	80.7711	451.172	82.2509	451.172	81.0219	451.172	82.5632	451.172	81.5591	451.172	82.5135	451.172	82.1359
465.82	85.4907	465.82	85.6816	465.82	85.215	465.82	85.7515	465.82	84.9051	465.82	85.6852	465.82	84.5995	465.82	85.483	465.82	84.2925	465.82	85.1521	465.82	83.9244	465.82	84.6985	465.82	83.4096	465.82	84.1275	465.82	82.68	465.82	83.4538	465.82	81.7297	465.82	82.7211	465.82	80.6692	465.82	82.0094	465.82	79.7881	465.82	81.4045	465.82	79.4825	465.82	80.94	465.82	79.8945	465.82	80.5984	465.82	80.732	465.82	80.4045	465.82	81.6042	465.82	80.4808	465.82	82.2661	465.82	80.9125	465.82	82.603	465.82	81.5723	465.82	82.5739	465.82	82.1966
483.398	85.2393	483.398	85.3648	483.398	85.0221	483.398	85.3749	483.398	84.7476	483.398	85.2598	483.398	84.4429	483.398	85.0171	483.398	84.0994	483.398	84.6439	483.398	83.6626	483.398	84.1337	483.398	83.0531	483.398	83.4849	483.398	82.2106	483.398	82.7239	483.398	81.1523	483.398	81.9316	483.398	80.0626	483.398	81.2306	483.398	79.3733	483.398	80.6837	483.398	79.5319	483.398	80.2024	483.398	80.4534	483.398	79.6509	483.398	81.6343	483.398	79.127	483.398	82.6748	483.398	79.1383	483.398	83.3769	483.398	80.0611	483.398	83.6436	483.398	81.4493	483.398	83.4157	483.398	82.665
500.977	87.0051	500.977	87.405	500.977	86.4551	500.977	87.6271	500.977	85.8074	500.977	87.6658	500.977	85.1178	500.977	87.5241	500.977	84.3969	500.977	87.1983	500.977	83.5687	500.977	86.6657	500.977	82.4761	500.977	85.8791	500.977	80.912	500.977	84.7708	500.977	78.6365	500.977	83.2713	500.977	75.5025	500.977	81.352	500.977	72.868	500.977	79.1143	500.977	74.6121	500.977	76.9196	500.977	77.977	500.977	75.3998	500.977	80.5568	500.977	75.2212	500.977	82.289	500.977	76.6269	500.977	83.3135	500.977	78.8727	500.977	83.6985	500.977	80.9958	500.977	83.453	500.977	82.5555
518.555	88.694	518.555	88.8055	518.555	88.4874	518.555	88.8099	518.555	88.2229	518.555	88.7184	518.555	87.944	518.555	88.5531	518.555	87.6612	518.555	88.3332	518.555	87.3225	518.555	88.0633	518.555	86.8231	518.555	87.727	518.555	86.0391	518.555	87.2892	518.555	84.845	518.555	86.7026	518.555	83.0976	518.555	85.9116	518.555	80.5758	518.555	84.8423	518.555	76.8354	518.555	83.3728	518.555	70.9936	518.555	81.2741	518.555	67.7576	518.555	78.0699	518.555	73.0806	518.555	72.4886	518.555	76.2571	518.555	61.2255	518.555	77.5514	518.555	70.6786	518.555	77.3524	518.555	75.4705
536.133	86.6642	536.133	86.5392	536.133	86.6003	536.133	86.2756	536.133	86.351	536.133	85.9533	536.133	85.9882	536.133	85.6522	536.133	85.6353	536.133	85.4264	536.133	85.3915	536.133	85.2931	536.133	85.2367	536.133	85.235	536.133	85.0315	536.133	85.2032	536.133	84.606	536.133	85.117	536.133	83.8252	536.133	84.871	536.133	82.5999	536.133	84.355	536.133	80.898	536.133	83.4816	536.133	78.8527	536.133	82.2116	536.133	77.0807	536.133	80.5805	536.133	76.5747	536.133	78.7566	536.133	77.1367	536.133	77.1956	536.133	77.6529	536.133	76.6061	536.133	77.5849	536.133	77.0213
553.711	86.1686	553.711	85.9732	553.711	86.2299	553.711	85.7084	553.711	86.1073	553.711	85.4241	553.711	85.7985	553.711	85.1435	553.711	85.3679	553.711	84.8754	553.711	84.9245	553.711	84.6341	553.711	84.5443	553.711	84.4437	553.711	84.1923	553.711	84.3138	553.711	83.7377	553.711	84.204	553.711	83.0352	553.711	84.009	553.711	81.9853	553.711	83.5822	553.711	80.5726	553.711	82.7761	553.711	78.9566	553.711	81.4723	553.711	77.6171	553.711	79.6024	553.711	77.1178	553.711	77.2412	553.711	77.2786	553.711	75.0366	553.711	77.355	553.711	74.5248	553.711	76.843	553.711	75.673
574.219	85.6428	574.219	85.3517	574.219	85.7325	574.219	84.9201	574.219	85.6068	574.219	84.4361	574.219	85.3127	574.219	83.9928	574.219	84.9535	574.219	83.6672	574.219	84.6331	574.219	83.509	574.219	84.3645	574.219	83.5291	574.219	84.0398	574.219	83.6791	574.219	83.4985	574.219	83.8395	574.219	82.6044	574.219	83.8448	574.219	81.28	574.219	83.5367	574.219	79.5543	574.219	82.8164	574.219	77.7279	574.219	81.6796	574.219	76.5517	574.219	80.2163	574.219	76.5029	574.219	78.5481	574.219	76.8882	574.219	76.8154	574.219	76.8768	574.219	75.4958	574.219	76.2309	574.219	75.4046
594.727	84.0766	594.727	83.6438	594.727	84.4451	594.727	83.1725	594.727	84.6973	594.727	82.6587	594.727	84.7952	594.727	82.1097	594.727	84.7495	594.727	81.6093	594.727	84.6134	594.727	81.3584	594.727	84.4276	594.727	81.5791	594.727	84.1619	594.727	82.2606	594.727	83.7126	594.727	83.0967	594.727	82.9469	594.727	83.7293	594.727	81.7379	594.727	83.9295	594.727	79.9822	594.727	83.624	594.727	77.6684	594.727	82.8782	594.727	75.2132	594.727	81.8333	594.727	73.9085	594.727	80.5495	594.727	74.1546	594.727	78.9156	594.727	74.5422	594.727	76.9114	594.727	74.5788	594.727	75.1683
615.234	83.1712	615.234	83.4288	615.234	82.7191	615.234	83.4363	615.234	82.1733	615.234	83.1632	615.234	81.7054	615.234	82.5911	615.234	81.5414	615.234	81.7096	615.234	81.8093	615.234	80.546	615.234	82.3742	615.234	79.2719	615.234	82.9415	615.234	78.3674	615.234	83.2689	615.234	78.3884	615.234	83.2309	615.234	79.1756	615.234	82.7867	615.234	80.0915	615.234	81.9489	615.234	80.7981	615.234	80.7829	615.234	81.2674	615.234	79.4396	615.234	81.5013	615.234	78.1827	615.234	81.3886	615.234	77.3044	615.234	80.7855	615.234	76.9799	615.234	79.6845	615.234	77.3264	615.234	78.3558
638.672	84.8222	638.672	84.9406	638.672	84.3934	638.672	84.802	638.672	83.5802	638.672	84.4399	638.672	82.3218	638.672	83.8776	638.672	80.6925	638.672	83.1353	638.672	79.1774	638.672	82.2446	638.672	78.6563	638.672	81.2768	638.672	79.1845	638.672	80.3648	638.672	79.8792	638.672	79.6409	638.672	80.1937	638.672	79.0797	638.672	80.0491	638.672	78.4932	638.672	79.6079	638.672	77.8604	638.672	79.197	638.672	77.6802	638.672	79.1749	638.672	78.4313	638.672	79.6116	638.672	79.6013	638.672	80.2202	638.672	80.4903	638.672	80.7005	638.672	80.9213	638.672	80.9558	638.672	81.0297
659.18	85.279	659.18	85.2003	659.18	85.1167	659.18	84.9416	659.18	84.6464	659.18	84.5411	659.18	83.8183	659.18	84.0119	659.18	82.6401	659.18	83.3661	659.18	81.2535	659.18	82.6492	659.18	80.0032	659.18	81.9418	659.18	79.2707	659.18	81.296	659.18	79.0466	659.18	80.6455	659.18	78.9565	659.18	79.8106	659.18	78.7072	659.18	78.6766	659.18	78.2815	659.18	77.5436	659.18	77.9395	659.18	77.2177	659.18	78.0471	659.18	77.8087	659.18	78.6368	659.18	78.4613	659.18	79.3171	659.18	78.7726	659.18	79.7013	659.18	78.9664	659.18	79.6528	659.18	79.3046
682.617	85.671	682.617	85.6544	682.617	85.4101	682.617	85.3943	682.617	84.833	682.617	84.9059	682.617	83.9143	682.617	84.1877	682.617	82.6776	682.617	83.2603	682.617	81.2739	682.617	82.2279	682.617	80.0513	682.617	81.3123	682.617	79.3652	682.617	80.7374	682.617	79.1425	682.617	80.4442	682.617	78.9558	682.617	80.0239	682.617	78.4722	682.617	79.0033	682.617	77.6412	682.617	77.1956	682.617	76.8114	682.617	75.5266	682.617	76.7233	682.617	76.0586	682.617	77.6073	682.617	77.7513	682.617	78.7412	682.617	78.9143	682.617	79.5082	682.617	79.455	682.617	79.7772	682.617	79.7041
706.055	86.1916	706.055	86.104	706.055	85.9889	706.055	85.7485	706.055	85.4687	706.055	85.1424	706.055	84.6093	706.055	84.3106	706.055	83.4172	706.055	83.3071	706.055	81.9768	706.055	82.2461	706.055	80.538	706.055	81.321	706.055	79.5153	706.055	80.7226	706.055	79.1235	706.055	80.4175	706.055	79.0517	706.055	80.08	706.055	78.8258	706.055	79.3192	706.055	78.2054	706.055	77.9312	706.055	77.3369	706.055	76.2226	706.055	76.9137	706.055	75.3662	706.055	77.5953	706.055	75.9926	706.055	78.8349	706.055	77.172	706.055	79.726	706.055	78.3428	706.055	79.8873	706.055	79.3413
732.422	86.5809	732.422	86.343	732.422	86.5653	732.422	85.9415	732.422	86.1916	732.422	85.3962	732.422	85.4103	732.422	84.6752	732.422	84.2698	732.422	83.7703	732.422	82.9335	732.422	82.7611	732.422	81.6619	732.422	81.8286	732.422	80.7173	732.422	81.1683	732.422	80.1792	732.422	80.782	732.422	79.8527	732.422	80.3873	732.422	79.4198	732.422	79.6117	732.422	78.6537	732.422	78.2444	732.422	77.6126	732.422	76.526	732.422	76.9335	732.422	75.392	732.422	77.4435	732.422	75.334	732.422	78.6256	732.422	75.7156	732.422	79.3505	732.422	76.5492	732.422	79.1036	732.422	77.9489
758.789	86.6594	758.789	86.6543	758.789	86.5449	758.789	86.4629	758.789	86.228	758.789	85.96	758.789	85.538	758.789	85.0924	758.789	84.3475	758.789	83.9237	758.789	82.6795	758.789	82.5965	758.789	80.8601	758.789	81.3017	758.789	79.6239	758.789	80.3099	758.789	79.4383	758.789	79.8493	758.789	79.7412	758.789	79.7501	758.789	79.7804	758.789	79.5097	758.789	79.2098	758.789	78.7193	758.789	78.0678	758.789	77.3363	758.789	76.9777	758.789	76.0979	758.789	76.9545	758.789	76.2061	758.789	77.7339	758.789	77.081	758.789	78.2317	758.789	77.6143	758.789	78.1435	758.789	77.8525
785.156	86.8706	785.156	86.7814	785.156	86.7428	785.156	86.3716	785.156	86.4803	785.156	85.6201	785.156	86.0378	785.156	84.6166	785.156	85.2653	785.156	83.5242	785.156	84.0309	785.156	82.5065	785.156	82.3393	785.156	81.6822	785.156	80.4902	785.156	81.0896	785.156	79.1767	785.156	80.6021	785.156	78.8025	785.156	79.9587	785.156	78.7638	785.156	79.0093	785.156	78.3217	785.156	77.9576	785.156	77.2649	785.156	77.1851	785.156	76.1679	785.156	76.5936	785.156	76.3458	785.156	75.8626	785.156	77.6593	785.156	75.5033	785.156	78.6878	785.156	76.4005	785.156	78.7725	785.156	77.8679
811.523	87.1902	811.523	87.0279	811.523	87.0345	811.523	86.5229	811.523	86.5819	811.523	85.6901	811.523	85.8619	811.523	84.6419	811.523	84.9317	811.523	83.5572	811.523	83.8418	811.523	82.5458	811.523	82.5998	811.523	81.6287	811.523	81.2719	811.523	80.881	811.523	80.1518	811.523	80.3919	811.523	79.5467	811.523	80.0183	811.523	79.2108	811.523	79.3853	811.523	78.5399	811.523	78.1304	811.523	77.23	811.523	76.2597	811.523	75.9063	811.523	75.1572	811.523	76.2876	811.523	76.2321	811.523	77.9568	811.523	77.5336	811.523	79.0723	811.523	78.0913	811.523	79.1177	811.523	78.5447
840.82	86.8114	840.82	86.6003	840.82	86.5982	840.82	85.9057	840.82	86.1141	840.82	84.8821	840.82	85.4487	840.82	83.8917	840.82	84.548	840.82	83.1986	840.82	83.3046	840.82	82.7053	840.82	81.7277	840.82	82.2509	840.82	80.1495	840.82	81.8641	840.82	79.3037	840.82	81.5724	840.82	79.4684	840.82	81.1929	840.82	79.8695	840.82	80.4334	840.82	79.7431	840.82	79.1003	840.82	78.8062	840.82	77.2492	840.82	77.2698	840.82	75.3272	840.82	76.2599	840.82	74.1254	840.82	76.8851	840.82	74.4225	840.82	78.018	840.82	76.0648	840.82	78.4075	840.82	77.6985
870.117	87.2485	870.117	86.7423	870.117	87.3244	870.117	85.9691	870.117	86.9578	870.117	85.2093	870.117	86.2549	870.117	84.6441	870.117	85.3563	870.117	84.1617	870.117	84.2935	870.117	83.5655	870.117	82.9374	870.117	82.8608	870.117	81.1891	870.117	82.2354	870.117	79.3869	870.117	81.7691	870.117	78.4941	870.117	81.2105	870.117	78.6943	870.117	80.1383	870.117	78.9066	870.117	78.3144	870.117	78.5032	870.117	76.3306	870.117	77.7781	870.117	75.8527	870.117	77.8005	870.117	76.2521	870.117	78.8573	870.117	75.7239	870.117	79.6819	870.117	75.3001	870.117	79.2378	870.117	77.2717
902.344	87.0317	902.344	86.533	902.344	87.1152	902.344	85.7302	902.344	86.803	902.344	84.9245	902.344	86.1357	902.344	84.3254	902.344	85.1599	902.344	83.7395	902.344	83.9331	902.344	82.8698	902.344	82.4806	902.344	81.7323	902.344	80.8436	902.344	80.7534	902.344	79.3722	902.344	80.4182	902.344	78.7356	902.344	80.5646	902.344	78.8435	902.344	80.5328	902.344	78.8066	902.344	79.7801	902.344	78.1267	902.344	78.0427	902.344	77.1503	902.344	75.9854	902.344	77.1416	902.344	75.9031	902.344	78.1425	902.344	76.674	902.344	78.4645	902.344	76.0779	902.344	77.2466	902.344	75.588
931.641	87.2365	931.641	86.6943	931.641	87.3626	931.641	85.9488	931.641	87.0679	931.641	85.3847	931.641	86.3911	931.641	85.0522	931.641	85.3861	931.641	84.5554	931.641	84.1382	931.641	83.5812	931.641	82.6628	931.641	82.1579	931.641	80.9395	931.641	80.7676	931.641	79.3794	931.641	80.2672	931.641	78.9054	931.641	80.6621	931.641	79.2881	931.641	80.8512	931.641	79.3178	931.641	80.0089	931.641	78.4444	931.641	77.9598	931.641	77.2435	931.641	75.938	931.641	77.5733	931.641	76.4009	931.641	79.0696	931.641	77.3966	931.641	79.6273	931.641	77.102	931.641	78.5909	931.641	77.0155
966.797	86.6937	966.797	86.0875	966.797	86.8359	966.797	85.4074	966.797	86.5124	966.797	85.0512	966.797	85.8817	966.797	84.8474	966.797	84.9528	966.797	84.413	966.797	83.6094	966.797	83.6148	966.797	81.8166	966.797	82.5298	966.797	79.7447	966.797	81.3586	966.797	78.0247	966.797	80.4024	966.797	77.6913	966.797	79.8104	966.797	78.411	966.797	79.2521	966.797	78.7891	966.797	78.2734	966.797	78.0613	966.797	76.8669	966.797	76.2084	966.797	75.3253	966.797	74.9182	966.797	73.9459	966.797	75.8098	966.797	74.1923	966.797	76.5573	966.797	75.6872	966.797	76.5101	966.797	76.3798
999.023	86.8376	999.023	86.2556	999.023	87.0073	999.023	85.7777	999.023	86.6328	999.023	85.7186	999.023	85.8646	999.023	85.6621	999.023	84.8689	999.023	85.1117	999.023	83.6679	999.023	83.9469	999.023	82.1483	999.023	82.321	999.023	80.1854	999.023	80.5341	999.023	77.9874	999.023	79.0759	999.023	76.6542	999.023	78.5245	999.023	76.9091	999.023	78.5954	999.023	77.4471	999.023	78.143	999.023	77.2561	999.023	76.6543	999.023	76.5366	999.023	75.5622	999.023	76.558	999.023	75.9512	999.023	77.6235	999.023	75.8569	999.023	78.405	999.023	75.6952	999.023	78.1979	999.023	76.9618
1,034.18	86.0412	1,034.18	85.5476	1,034.18	86.4857	1,034.18	85.5125	1,034.18	86.4284	1,034.18	85.6657	1,034.18	85.7879	1,034.18	85.3426	1,034.18	84.6788	1,034.18	84.2468	1,034.18	83.2704	1,034.18	82.4631	1,034.18	81.6149	1,034.18	80.2499	1,034.18	79.5816	1,034.18	77.9925	1,034.18	77.5208	1,034.18	76.8968	1,034.18	77.1504	1,034.18	77.9982	1,034.18	78.3581	1,034.18	79.3145	1,034.18	78.9664	1,034.18	79.1388	1,034.18	78.0367	1,034.18	76.8993	1,034.18	75.5928	1,034.18	73.8271	1,034.18	74.2643	1,034.18	74.7475	1,034.18	76.059	1,034.18	76.2699	1,034.18	77.2878	1,034.18	76.2437	1,034.18	77.0733	1,034.18	76.2709
1,072.27	85.801	1,072.27	85.3599	1,072.27	86.1091	1,072.27	85.2176	1,072.27	86.0644	1,072.27	85.2829	1,072.27	85.6871	1,072.27	84.9949	1,072.27	84.9277	1,072.27	84.1237	1,072.27	83.6718	1,072.27	82.8592	1,072.27	81.9076	1,072.27	81.3852	1,072.27	79.6993	1,072.27	79.6303	1,072.27	77.2144	1,072.27	77.6646	1,072.27	75.6059	1,072.27	76.3528	1,072.27	76.3371	1,072.27	76.3624	1,072.27	77.6156	1,072.27	76.4188	1,072.27	77.8167	1,072.27	75.4275	1,072.27	76.8749	1,072.27	74.2514	1,072.27	76.0692	1,072.27	74.5712	1,072.27	76.751	1,072.27	74.7991	1,072.27	77.5508	1,072.27	74.5227	1,072.27	77.1772	1,072.27	75.6456
1,110.35	85.6728	1,110.35	85.4914	1,110.35	85.8974	1,110.35	85.4211	1,110.35	85.9511	1,110.35	85.2321	1,110.35	85.6205	1,110.35	84.7161	1,110.35	84.7623	1,110.35	83.9459	1,110.35	83.4591	1,110.35	83.0409	1,110.35	81.9143	1,110.35	81.9121	1,110.35	80.0239	1,110.35	80.4807	1,110.35	77.4991	1,110.35	79.0747	1,110.35	75.2746	1,110.35	78.2608	1,110.35	75.5583	1,110.35	77.8061	1,110.35	76.4407	1,110.35	76.8508	1,110.35	75.8454	1,110.35	74.9463	1,110.35	73.8304	1,110.35	72.6974	1,110.35	73.5503	1,110.35	73.2364	1,110.35	75.9879	1,110.35	75.41	1,110.35	77.1281	1,110.35	76.0588	1,110.35	76.4707	1,110.35	75.777
1,148.44	85.672	1,148.44	85.3515	1,148.44	85.9579	1,148.44	85.3263	1,148.44	85.9106	1,148.44	85.304	1,148.44	85.5771	1,148.44	84.889	1,148.44	84.9112	1,148.44	84.0707	1,148.44	83.7396	1,148.44	82.9929	1,148.44	82.0897	1,148.44	81.6587	1,148.44	80.0505	1,148.44	79.9879	1,148.44	77.3724	1,148.44	78.2838	1,148.44	74.2252	1,148.44	77.5971	1,148.44	73.8561	1,148.44	77.9326	1,148.44	75.8338	1,148.44	77.4999	1,148.44	76.6337	1,148.44	74.7985	1,148.44	75.9799	1,148.44	71.3188	1,148.44	75.4129	1,148.44	73.6916	1,148.44	76.383	1,148.44	74.8222	1,148.44	76.8319	1,148.44	74.2856	1,148.44	75.9074	1,148.44	74.691
1,189.45	85.7873	1,189.45	85.6728	1,189.45	85.904	1,189.45	85.6363	1,189.45	85.7526	1,189.45	85.2658	1,189.45	85.21	1,189.45	84.3571	1,189.45	84.1523	1,189.45	83.2001	1,189.45	82.6793	1,189.45	82.0934	1,189.45	81.298	1,189.45	80.8732	1,189.45	80.1142	1,189.45	79.147	1,189.45	78.3231	1,189.45	77.089	1,189.45	75.3633	1,189.45	76.4546	1,189.45	73.0203	1,189.45	77.6389	1,189.45	73.5339	1,189.45	78.0544	1,189.45	73.595	1,189.45	75.886	1,189.45	71.8526	1,189.45	70.1572	1,189.45	72.0399	1,189.45	72.3676	1,189.45	74.6282	1,189.45	75.3811	1,189.45	75.2659	1,189.45	75.6408	1,189.45	75.0873	1,189.45	75.4354
1,230.47	86.0326	1,230.47	86.0276	1,230.47	85.8463	1,230.47	85.6952	1,230.47	85.5171	1,230.47	84.9437	1,230.47	84.9428	1,230.47	83.9562	1,230.47	83.9086	1,230.47	83.0208	1,230.47	82.5541	1,230.47	82.1277	1,230.47	81.437	1,230.47	80.9342	1,230.47	80.3774	1,230.47	79.0489	1,230.47	78.2886	1,230.47	76.4335	1,230.47	74.4619	1,230.47	74.6457	1,230.47	71.7367	1,230.47	76.1577	1,230.47	73.4686	1,230.47	78.2275	1,230.47	74.0303	1,230.47	77.9145	1,230.47	72.0418	1,230.47	72.9003	1,230.47	71.9934	1,230.47	68.3848	1,230.47	75.5575	1,230.47	74.8541	1,230.47	76.8012	1,230.47	76.5198	1,230.47	76.6672	1,230.47	76.8133
1,274.41	86.6268	1,274.41	86.3807	1,274.41	86.4749	1,274.41	86.2228	1,274.41	85.6976	1,274.41	85.7975	1,274.41	84.7885	1,274.41	84.6675	1,274.41	83.7412	1,274.41	83.0436	1,274.41	82.1031	1,274.41	81.4708	1,274.41	80.5641	1,274.41	80.1619	1,274.41	79.9563	1,274.41	78.7212	1,274.41	78.8511	1,274.41	76.4668	1,274.41	75.8649	1,274.41	73.0456	1,274.41	72.3142	1,274.41	72.6459	1,274.41	73.7362	1,274.41	76.3441	1,274.41	75.2834	1,274.41	77.2501	1,274.41	73.6585	1,274.41	73.3305	1,274.41	69.9874	1,274.41	69.9983	1,274.41	73.9067	1,274.41	74.7973	1,274.41	76.3371	1,274.41	76.3134	1,274.41	76.5266	1,274.41	76.6909
1,318.36	86.5772	1,318.36	86.6895	1,318.36	86.6014	1,318.36	86.6551	1,318.36	86.2764	1,318.36	85.8212	1,318.36	85.3977	1,318.36	84.2265	1,318.36	83.9786	1,318.36	82.4362	1,318.36	81.875	1,318.36	80.7026	1,318.36	79.9611	1,318.36	79.0006	1,318.36	79.5857	1,318.36	77.4618	1,318.36	78.7733	1,318.36	76.2601	1,318.36	75.5327	1,318.36	75.2354	1,318.36	70.8867	1,318.36	73.8843	1,318.36	73.0006	1,318.36	74.8616	1,318.36	74.8761	1,318.36	77.1064	1,318.36	73.0569	1,318.36	75.3255	1,318.36	68.9989	1,318.36	65.7775	1,318.36	74.079	1,318.36	70.1589	1,318.36	75.9326	1,318.36	74.3073	1,318.36	74.6021	1,318.36	74.7895
1,365.23	86.3518	1,365.23	86.588	1,365.23	86.2828	1,365.23	86.4822	1,365.23	86.1785	1,365.23	85.5945	1,365.23	85.5742	1,365.23	84.2615	1,365.23	84.2223	1,365.23	82.9324	1,365.23	82.1117	1,365.23	81.5727	1,365.23	79.971	1,365.23	80.2639	1,365.23	79.3077	1,365.23	78.8585	1,365.23	78.9902	1,365.23	76.6995	1,365.23	76.8041	1,365.23	73.8817	1,365.23	71.3066	1,365.23	71.2458	1,365.23	68.7356	1,365.23	71.071	1,365.23	73.5893	1,365.23	75.3736	1,365.23	73.8685	1,365.23	75.5002	1,365.23	69.9041	1,365.23	70.0779	1,365.23	71.0264	1,365.23	71.8512	1,365.23	72.9949	1,365.23	74.1702	1,365.23	71.4534	1,365.23	73.1544
1,415.04	85.9688	1,415.04	86.1137	1,415.04	85.6641	1,415.04	85.8308	1,415.04	85.4556	1,415.04	85.1174	1,415.04	85.0892	1,415.04	84.0324	1,415.04	84.0386	1,415.04	82.5019	1,415.04	82.0193	1,415.04	80.9521	1,415.04	79.4217	1,415.04	80.1837	1,415.04	78.1302	1,415.04	79.9522	1,415.04	78.0158	1,415.04	79.1419	1,415.04	76.433	1,415.04	77.0709	1,415.04	72.3225	1,415.04	74.5546	1,415.04	70.4466	1,415.04	72.8324	1,415.04	73.5612	1,415.04	72.5977	1,415.04	73.2639	1,415.04	73.5739	1,415.04	66.724	1,415.04	71.8326	1,415.04	67.8895	1,415.04	67.742	1,415.04	71.1364	1,415.04	73.475	1,415.04	71.5248	1,415.04	74.8772
1,464.84	86.1504	1,464.84	86.3272	1,464.84	85.4632	1,464.84	85.8981	1,464.84	84.8517	1,464.84	84.7965	1,464.84	84.558	1,464.84	83.0275	1,464.84	83.7298	1,464.84	81.2356	1,464.84	81.8046	1,464.84	80.5237	1,464.84	78.8809	1,464.84	80.3248	1,464.84	77.0109	1,464.84	79.5666	1,464.84	77.4447	1,464.84	77.909	1,464.84	76.6119	1,464.84	75.9438	1,464.84	72.7298	1,464.84	75.5014	1,464.84	69.3792	1,464.84	75.4374	1,464.84	72.645	1,464.84	73.587	1,464.84	72.8256	1,464.84	72.803	1,464.84	67.6337	1,464.84	72.2357	1,464.84	65.7292	1,464.84	67.2096	1,464.84	70.0536	1,464.84	72.7379	1,464.84	70.7445	1,464.84	73.9865
1,514.65	86.5402	1,514.65	86.8329	1,514.65	85.6174	1,514.65	86.2275	1,514.65	84.3789	1,514.65	84.4423	1,514.65	83.6589	1,514.65	82.3539	1,514.65	82.6413	1,514.65	81.2345	1,514.65	80.8938	1,514.65	80.7429	1,514.65	79.1232	1,514.65	80.1919	1,514.65	76.7618	1,514.65	79.2371	1,514.65	73.8788	1,514.65	77.4437	1,514.65	72.3348	1,514.65	74.9186	1,514.65	70.3093	1,514.65	73.2078	1,514.65	69.5112	1,514.65	74.682	1,514.65	72.9261	1,514.65	75.6096	1,514.65	73.8048	1,514.65	72.2787	1,514.65	70.8684	1,514.65	71.7599	1,514.65	65.7157	1,514.65	70.655	1,514.65	68.4848	1,514.65	72.2057	1,514.65	68.5519	1,514.65	72.8969
1,570.31	86.6588	1,570.31	86.6447	1,570.31	85.7764	1,570.31	85.7452	1,570.31	84.1393	1,570.31	84.1227	1,570.31	82.9707	1,570.31	82.7593	1,570.31	82.1094	1,570.31	82.1601	1,570.31	81.0451	1,570.31	81.5	1,570.31	79.9998	1,570.31	80.2414	1,570.31	77.6345	1,570.31	78.6349	1,570.31	73.7374	1,570.31	77.1151	1,570.31	72.0957	1,570.31	75.6422	1,570.31	70.3427	1,570.31	71.9937	1,570.31	67.491	1,570.31	68.509	1,570.31	71.6376	1,570.31	74.5712	1,570.31	73.0231	1,570.31	73.3916	1,570.31	69.6162	1,570.31	71.2946	1,570.31	63.2646	1,570.31	69.916	1,570.31	66.0281	1,570.31	71.6241	1,570.31	67.9583	1,570.31	73.7576
1,623.05	86.4297	1,623.05	86.3634	1,623.05	85.7433	1,623.05	85.4166	1,623.05	84.1747	1,623.05	83.8311	1,623.05	82.6414	1,623.05	82.7165	1,623.05	81.755	1,623.05	82.7391	1,623.05	80.239	1,623.05	82.2159	1,623.05	79.0415	1,623.05	80.5166	1,623.05	77.6438	1,623.05	78.2521	1,623.05	73.9402	1,623.05	76.335	1,623.05	69.887	1,623.05	76.4878	1,623.05	69.0078	1,623.05	76.011	1,623.05	68.4025	1,623.05	68.7276	1,623.05	69.9405	1,623.05	72.2829	1,623.05	69.1887	1,623.05	73.136	1,623.05	63.9749	1,623.05	67.3163	1,623.05	59.564	1,623.05	69.6646	1,623.05	66.3038	1,623.05	69.2232	1,623.05	69.0413	1,623.05	73.6745
1,681.64	86.0386	1,681.64	85.9917	1,681.64	84.9964	1,681.64	84.7792	1,681.64	83.5834	1,681.64	82.9278	1,681.64	82.1728	1,681.64	82.4914	1,681.64	80.9605	1,681.64	82.8415	1,681.64	79.5016	1,681.64	81.5525	1,681.64	78.3936	1,681.64	79.9224	1,681.64	76.8579	1,681.64	79.2385	1,681.64	73.3485	1,681.64	77.6533	1,681.64	72.3942	1,681.64	75.0291	1,681.64	73.1609	1,681.64	76.1335	1,681.64	71.7773	1,681.64	73.6763	1,681.64	72.3609	1,681.64	68.8236	1,681.64	72.2669	1,681.64	73.5386	1,681.64	68.1502	1,681.64	68.8208	1,681.64	63.8731	1,681.64	71.1556	1,681.64	65.7077	1,681.64	69.4581	1,681.64	68.2653	1,681.64	73.0166
1,740.23	86.152	1,740.23	85.8947	1,740.23	84.8124	1,740.23	83.9822	1,740.23	82.8534	1,740.23	81.9371	1,740.23	81.2877	1,740.23	82.2215	1,740.23	80.1672	1,740.23	82.2694	1,740.23	78.6188	1,740.23	80.8189	1,740.23	78.0692	1,740.23	78.5868	1,740.23	77.099	1,740.23	76.9285	1,740.23	72.8107	1,740.23	76.2688	1,740.23	70.2836	1,740.23	73.8853	1,740.23	72.1608	1,740.23	75.4597	1,740.23	71.173	1,740.23	76.4516	1,740.23	73.416	1,740.23	69.6513	1,740.23	73.1021	1,740.23	71.5772	1,740.23	66.0407	1,740.23	68.8554	1,740.23	58.3065	1,740.23	68.6681	1,740.23	63.9339	1,740.23	69.352	1,740.23	68.525	1,740.23	74.0676
1,801.76	86.6668	1,801.76	85.9404	1,801.76	84.9042	1,801.76	83.3635	1,801.76	81.942	1,801.76	81.2355	1,801.76	80.1663	1,801.76	82.343	1,801.76	79.621	1,801.76	82.7231	1,801.76	78.162	1,801.76	81.7635	1,801.76	77.0582	1,801.76	79.8773	1,801.76	76.3788	1,801.76	77.1628	1,801.76	71.4667	1,801.76	75.4885	1,801.76	69.6544	1,801.76	73.2664	1,801.76	73.8188	1,801.76	71.9905	1,801.76	72.8695	1,801.76	75.0629	1,801.76	73.1979	1,801.76	71.8237	1,801.76	73.7447	1,801.76	69.5616	1,801.76	67.3208	1,801.76	67.6578	1,801.76	51.4278	1,801.76	70.149	1,801.76	61.1244	1,801.76	67.2679	1,801.76	68.4383	1,801.76	72.5034
1,866.21	85.9072	1,866.21	85.1038	1,866.21	84.7003	1,866.21	82.697	1,866.21	81.1081	1,866.21	81.4399	1,866.21	78.8167	1,866.21	83.2189	1,866.21	78.944	1,866.21	82.5293	1,866.21	77.7251	1,866.21	80.6049	1,866.21	75.9839	1,866.21	78.4807	1,866.21	74.6095	1,866.21	75.5788	1,866.21	70.6146	1,866.21	72.0303	1,866.21	72.4116	1,866.21	69.2796	1,866.21	76.1093	1,866.21	66.2078	1,866.21	75.5828	1,866.21	69.7	1,866.21	74.6427	1,866.21	71.3055	1,866.21	74.56	1,866.21	70.8501	1,866.21	68.411	1,866.21	67.2349	1,866.21	49.5625	1,866.21	69.6624	1,866.21	61.4846	1,866.21	68.2467	1,866.21	68.8101	1,866.21	71.3701
1,930.66	85.1121	1,930.66	84.3188	1,930.66	84.0161	1,930.66	80.8585	1,930.66	80.4559	1,930.66	81.1265	1,930.66	76.5393	1,930.66	82.4865	1,930.66	77.5579	1,930.66	81.481	1,930.66	77.5071	1,930.66	79.8096	1,930.66	76.8731	1,930.66	77.121	1,930.66	74.7953	1,930.66	74.3747	1,930.66	69.0351	1,930.66	72.3432	1,930.66	72.4795	1,930.66	71.1784	1,930.66	75.7057	1,930.66	71.119	1,930.66	74.9455	1,930.66	71.122	1,930.66	74.8652	1,930.66	68.5892	1,930.66	74.2941	1,930.66	68.1715	1,930.66	67.8881	1,930.66	62.6683	1,930.66	63.7416	1,930.66	67.2881	1,930.66	58.2284	1,930.66	67.0086	1,930.66	67.1931	1,930.66	70.6359
2,000.98	85.5698	2,000.98	83.9958	2,000.98	83.9864	2,000.98	79.4142	2,000.98	80.0144	2,000.98	81.2664	2,000.98	75.1018	2,000.98	82.5017	2,000.98	76.5398	2,000.98	82.0562	2,000.98	77.1168	2,000.98	80.0923	2,000.98	76.7814	2,000.98	76.9246	2,000.98	75.5716	2,000.98	74.6613	2,000.98	69.4245	2,000.98	73.4798	2,000.98	70.7558	2,000.98	70.214	2,000.98	75.4655	2,000.98	68.5286	2,000.98	75.2704	2,000.98	71.9362	2,000.98	75.1289	2,000.98	69.1386	2,000.98	75.2212	2,000.98	68.634	2,000.98	68.2549	2,000.98	63.6308	2,000.98	61.9266	2,000.98	69.4319	2,000.98	63.6929	2,000.98	67.8087	2,000.98	69.1061	2,000.98	72.842
2,071.29	86.2679	2,071.29	83.5219	2,071.29	84.6743	2,071.29	78.6404	2,071.29	79.6755	2,071.29	80.7727	2,071.29	72.7548	2,071.29	81.701	2,071.29	75.283	2,071.29	82.0005	2,071.29	77.1794	2,071.29	80.3028	2,071.29	76.634	2,071.29	77.8601	2,071.29	75.3893	2,071.29	75.8309	2,071.29	71.5211	2,071.29	74.4738	2,071.29	69.8927	2,071.29	69.703	2,071.29	75.8585	2,071.29	62.4654	2,071.29	76.4313	2,071.29	70.7566	2,071.29	74.1024	2,071.29	68.6716	2,071.29	74.4327	2,071.29	68.9087	2,071.29	68.6353	2,071.29	59.0535	2,071.29	63.3814	2,071.29	66.4628	2,071.29	65.4891	2,071.29	68.3011	2,071.29	71.3605	2,071.29	73.4579
2,144.53	85.2021	2,144.53	81.9539	2,144.53	84.1535	2,144.53	77.8296	2,144.53	78.4958	2,144.53	80.2987	2,144.53	70.647	2,144.53	82.1873	2,144.53	74.6824	2,144.53	81.2028	2,144.53	77.3558	2,144.53	78.69	2,144.53	76.5501	2,144.53	77.0389	2,144.53	74.6135	2,144.53	73.95	2,144.53	73.4463	2,144.53	70.5779	2,144.53	73.3656	2,144.53	69.7694	2,144.53	75.8719	2,144.53	57.6841	2,144.53	76.4994	2,144.53	67.0923	2,144.53	74.1328	2,144.53	67.7975	2,144.53	73.4884	2,144.53	67.1277	2,144.53	68.8287	2,144.53	64.112	2,144.53	64.8389	2,144.53	63.4407	2,144.53	62.1779	2,144.53	64.8329	2,144.53	69.1896	2,144.53	71.6546
2,217.77	84.3239	2,217.77	80.9429	2,217.77	83.6825	2,217.77	74.5958	2,217.77	78.4928	2,217.77	80.2769	2,217.77	64.5872	2,217.77	82.2728	2,217.77	74.6611	2,217.77	81.1523	2,217.77	76.7251	2,217.77	79.0365	2,217.77	76.0695	2,217.77	76.7019	2,217.77	73.1913	2,217.77	73.3391	2,217.77	71.8949	2,217.77	67.4405	2,217.77	73.714	2,217.77	66.8606	2,217.77	75.488	2,217.77	67.246	2,217.77	76.0805	2,217.77	52.9165	2,217.77	74.7104	2,217.77	67.6299	2,217.77	74.0889	2,217.77	65.9569	2,217.77	70.5078	2,217.77	68.1405	2,217.77	65.0866	2,217.77	57.5773	2,217.77	63.981	2,217.77	57.7725	2,217.77	64.7269	2,217.77	67.9996
2,296.88	84.5957	2,296.88	79.4396	2,296.88	83.861	2,296.88	74.192	2,296.88	78.3165	2,296.88	79.9042	2,296.88	52.0645	2,296.88	81.7015	2,296.88	74.6516	2,296.88	80.8163	2,296.88	76.569	2,296.88	79.3249	2,296.88	75.9008	2,296.88	75.6389	2,296.88	73.5227	2,296.88	72.0292	2,296.88	69.5431	2,296.88	68.9048	2,296.88	71.4637	2,296.88	61.4147	2,296.88	73.8577	2,296.88	66.393	2,296.88	73.7268	2,296.88	59.2887	2,296.88	71.592	2,296.88	65.7985	2,296.88	71.5603	2,296.88	59.6862	2,296.88	69.9898	2,296.88	66.1479	2,296.88	63.6557	2,296.88	48.0691	2,296.88	64.2842	2,296.88	53.8804	2,296.88	62.8884	2,296.88	63.419
2,378.91	85.105	2,378.91	79.1864	2,378.91	85.1936	2,378.91	71.37	2,378.91	78.9804	2,378.91	80.7988	2,378.91	55.2097	2,378.91	81.4319	2,378.91	73.7932	2,378.91	81.0752	2,378.91	75.9674	2,378.91	78.7468	2,378.91	74.5272	2,378.91	72.8527	2,378.91	72.9599	2,378.91	69.4774	2,378.91	70.0798	2,378.91	67.8757	2,378.91	69.3863	2,378.91	58.6705	2,378.91	71.728	2,378.91	66.2714	2,378.91	71.3592	2,378.91	56.8498	2,378.91	69.6234	2,378.91	66.3158	2,378.91	68.3481	2,378.91	62.943	2,378.91	65.9587	2,378.91	62.0888	2,378.91	65.8199	2,378.91	51.5756	2,378.91	62.903	2,378.91	53.1306	2,378.91	60.8205	2,378.91	62.3523
2,460.94	84.5566	2,460.94	77.1827	2,460.94	85.5976	2,460.94	74.8801	2,460.94	80.9287	2,460.94	81.1944	2,460.94	66.5087	2,460.94	82.5439	2,460.94	74.6858	2,460.94	80.7018	2,460.94	75.1771	2,460.94	76.1438	2,460.94	73.0783	2,460.94	72.1517	2,460.94	69.8572	2,460.94	67.5118	2,460.94	68.128	2,460.94	66.6753	2,460.94	67.9816	2,460.94	61.0313	2,460.94	68.0221	2,460.94	63.6652	2,460.94	68.7845	2,460.94	56.3656	2,460.94	68.7866	2,460.94	64.3017	2,460.94	69.2534	2,460.94	62.3145	2,460.94	66.8763	2,460.94	61.0672	2,460.94	65.6505	2,460.94	53.5771	2,460.94	66.0493	2,460.94	46.555	2,460.94	63.0309	2,460.94	60.905
2,548.83	84.9429	2,548.83	74.86	2,548.83	85.6989	2,548.83	77.3345	2,548.83	81.5514	2,548.83	82.8154	2,548.83	71.1954	2,548.83	83.5332	2,548.83	76.4812	2,548.83	79.6913	2,548.83	75.6994	2,548.83	75.2744	2,548.83	73.4524	2,548.83	70.4489	2,548.83	71.7372	2,548.83	64.5192	2,548.83	70.5132	2,548.83	64.9966	2,548.83	70.9696	2,548.83	64.5759	2,548.83	71.1147	2,548.83	67.3066	2,548.83	71.5238	2,548.83	62.5512	2,548.83	70.0386	2,548.83	60.543	2,548.83	70.2621	2,548.83	61.5647	2,548.83	68.2189	2,548.83	61.4513	2,548.83	65.1814	2,548.83	62.3207	2,548.83	67.828	2,548.83	57.5771	2,548.83	66.4479	2,548.83	60.8905
2,639.65	85.7237	2,639.65	72.3391	2,639.65	86.8624	2,639.65	79.5191	2,639.65	81.8796	2,639.65	84.7326	2,639.65	72.3633	2,639.65	83.2174	2,639.65	77.0844	2,639.65	78.5628	2,639.65	77.2302	2,639.65	74.0706	2,639.65	74.7504	2,639.65	71.6898	2,639.65	72.8931	2,639.65	71.5868	2,639.65	71.2767	2,639.65	71.6578	2,639.65	70.7855	2,639.65	67.2614	2,639.65	72.4927	2,639.65	66.5298	2,639.65	74.1015	2,639.65	67.3023	2,639.65	71.7705	2,639.65	64.0899	2,639.65	70.1424	2,639.65	64.2457	2,639.65	68.5537	2,639.65	61.5342	2,639.65	65.7425	2,639.65	62.4547	2,639.65	69.1807	2,639.65	59.9714	2,639.65	67.6336	2,639.65	59.572
2,733.4	85.8973	2,733.4	71.1378	2,733.4	87.8267	2,733.4	81.8143	2,733.4	82.9355	2,733.4	85.2596	2,733.4	73.7588	2,733.4	83.1645	2,733.4	78.2888	2,733.4	78.0965	2,733.4	79.2396	2,733.4	73.6253	2,733.4	77.2001	2,733.4	73.2361	2,733.4	74.9839	2,733.4	71.7626	2,733.4	72.2966	2,733.4	68.9126	2,733.4	70.748	2,733.4	67.5132	2,733.4	74.2533	2,733.4	68.7721	2,733.4	75.6482	2,733.4	66.9396	2,733.4	73.2697	2,733.4	68.1461	2,733.4	72.0446	2,733.4	65.4202	2,733.4	70.2691	2,733.4	62.1042	2,733.4	67.8864	2,733.4	66.7797	2,733.4	70.9418	2,733.4	63.2945	2,733.4	68.8461	2,733.4	55.0246
2,827.15	86.2021	2,827.15	70.36	2,827.15	88.149	2,827.15	82.837	2,827.15	83.2368	2,827.15	85.755	2,827.15	75.113	2,827.15	83.5786	2,827.15	80.2046	2,827.15	77.3167	2,827.15	81.4747	2,827.15	75.5817	2,827.15	79.0698	2,827.15	76.0271	2,827.15	75.7477	2,827.15	72.8987	2,827.15	72.9266	2,827.15	71.0984	2,827.15	70.9676	2,827.15	69.697	2,827.15	76.1316	2,827.15	71.1653	2,827.15	77.3769	2,827.15	69.2842	2,827.15	72.4322	2,827.15	69.9737	2,827.15	72.7747	2,827.15	67.4283	2,827.15	71.0672	2,827.15	59.6179	2,827.15	69.3838	2,827.15	66.5556	2,827.15	71.4001	2,827.15	61.3463	2,827.15	69.854	2,827.15	49.1435
2,926.76	86.5747	2,926.76	72.7747	2,926.76	88.2351	2,926.76	83.1966	2,926.76	83.2018	2,926.76	86.4015	2,926.76	76.3843	2,926.76	83.742	2,926.76	81.5674	2,926.76	76.2339	2,926.76	82.798	2,926.76	77.5897	2,926.76	79.8931	2,926.76	76.4222	2,926.76	74.807	2,926.76	75.2064	2,926.76	69.7301	2,926.76	75.3215	2,926.76	70.9839	2,926.76	72.1216	2,926.76	75.7679	2,926.76	72.1682	2,926.76	76.708	2,926.76	68.8512	2,926.76	72.6771	2,926.76	70.0545	2,926.76	71.481	2,926.76	68.0745	2,926.76	72.2673	2,926.76	62.1129	2,926.76	66.6484	2,926.76	67.8642	2,926.76	70.9184	2,926.76	63.4169	2,926.76	69.5304	2,926.76	51.6241
3,032.23	86.3823	3,032.23	74.3721	3,032.23	87.8474	3,032.23	83.4644	3,032.23	83.1804	3,032.23	86.5428	3,032.23	78.8774	3,032.23	83.7557	3,032.23	82.7374	3,032.23	76.8687	3,032.23	82.8922	3,032.23	77.6891	3,032.23	79.4611	3,032.23	77.8107	3,032.23	73.5362	3,032.23	76.9576	3,032.23	69.9846	3,032.23	75.1612	3,032.23	72.3152	3,032.23	69.9547	3,032.23	74.8058	3,032.23	72.095	3,032.23	74.6494	3,032.23	68.4415	3,032.23	73.2578	3,032.23	71.7163	3,032.23	72.4432	3,032.23	67.3285	3,032.23	72.1691	3,032.23	62.9129	3,032.23	67.4287	3,032.23	66.394	3,032.23	69.0733	3,032.23	62.0547	3,032.23	69.8306	3,032.23	56.3473
3,137.7	86.3727	3,137.7	77.8405	3,137.7	87.8549	3,137.7	84.4595	3,137.7	83.6818	3,137.7	86.3806	3,137.7	81.0788	3,137.7	83.8733	3,137.7	83.7917	3,137.7	76.9424	3,137.7	83.0071	3,137.7	80.0964	3,137.7	78.7862	3,137.7	81.1571	3,137.7	73.267	3,137.7	77.1875	3,137.7	71.4808	3,137.7	72.5145	3,137.7	72.2509	3,137.7	69.5208	3,137.7	74.2774	3,137.7	72.3262	3,137.7	75.7739	3,137.7	70.2388	3,137.7	73.5756	3,137.7	71.6414	3,137.7	72.1444	3,137.7	68.5238	3,137.7	72.121	3,137.7	61.6032	3,137.7	69.2388	3,137.7	67.691	3,137.7	68.5616	3,137.7	64.0815	3,137.7	70.1407	3,137.7	58.4663
3,249.02	86.3586	3,249.02	79.113	3,249.02	87.273	3,249.02	84.8122	3,249.02	83.3102	3,249.02	86.8978	3,249.02	82.0778	3,249.02	83.2977	3,249.02	84.2151	3,249.02	77.7777	3,249.02	82.3935	3,249.02	81.7394	3,249.02	78.7435	3,249.02	81.2915	3,249.02	76.5879	3,249.02	76.0939	3,249.02	74.5312	3,249.02	73.6228	3,249.02	73.3846	3,249.02	70.1395	3,249.02	74.7982	3,249.02	71.9213	3,249.02	76.2308	3,249.02	70.5268	3,249.02	74.7345	3,249.02	70.6704	3,249.02	71.1446	3,249.02	67.7549	3,249.02	72.8554	3,249.02	61.1224	3,249.02	71.2855	3,249.02	66.8341	3,249.02	70.64	3,249.02	59.8009	3,249.02	71.9549	3,249.02	61.5816
3,363.28	86.1938	3,363.28	80.4812	3,363.28	87.5117	3,363.28	85.4055	3,363.28	83.4167	3,363.28	86.5169	3,363.28	82.6049	3,363.28	83.0807	3,363.28	83.9489	3,363.28	79.8397	3,363.28	82.1675	3,363.28	82.7706	3,363.28	79.9894	3,363.28	80.0821	3,363.28	78.4347	3,363.28	76.6842	3,363.28	77.1114	3,363.28	75.2136	3,363.28	74.3942	3,363.28	68.1215	3,363.28	74.8156	3,363.28	69.9151	3,363.28	74.6482	3,363.28	69.5655	3,363.28	73.3145	3,363.28	71.2989	3,363.28	72.3123	3,363.28	67.2743	3,363.28	71.4294	3,363.28	65.2013	3,363.28	71.7207	3,363.28	68.0817	3,363.28	70.5823	3,363.28	60.3853	3,363.28	71.5825	3,363.28	61.3728
3,483.4	85.786	3,483.4	81.9786	3,483.4	87.9757	3,483.4	85.6189	3,483.4	84.5816	3,483.4	86.529	3,483.4	83.618	3,483.4	82.6262	3,483.4	84.2812	3,483.4	81.2172	3,483.4	82.2281	3,483.4	83.1065	3,483.4	80.4336	3,483.4	80.1821	3,483.4	77.4409	3,483.4	77.9026	3,483.4	75.3172	3,483.4	71.1718	3,483.4	73.442	3,483.4	65.6986	3,483.4	71.1979	3,483.4	69.2098	3,483.4	70.8533	3,483.4	68.6079	3,483.4	69.3007	3,483.4	69.7437	3,483.4	71.2424	3,483.4	66.1096	3,483.4	68.5076	3,483.4	64.9632	3,483.4	71.5868	3,483.4	67.1938	3,483.4	70.8079	3,483.4	59.1766	3,483.4	71.9169	3,483.4	60.1919
3,606.45	85.5236	3,606.45	82.1402	3,606.45	87.8665	3,606.45	85.9428	3,606.45	84.4754	3,606.45	86.0323	3,606.45	83.87	3,606.45	82.11	3,606.45	84.9256	3,606.45	82.9729	3,606.45	82.9824	3,606.45	81.6027	3,606.45	80.417	3,606.45	80.3661	3,606.45	77.5364	3,606.45	74.4106	3,606.45	72.4935	3,606.45	67.4821	3,606.45	68.2115	3,606.45	65.0109	3,606.45	60.6186	3,606.45	67.3559	3,606.45	61.532	3,606.45	69.7599	3,606.45	68.9904	3,606.45	68.6906	3,606.45	70.0533	3,606.45	64.9533	3,606.45	68.6219	3,606.45	59.2203	3,606.45	69.2605	3,606.45	66.2133	3,606.45	69.1979	3,606.45	57.9081	3,606.45	70.7654	3,606.45	58.2354
3,732.42	85.371	3,732.42	82.7714	3,732.42	87.6027	3,732.42	86.2037	3,732.42	84.3155	3,732.42	85.4782	3,732.42	83.9559	3,732.42	82.4883	3,732.42	84.6929	3,732.42	82.6543	3,732.42	83.0902	3,732.42	82.0238	3,732.42	79.669	3,732.42	79.7972	3,732.42	74.8081	3,732.42	74.1677	3,732.42	70.1001	3,732.42	71.3979	3,732.42	63.1228	3,732.42	66.6428	3,732.42	61.9489	3,732.42	65.6113	3,732.42	61.1435	3,732.42	69.3032	3,732.42	67.8387	3,732.42	68.1051	3,732.42	67.9542	3,732.42	62.8232	3,732.42	66.1381	3,732.42	57.1622	3,732.42	69.6686	3,732.42	64.7996	3,732.42	69.3207	3,732.42	56.8598	3,732.42	69.7952	3,732.42	62.7134
3,864.26	85.24	3,864.26	83.4093	3,864.26	87.5271	3,864.26	86.2688	3,864.26	84.0848	3,864.26	85.7124	3,864.26	83.6656	3,864.26	82.0729	3,864.26	84.5236	3,864.26	81.2175	3,864.26	81.7634	3,864.26	81.8531	3,864.26	76.9752	3,864.26	78.4024	3,864.26	73.1446	3,864.26	77.534	3,864.26	71.0644	3,864.26	72.5031	3,864.26	69.1813	3,864.26	65.5422	3,864.26	71.2465	3,864.26	65.8965	3,864.26	69.7412	3,864.26	68.7325	3,864.26	67.1138	3,864.26	67.1907	3,864.26	67.161	3,864.26	62.8895	3,864.26	65.3081	3,864.26	55.4164	3,864.26	69.9682	3,864.26	65.4884	3,864.26	70.2658	3,864.26	52.3628	3,864.26	70.2216	3,864.26	63.8243
3,999.02	84.8843	3,999.02	84.6611	3,999.02	87.1794	3,999.02	86.6842	3,999.02	84.6791	3,999.02	85.0025	3,999.02	83.7571	3,999.02	81.6405	3,999.02	84.1968	3,999.02	81.7815	3,999.02	81.0681	3,999.02	81.4668	3,999.02	76.0448	3,999.02	80.4728	3,999.02	73.6389	3,999.02	78.8159	3,999.02	70.2544	3,999.02	71.1036	3,999.02	64.9424	3,999.02	68.7836	3,999.02	70.2969	3,999.02	67.9465	3,999.02	70.1874	3,999.02	69.93	3,999.02	67.0065	3,999.02	66.6974	3,999.02	67.1261	3,999.02	60.1432	3,999.02	65.9863	3,999.02	37.8259	3,999.02	68.8048	3,999.02	65.8344	3,999.02	69.8648	3,999.02	61.5018	3,999.02	67.9705	3,999.02	57.8284
4,139.65	84.193	4,139.65	85.6749	4,139.65	86.8258	4,139.65	86.8047	4,139.65	84.7074	4,139.65	84.4766	4,139.65	83.991	4,139.65	82.2026	4,139.65	83.8055	4,139.65	81.3422	4,139.65	79.8161	4,139.65	79.9238	4,139.65	77.7522	4,139.65	82.0615	4,139.65	75.81	4,139.65	78.0543	4,139.65	66.0457	4,139.65	70.1973	4,139.65	66.691	4,139.65	72.0359	4,139.65	70.9213	4,139.65	68.6712	4,139.65	67.8863	4,139.65	68.0049	4,139.65	60.8107	4,139.65	67.5413	4,139.65	68.7941	4,139.65	60.5212	4,139.65	64.9131	4,139.65	53.9059	4,139.65	66.4403	4,139.65	65.354	4,139.65	67.8992	4,139.65	65.9156	4,139.65	65.335	4,139.65	50.7236
4,286.13	84.3145	4,286.13	86.3676	4,286.13	86.5451	4,286.13	86.7011	4,286.13	84.8558	4,286.13	83.2835	4,286.13	84.106	4,286.13	82.2956	4,286.13	83.0457	4,286.13	81.5359	4,286.13	79.6712	4,286.13	81.6095	4,286.13	77.4292	4,286.13	81.7136	4,286.13	73.654	4,286.13	78.0491	4,286.13	63.7729	4,286.13	73.458	4,286.13	64.3547	4,286.13	71.3801	4,286.13	68.7785	4,286.13	62.8432	4,286.13	59.2279	4,286.13	68.9552	4,286.13	61.9113	4,286.13	69.8532	4,286.13	67.3954	4,286.13	57.0196	4,286.13	66.5365	4,286.13	54.7559	4,286.13	66.6488	4,286.13	62.7241	4,286.13	68.6665	4,286.13	64.2158	4,286.13	68.0205	4,286.13	54.4305
4,438.48	84.5796	4,438.48	86.8476	4,438.48	86.4251	4,438.48	86.7155	4,438.48	84.6073	4,438.48	82.9242	4,438.48	84.3268	4,438.48	82.5367	4,438.48	82.8906	4,438.48	82.0351	4,438.48	79.9408	4,438.48	80.7007	4,438.48	75.9951	4,438.48	79.6054	4,438.48	69.4322	4,438.48	80.2717	4,438.48	69.5349	4,438.48	68.032	4,438.48	69.9352	4,438.48	69.1946	4,438.48	68.0098	4,438.48	67.0928	4,438.48	67.9967	4,438.48	69.8434	4,438.48	68.1719	4,438.48	69.859	4,438.48	65.1981	4,438.48	51.0913	4,438.48	62.5954	4,438.48	52.2104	4,438.48	66.1657	4,438.48	61.351	4,438.48	69.6786	4,438.48	60.88	4,438.48	67.7218	4,438.48	58.0117
4,593.75	84.6156	4,593.75	86.9299	4,593.75	86.1732	4,593.75	86.2302	4,593.75	84.8845	4,593.75	82.8984	4,593.75	84.3533	4,593.75	82.5779	4,593.75	82.4207	4,593.75	82.4147	4,593.75	79.9418	4,593.75	79.2865	4,593.75	74.7146	4,593.75	81.0816	4,593.75	72.1794	4,593.75	78.963	4,593.75	72.2493	4,593.75	69.6992	4,593.75	69.0296	4,593.75	69.9818	4,593.75	61.4361	4,593.75	64.7674	4,593.75	66.9225	4,593.75	66.6815	4,593.75	67.7257	4,593.75	68.6124	4,593.75	65.3411	4,593.75	55.4564	4,593.75	64.8424	4,593.75	54.272	4,593.75	64.4593	4,593.75	63.7045	4,593.75	69.7175	4,593.75	63.8651	4,593.75	66.9394	4,593.75	57.15
4,757.81	84.6375	4,757.81	86.8176	4,757.81	85.679	4,757.81	85.7285	4,757.81	85.2459	4,757.81	82.6708	4,757.81	84.884	4,757.81	82.8659	4,757.81	82.3786	4,757.81	82.4582	4,757.81	79.2224	4,757.81	79.4392	4,757.81	74.1438	4,757.81	79.6063	4,757.81	75.1466	4,757.81	77.4581	4,757.81	72.6214	4,757.81	72.385	4,757.81	66.8914	4,757.81	68.4027	4,757.81	64.9695	4,757.81	61.4639	4,757.81	67.5925	4,757.81	67.4281	4,757.81	67.6678	4,757.81	65.9686	4,757.81	59.4403	4,757.81	55.5177	4,757.81	65.949	4,757.81	55.2757	4,757.81	63.85	4,757.81	62.205	4,757.81	69.279	4,757.81	63.2978	4,757.81	64.9382	4,757.81	52.2116
4,924.8	85.0997	4,924.8	86.6369	4,924.8	85.681	4,924.8	85.4533	4,924.8	85.2857	4,924.8	82.0272	4,924.8	85.1434	4,924.8	83.0377	4,924.8	82.4755	4,924.8	81.9328	4,924.8	79.2059	4,924.8	79.6965	4,924.8	76.8743	4,924.8	75.4708	4,924.8	76.8054	4,924.8	78.035	4,924.8	72.1421	4,924.8	68.9509	4,924.8	67.3706	4,924.8	64.1353	4,924.8	61.4412	4,924.8	57.7071	4,924.8	69.6769	4,924.8	66.001	4,924.8	65.6946	4,924.8	64.9581	4,924.8	58.6729	4,924.8	51.2313	4,924.8	65.4287	4,924.8	52.4896	4,924.8	63.9377	4,924.8	55.7276	4,924.8	69.1183	4,924.8	62.0519	4,924.8	63.6522	4,924.8	38.3821
5,097.66	84.9432	5,097.66	86.5422	5,097.66	85.0126	5,097.66	84.2533	5,097.66	84.573	5,097.66	82.5485	5,097.66	85.1517	5,097.66	82.8609	5,097.66	82.7465	5,097.66	81.7162	5,097.66	79.6134	5,097.66	75.6683	5,097.66	77.1705	5,097.66	77.3728	5,097.66	77.5445	5,097.66	77.472	5,097.66	72.8231	5,097.66	69.9823	5,097.66	69.6314	5,097.66	68.7085	5,097.66	59.9302	5,097.66	60.3713	5,097.66	65.4432	5,097.66	63.5659	5,097.66	67.7182	5,097.66	63.7224	5,097.66	57.8635	5,097.66	58.1721	5,097.66	63.4515	5,097.66	59.2725	5,097.66	65.3829	5,097.66	59.6845	5,097.66	66.3568	5,097.66	63.2298	5,097.66	64.1156	5,097.66	47.5008
5,279.3	84.8142	5,279.3	85.9421	5,279.3	84.6298	5,279.3	84.3066	5,279.3	84.5031	5,279.3	82.4173	5,279.3	85.3636	5,279.3	82.9478	5,279.3	82.5807	5,279.3	81.1448	5,279.3	80.9733	5,279.3	77.9291	5,279.3	77.2035	5,279.3	74.0947	5,279.3	77.758	5,279.3	74.932	5,279.3	73.4645	5,279.3	71.0187	5,279.3	69.713	5,279.3	64.8307	5,279.3	66.0854	5,279.3	56.8314	5,279.3	66.118	5,279.3	63.4341	5,279.3	66.9421	5,279.3	65.431	5,279.3	40.6782	5,279.3	53.0484	5,279.3	65.0191	5,279.3	61.7504	5,279.3	62.4828	5,279.3	53.9272	5,279.3	66.0962	5,279.3	61.0161	5,279.3	66.3405	5,279.3	51.0872
5,463.87	85.251	5,463.87	85.0409	5,463.87	85.1006	5,463.87	84.6026	5,463.87	84.098	5,463.87	82.6529	5,463.87	85.1448	5,463.87	82.4925	5,463.87	82.8272	5,463.87	80.2612	5,463.87	81.4809	5,463.87	77.4052	5,463.87	76.722	5,463.87	71.9971	5,463.87	76.3451	5,463.87	78.1503	5,463.87	67.208	5,463.87	70.8183	5,463.87	67.9697	5,463.87	65.1657	5,463.87	64.1537	5,463.87	61.8563	5,463.87	66.9416	5,463.87	64.5742	5,463.87	67.5013	5,463.87	65.0593	5,463.87	54.8012	5,463.87	50.4513	5,463.87	64.6683	5,463.87	58.6776	5,463.87	63.601	5,463.87	31.5567	5,463.87	68.2638	5,463.87	61.7893	5,463.87	65.5182	5,463.87	46.546
5,657.23	85.0544	5,657.23	84.8531	5,657.23	84.8048	5,657.23	84.5545	5,657.23	84.0258	5,657.23	83.1218	5,657.23	83.9276	5,657.23	81.9804	5,657.23	82.2748	5,657.23	79.4473	5,657.23	80.299	5,657.23	76.8668	5,657.23	76.3784	5,657.23	72.2715	5,657.23	72.9535	5,657.23	74.7034	5,657.23	66.9915	5,657.23	71.5225	5,657.23	68.1305	5,657.23	66.341	5,657.23	64.947	5,657.23	61.7658	5,657.23	70.7533	5,657.23	64.0858	5,657.23	71.1472	5,657.23	61.6476	5,657.23	63.0732	5,657.23	57.9266	5,657.23	60.1212	5,657.23	62.1685	5,657.23	64.1296	5,657.23	50.6892	5,657.23	68.2563	5,657.23	61.3767	5,657.23	62.5762	5,657.23	46.7805
5,856.45	84.8633	5,856.45	85.1081	5,856.45	84.5477	5,856.45	84.5955	5,856.45	84.2374	5,856.45	83.1017	5,856.45	82.6537	5,856.45	81.5052	5,856.45	82.3034	5,856.45	79.2537	5,856.45	79.3599	5,856.45	78.5444	5,856.45	77.1719	5,856.45	69.7407	5,856.45	71.4094	5,856.45	76.1839	5,856.45	72.7829	5,856.45	72.3313	5,856.45	70.1467	5,856.45	61.6642	5,856.45	63.9833	5,856.45	59.7887	5,856.45	69.2644	5,856.45	63.4924	5,856.45	70.0077	5,856.45	61.6128	5,856.45	64.8145	5,856.45	54.6991	5,856.45	51.956	5,856.45	58.4252	5,856.45	62.0188	5,856.45	55.4151	5,856.45	65.7857	5,856.45	58.0333	5,856.45	59.7487	5,856.45	53.8079
6,061.52	85.1999	6,061.52	85.4655	6,061.52	85.4836	6,061.52	85.0462	6,061.52	84.4489	6,061.52	83.2352	6,061.52	82.5548	6,061.52	81.1973	6,061.52	81.9187	6,061.52	78.7568	6,061.52	78.3818	6,061.52	77.3184	6,061.52	77.7577	6,061.52	71.613	6,061.52	73.2077	6,061.52	75.1181	6,061.52	74.1376	6,061.52	68.842	6,061.52	68.5887	6,061.52	63.6906	6,061.52	61.8528	6,061.52	58.8082	6,061.52	66.3284	6,061.52	61.4864	6,061.52	67.1136	6,061.52	59.2219	6,061.52	63.4632	6,061.52	48.8865	6,061.52	48.3067	6,061.52	58.4052	6,061.52	60.7814	6,061.52	50.4235	6,061.52	62.8665	6,061.52	59.0694	6,061.52	62.3223	6,061.52	51.5834
6,275.39	85.5814	6,275.39	85.9998	6,275.39	86.3078	6,275.39	85.8784	6,275.39	84.2552	6,275.39	83.6178	6,275.39	83.1399	6,275.39	81.8467	6,275.39	82.0844	6,275.39	79.1532	6,275.39	79.9463	6,275.39	78.6174	6,275.39	76.7102	6,275.39	71.2557	6,275.39	73.4556	6,275.39	75.5195	6,275.39	72.5232	6,275.39	71.4493	6,275.39	63.2859	6,275.39	63.3248	6,275.39	55.0683	6,275.39	53.1154	6,275.39	63.5833	6,275.39	62.4646	6,275.39	65.9921	6,275.39	62.471	6,275.39	61.6695	6,275.39	49.5889	6,275.39	51.3277	6,275.39	58.1862	6,275.39	57.5092	6,275.39	46.2778	6,275.39	61.9066	6,275.39	62.4394	6,275.39	58.5022	6,275.39	43.7129
6,498.05	85.5536	6,498.05	86.1348	6,498.05	86.8366	6,498.05	86.1635	6,498.05	84.8889	6,498.05	84.2349	6,498.05	83.7485	6,498.05	82.194	6,498.05	82.5608	6,498.05	79.0928	6,498.05	81.4764	6,498.05	78.3486	6,498.05	75.2826	6,498.05	72.3882	6,498.05	73.2522	6,498.05	75.7312	6,498.05	71.4352	6,498.05	68.8858	6,498.05	66.9419	6,498.05	63.0138	6,498.05	58.7495	6,498.05	55.8343	6,498.05	62.9663	6,498.05	63.7613	6,498.05	65.9758	6,498.05	61.7753	6,498.05	61.135	6,498.05	36.9308	6,498.05	58.4698	6,498.05	55.3998	6,498.05	58.3326	6,498.05	54.6965	6,498.05	60.4199	6,498.05	58.4505	6,498.05	58.9618	6,498.05	37.6805
6,726.56	85.9503	6,726.56	86.3639	6,726.56	86.9611	6,726.56	86.0935	6,726.56	84.9912	6,726.56	84.9783	6,726.56	83.7233	6,726.56	82.1726	6,726.56	83.0718	6,726.56	78.6162	6,726.56	81.442	6,726.56	78.0886	6,726.56	75.8868	6,726.56	71.0503	6,726.56	72.3693	6,726.56	72.4158	6,726.56	65.7405	6,726.56	67.863	6,726.56	69.5626	6,726.56	65.4675	6,726.56	56.6848	6,726.56	59.5822	6,726.56	67.6969	6,726.56	64.1432	6,726.56	67.3161	6,726.56	58.5062	6,726.56	65.2404	6,726.56	47.2591	6,726.56	55.1408	6,726.56	50.5955	6,726.56	59.1355	6,726.56	58.7174	6,726.56	60.6181	6,726.56	59.9545	6,726.56	58.694	6,726.56	42.9095
6,963.87	86.3871	6,963.87	86.3454	6,963.87	86.9084	6,963.87	85.656	6,963.87	85.5866	6,963.87	84.8689	6,963.87	84.7007	6,963.87	82.438	6,963.87	82.2806	6,963.87	78.4825	6,963.87	80.121	6,963.87	77.3901	6,963.87	76.1251	6,963.87	71.7456	6,963.87	69.8675	6,963.87	73.4752	6,963.87	68.1951	6,963.87	63.7291	6,963.87	67.9567	6,963.87	59.7341	6,963.87	67.8576	6,963.87	59.8841	6,963.87	69.473	6,963.87	62.4668	6,963.87	68.338	6,963.87	56.3986	6,963.87	64.8322	6,963.87	41.8081	6,963.87	55.3057	6,963.87	36.3069	6,963.87	60.5258	6,963.87	58.053	6,963.87	62.3298	6,963.87	59.5683	6,963.87	58.6047	6,963.87	46.2034
7,209.96	86.0124	7,209.96	85.733	7,209.96	86.4345	7,209.96	85.6248	7,209.96	85.7185	7,209.96	85.1362	7,209.96	85.2549	7,209.96	82.7631	7,209.96	81.6588	7,209.96	78.8687	7,209.96	80.0486	7,209.96	77.5536	7,209.96	74.5494	7,209.96	69.2123	7,209.96	72.477	7,209.96	69.4927	7,209.96	71.4312	7,209.96	67.2869	7,209.96	68.1798	7,209.96	61.962	7,209.96	71.3418	7,209.96	60.3586	7,209.96	70.4771	7,209.96	61.0498	7,209.96	69.1179	7,209.96	53.0613	7,209.96	64.9911	7,209.96	45.2337	7,209.96	55.1968	7,209.96	34.7063	7,209.96	57.9768	7,209.96	54.4318	7,209.96	62.1458	7,209.96	57.6725	7,209.96	60.5036	7,209.96	49.4336
7,464.84	86.1293	7,464.84	85.5542	7,464.84	85.8877	7,464.84	85.6254	7,464.84	85.5915	7,464.84	84.9822	7,464.84	84.9736	7,464.84	82.9349	7,464.84	82.2738	7,464.84	78.5881	7,464.84	80.1528	7,464.84	77.1572	7,464.84	74.9898	7,464.84	70.8664	7,464.84	76.0589	7,464.84	69.9248	7,464.84	71.9279	7,464.84	63.7565	7,464.84	70.2313	7,464.84	61.6507	7,464.84	71.852	7,464.84	60.7937	7,464.84	71.6059	7,464.84	59.2241	7,464.84	68.4702	7,464.84	51.3047	7,464.84	59.2026	7,464.84	52.8297	7,464.84	58.3416	7,464.84	39.4013	7,464.84	56.4282	7,464.84	57.6002	7,464.84	60.8288	7,464.84	57.0451	7,464.84	58.4482	7,464.84	46.3536
7,728.52	86.4352	7,728.52	85.5674	7,728.52	85.6582	7,728.52	85.4077	7,728.52	85.3229	7,728.52	85.0395	7,728.52	84.7736	7,728.52	83.3652	7,728.52	82.7684	7,728.52	79.3942	7,728.52	78.7829	7,728.52	75.9482	7,728.52	76.7789	7,728.52	72.3771	7,728.52	76.6907	7,728.52	67.5867	7,728.52	71.4927	7,728.52	65.4675	7,728.52	71.097	7,728.52	61.6674	7,728.52	71.7201	7,728.52	57.6304	7,728.52	71.221	7,728.52	55.511	7,728.52	68.1548	7,728.52	54.8666	7,728.52	62.9175	7,728.52	56.0552	7,728.52	45.6708	7,728.52	46.8481	7,728.52	55.081	7,728.52	55.9178	7,728.52	61.625	7,728.52	53.3519	7,728.52	51.2386	7,728.52	44.623
8,000.98	86.5007	8,000.98	85.9388	8,000.98	85.9969	8,000.98	85.6372	8,000.98	85.6539	8,000.98	85.1757	8,000.98	84.8226	8,000.98	83.6576	8,000.98	82.0329	8,000.98	79.9686	8,000.98	78.092	8,000.98	76.2507	8,000.98	76.9422	8,000.98	73.6524	8,000.98	74.9049	8,000.98	68.8795	8,000.98	67.0813	8,000.98	63.1605	8,000.98	71.459	8,000.98	61.7012	8,000.98	68.4829	8,000.98	52.8806	8,000.98	70.0577	8,000.98	54.6051	8,000.98	68.9981	8,000.98	54.4115	8,000.98	61.5515	8,000.98	57.1695	8,000.98	51.8608	8,000.98	50.1993	8,000.98	58.7204	8,000.98	58.2398	8,000.98	55.5117	8,000.98	53.8754	8,000.98	53.5704	8,000.98	47.2127
8,282.23	87.3928	8,282.23	86.4827	8,282.23	86.1611	8,282.23	85.9515	8,282.23	85.451	8,282.23	85.0404	8,282.23	84.5916	8,282.23	84.1399	8,282.23	82.4349	8,282.23	79.7912	8,282.23	79.154	8,282.23	76.8438	8,282.23	77.3311	8,282.23	73.4477	8,282.23	69.6415	8,282.23	68.5472	8,282.23	66.038	8,282.23	63.7573	8,282.23	68.715	8,282.23	60.4979	8,282.23	68.5247	8,282.23	48.8226	8,282.23	70.4553	8,282.23	50.3813	8,282.23	70.2472	8,282.23	54.2947	8,282.23	63.6748	8,282.23	53.4572	8,282.23	58.5274	8,282.23	53.8812	8,282.23	55.7848	8,282.23	51.7114	8,282.23	57.3769	8,282.23	54.1447	8,282.23	55.755	8,282.23	41.3503
8,575.2	87.3392	8,575.2	86.3116	8,575.2	86.2458	8,575.2	85.9339	8,575.2	85.687	8,575.2	85.1725	8,575.2	84.4168	8,575.2	84.4393	8,575.2	83.0672	8,575.2	79.7673	8,575.2	79.7812	8,575.2	76.1847	8,575.2	76.1762	8,575.2	73.1142	8,575.2	64.6434	8,575.2	67.3941	8,575.2	69.1287	8,575.2	58.1296	8,575.2	69.234	8,575.2	59.4345	8,575.2	70.194	8,575.2	34.5723	8,575.2	70.7153	8,575.2	55.5311	8,575.2	71.7656	8,575.2	56.1981	8,575.2	63.9158	8,575.2	54.6766	8,575.2	45.8873	8,575.2	54.1818	8,575.2	57.8506	8,575.2	52.466	8,575.2	60.4583	8,575.2	53.5454	8,575.2	49.1503	8,575.2	47.4956
8,876.95	87.1046	8,876.95	86.1616	8,876.95	86.3527	8,876.95	85.4744	8,876.95	85.6559	8,876.95	85.0688	8,876.95	84.3373	8,876.95	84.0195	8,876.95	83.4788	8,876.95	79.6465	8,876.95	80.1741	8,876.95	75.587	8,876.95	74.4339	8,876.95	71.2133	8,876.95	71.385	8,876.95	68.5268	8,876.95	69.3643	8,876.95	60.8913	8,876.95	69.5716	8,876.95	57.7129	8,876.95	69.3901	8,876.95	50.94	8,876.95	72.9285	8,876.95	58.5493	8,876.95	73.0089	8,876.95	57.4151	8,876.95	66.0052	8,876.95	47.3286	8,876.95	55.9574	8,876.95	52.1855	8,876.95	56.3111	8,876.95	51.2248	8,876.95	60.3588	8,876.95	54.9531	8,876.95	51.9632	8,876.95	51.2242
9,190.43	86.5927	9,190.43	85.9388	9,190.43	85.9216	9,190.43	84.9938	9,190.43	85.1128	9,190.43	84.904	9,190.43	84.1146	9,190.43	83.5143	9,190.43	82.6189	9,190.43	80.322	9,190.43	79.9357	9,190.43	74.9943	9,190.43	70.9544	9,190.43	68.9725	9,190.43	73.7117	9,190.43	68.3343	9,190.43	68.2097	9,190.43	61.6834	9,190.43	70.127	9,190.43	56.5757	9,190.43	70.9324	9,190.43	57.6974	9,190.43	73.2657	9,190.43	60.9906	9,190.43	73.9854	9,190.43	58.86	9,190.43	66.471	9,190.43	49.1518	9,190.43	55.479	9,190.43	55.4681	9,190.43	56.4285	9,190.43	53.439	9,190.43	55.6134	9,190.43	54.2387	9,190.43	53.0036	9,190.43	52.2993
9,512.7	86.1995	9,512.7	86.043	9,512.7	85.9915	9,512.7	85.0388	9,512.7	84.9202	9,512.7	84.6988	9,512.7	84.224	9,512.7	82.8352	9,512.7	81.9892	9,512.7	80.882	9,512.7	79.1242	9,512.7	76.0677	9,512.7	75.1132	9,512.7	68.4763	9,512.7	73.0388	9,512.7	67.9935	9,512.7	64.9829	9,512.7	61.8999	9,512.7	69.2517	9,512.7	41.9392	9,512.7	72.8215	9,512.7	57.9386	9,512.7	73.1265	9,512.7	61.4834	9,512.7	73.5227	9,512.7	54.1801	9,512.7	63.5966	9,512.7	43.6805	9,512.7	57.4404	9,512.7	54.9062	9,512.7	54.3949	9,512.7	46.975	9,512.7	42.4142	9,512.7	55.93	9,512.7	56.8486	9,512.7	52.2964
9,849.61	86.3756	9,849.61	86.0941	9,849.61	85.694	9,849.61	85.3523	9,849.61	85.0559	9,849.61	84.1153	9,849.61	84.338	9,849.61	82.5084	9,849.61	81.6455	9,849.61	80.1338	9,849.61	78.1989	9,849.61	76.4301	9,849.61	77.1405	9,849.61	69.8854	9,849.61	69.2447	9,849.61	66.3507	9,849.61	65.1335	9,849.61	53.6542	9,849.61	66.0721	9,849.61	55.7741	9,849.61	72.5531	9,849.61	55.5184	9,849.61	73.3371	9,849.61	58.0655	9,849.61	73.5952	9,849.61	42.738	9,849.61	63.8708	9,849.61	49.5057	9,849.61	55.3251	9,849.61	51.9272	9,849.61	55.1611	9,849.61	43.1343	9,849.61	55.7215	9,849.61	55.8297	9,849.61	58.2893	9,849.61	47.881
10,195.3	86.6309	10,195.3	86.1084	10,195.3	85.6964	10,195.3	85.5124	10,195.3	84.8091	10,195.3	83.6721	10,195.3	83.3498	10,195.3	82.4524	10,195.3	81.6184	10,195.3	79.3451	10,195.3	78.6945	10,195.3	76.2797	10,195.3	76.7022	10,195.3	70.5543	10,195.3	69.2939	10,195.3	66.4713	10,195.3	63.3782	10,195.3	51.9395	10,195.3	65.1574	10,195.3	59.4139	10,195.3	71.5966	10,195.3	52.0642	10,195.3	74.6845	10,195.3	56.1042	10,195.3	74.6352	10,195.3	51.1474	10,195.3	67.3091	10,195.3	54.021	10,195.3	57.3892	10,195.3	47.5822	10,195.3	52.6082	10,195.3	56.1035	10,195.3	55.4554	10,195.3	55.9313	10,195.3	52.8432	10,195.3	45.8214
10,555.7	86.7856	10,555.7	86.0489	10,555.7	86.1193	10,555.7	85.494	10,555.7	85.2683	10,555.7	83.1698	10,555.7	83.7971	10,555.7	82.0977	10,555.7	82.2771	10,555.7	78.5418	10,555.7	78.5085	10,555.7	76.0975	10,555.7	74.3403	10,555.7	70.6787	10,555.7	69.8504	10,555.7	66.5362	10,555.7	62.8782	10,555.7	58.3528	10,555.7	67.6282	10,555.7	60.8242	10,555.7	72.5185	10,555.7	47.7359	10,555.7	75.226	10,555.7	51.6114	10,555.7	74.8891	10,555.7	53.9327	10,555.7	67.3748	10,555.7	53.8468	10,555.7	55.9493	10,555.7	51.1652	10,555.7	54.706	10,555.7	54.3237	10,555.7	57.2428	10,555.7	54.5008	10,555.7	43.6251	10,555.7	47.7834
10,927.7	86.2065	10,927.7	85.5247	10,927.7	86.0244	10,927.7	85.2525	10,927.7	85.1141	10,927.7	83.4137	10,927.7	83.4145	10,927.7	81.7856	10,927.7	81.5028	10,927.7	78.5035	10,927.7	76.8159	10,927.7	75.3931	10,927.7	75.1612	10,927.7	70.6645	10,927.7	69.6433	10,927.7	65.0339	10,927.7	61.6905	10,927.7	60.4788	10,927.7	65.7014	10,927.7	58.8456	10,927.7	71.4513	10,927.7	38.4207	10,927.7	74.9992	10,927.7	51.9258	10,927.7	74.7087	10,927.7	53.8325	10,927.7	66.3385	10,927.7	51.8741	10,927.7	58.3897	10,927.7	46.9977	10,927.7	56.8179	10,927.7	54.8299	10,927.7	53.8713	10,927.7	55.1087	10,927.7	48.2385	10,927.7	48.8301
11,314.5	85.8285	11,314.5	85.3019	11,314.5	86.0046	11,314.5	85.1528	11,314.5	84.8828	11,314.5	83.7959	11,314.5	83.2297	11,314.5	81.5743	11,314.5	80.6576	11,314.5	78.522	11,314.5	78.3194	11,314.5	75.2162	11,314.5	75.2649	11,314.5	70.0552	11,314.5	68.9477	11,314.5	63.1662	11,314.5	61.6115	11,314.5	60.4678	11,314.5	64.1882	11,314.5	55.6304	11,314.5	71.4145	11,314.5	41.0005	11,314.5	74.335	11,314.5	52.4122	11,314.5	74.2119	11,314.5	54.045	11,314.5	64.5461	11,314.5	48.3155	11,314.5	58.1692	11,314.5	47.631	11,314.5	56.2904	11,314.5	51.9968	11,314.5	51.2278	11,314.5	56.8955	11,314.5	50.0537	11,314.5	52.6558
11,712.9	85.5483	11,712.9	85.5592	11,712.9	85.6869	11,712.9	85.3495	11,712.9	85.0135	11,712.9	83.9834	11,712.9	83.615	11,712.9	81.4158	11,712.9	80.8415	11,712.9	78.5223	11,712.9	79.2285	11,712.9	74.933	11,712.9	73.5432	11,712.9	70.2889	11,712.9	69.1691	11,712.9	61.0084	11,712.9	63.5262	11,712.9	59.7613	11,712.9	59.7943	11,712.9	52.6902	11,712.9	70.5274	11,712.9	47.1494	11,712.9	74.6009	11,712.9	52.6241	11,712.9	74.9441	11,712.9	53.105	11,712.9	64.4347	11,712.9	36.2574	11,712.9	56.4362	11,712.9	49.1104	11,712.9	52.1869	11,712.9	51.2015	11,712.9	53.8041	11,712.9	54.927	11,712.9	55.5934	11,712.9	51.9413
12,126	85.4619	12,126	85.4058	12,126	85.065	12,126	85.0573	12,126	84.3693	12,126	83.7491	12,126	83.5277	12,126	80.981	12,126	80.725	12,126	78.4077	12,126	77.8497	12,126	74.3145	12,126	73.0675	12,126	70.6486	12,126	69.7284	12,126	64.7663	12,126	64.1817	12,126	59.4579	12,126	56.4331	12,126	56.6305	12,126	70.2962	12,126	45.656	12,126	74.1052	12,126	53.5861	12,126	74.5968	12,126	52.6657	12,126	64.8404	12,126	38.0777	12,126	55.3339	12,126	43.0403	12,126	49.9144	12,126	44.8939	12,126	51.3538	12,126	56.3283	12,126	52.4314	12,126	52.0615
12,553.7	85.6085	12,553.7	85.1641	12,553.7	85.1717	12,553.7	84.7711	12,553.7	84.1195	12,553.7	83.5801	12,553.7	82.5574	12,553.7	80.2027	12,553.7	79.7692	12,553.7	77.7473	12,553.7	75.3754	12,553.7	73.2062	12,553.7	72.7955	12,553.7	69.7143	12,553.7	69.4974	12,553.7	64.1568	12,553.7	59.2076	12,553.7	59.26	12,553.7	56.2715	12,553.7	57.2368	12,553.7	68.173	12,553.7	38.9933	12,553.7	73.0499	12,553.7	50.2281	12,553.7	73.8394	12,553.7	44.5182	12,553.7	63.5451	12,553.7	41.411	12,553.7	54.2562	12,553.7	40.039	12,553.7	58.0892	12,553.7	49.5356	12,553.7	44.1545	12,553.7	53.1901	12,553.7	54.2628	12,553.7	48.5347
12,996.1	85.51	12,996.1	84.7911	12,996.1	85.0392	12,996.1	84.4249	12,996.1	83.9587	12,996.1	82.9311	12,996.1	81.9159	12,996.1	79.3344	12,996.1	78.7584	12,996.1	76.911	12,996.1	75.122	12,996.1	72.7505	12,996.1	71.0317	12,996.1	67.0387	12,996.1	67.0557	12,996.1	63.1324	12,996.1	59.3253	12,996.1	59.4854	12,996.1	52.1426	12,996.1	54.5528	12,996.1	65.658	12,996.1	44.1218	12,996.1	71.6355	12,996.1	50.353	12,996.1	72.9584	12,996.1	51.8777	12,996.1	61.3833	12,996.1	29.6401	12,996.1	53.0441	12,996.1	37.1674	12,996.1	54.525	12,996.1	47.5741	12,996.1	52.8777	12,996.1	53.9808	12,996.1	53.5837	12,996.1	54.3019
13,453.1	85.3435	13,453.1	84.8411	13,453.1	84.8026	13,453.1	83.9907	13,453.1	83.6104	13,453.1	81.9093	13,453.1	81.1972	13,453.1	78.3311	13,453.1	77.9875	13,453.1	75.2858	13,453.1	73.3089	13,453.1	72.288	13,453.1	70.6991	13,453.1	63.7581	13,453.1	64.6138	13,453.1	62.2958	13,453.1	62.441	13,453.1	58.5213	13,453.1	39.2469	13,453.1	53.6639	13,453.1	63.1827	13,453.1	50.7444	13,453.1	69.4608	13,453.1	53.4519	13,453.1	72.0969	13,453.1	53.4548	13,453.1	61.276	13,453.1	30.1131	13,453.1	54.0121	13,453.1	39.0463	13,453.1	54.2629	13,453.1	41.9272	13,453.1	53.114	13,453.1	53.2257	13,453.1	54.8182	13,453.1	54.8647
13,927.7	84.5845	13,927.7	84.5238	13,927.7	84.0741	13,927.7	83.3577	13,927.7	83.2273	13,927.7	80.752	13,927.7	80.7061	13,927.7	77.7184	13,927.7	77.3403	13,927.7	73.6047	13,927.7	73.0342	13,927.7	70.705	13,927.7	70.6817	13,927.7	64.3774	13,927.7	64.8087	13,927.7	60.9649	13,927.7	62.0743	13,927.7	59.0813	13,927.7	39.5125	13,927.7	55.508	13,927.7	61.4073	13,927.7	50.7037	13,927.7	68.0692	13,927.7	54.0915	13,927.7	70.8853	13,927.7	55.8632	13,927.7	58.8501	13,927.7	37.4172	13,927.7	46.679	13,927.7	39.7391	13,927.7	55.5206	13,927.7	44.3901	13,927.7	44.4997	13,927.7	54.9883	13,927.7	52.6934	13,927.7	58.6076
14,419.9	83.548	14,419.9	83.6254	14,419.9	83.594	14,419.9	82.8091	14,419.9	82.6773	14,419.9	79.8508	14,419.9	80.8178	14,419.9	77.1964	14,419.9	77.2786	14,419.9	73.7385	14,419.9	73.7751	14,419.9	69.7798	14,419.9	69.9482	14,419.9	65.8855	14,419.9	66.6019	14,419.9	61.9344	14,419.9	59.9009	14,419.9	60.6758	14,419.9	49.471	14,419.9	55.4652	14,419.9	62.5566	14,419.9	52.1828	14,419.9	66.0395	14,419.9	55.7775	14,419.9	70.3111	14,419.9	59.8128	14,419.9	56.7864	14,419.9	46.9631	14,419.9	53.1094	14,419.9	45.4733	14,419.9	56.6482	14,419.9	43.4684	14,419.9	54.4245	14,419.9	56.6477	14,419.9	55.5314	14,419.9	59.5487
14,929.7	82.8253	14,929.7	83.0773	14,929.7	83.4245	14,929.7	82.4504	14,929.7	82.635	14,929.7	79.8052	14,929.7	80.8291	14,929.7	76.8421	14,929.7	77.31	14,929.7	75.1023	14,929.7	74.1951	14,929.7	70.5925	14,929.7	69.338	14,929.7	66.7772	14,929.7	68.352	14,929.7	63.9173	14,929.7	62.5097	14,929.7	63.51	14,929.7	50.8424	14,929.7	55.9347	14,929.7	61.4256	14,929.7	55.5578	14,929.7	63.0052	14,929.7	56.8046	14,929.7	70.1421	14,929.7	61.2913	14,929.7	56.2364	14,929.7	49.2652	14,929.7	55.8951	14,929.7	44.1181	14,929.7	56.6574	14,929.7	50.2904	14,929.7	56.1636	14,929.7	55.7213	14,929.7	57.3845	14,929.7	61.1216
15,454.1	82.1815	15,454.1	82.853	15,454.1	83.2675	15,454.1	82.1081	15,454.1	82.6759	15,454.1	80.2662	15,454.1	81.4299	15,454.1	77.3514	15,454.1	78.1555	15,454.1	75.6926	15,454.1	74.9779	15,454.1	72.5024	15,454.1	70.4172	15,454.1	66.9189	15,454.1	68.3994	15,454.1	65.6816	15,454.1	63.3476	15,454.1	63.9957	15,454.1	55.7107	15,454.1	57.1438	15,454.1	58.9877	15,454.1	59.2056	15,454.1	55.8968	15,454.1	58.8409	15,454.1	69.9401	15,454.1	63.7046	15,454.1	57.3562	15,454.1	52.355	15,454.1	55.5264	15,454.1	50.9699	15,454.1	54.6227	15,454.1	52.1035	15,454.1	58.9843	15,454.1	55.3427	15,454.1	60.2609	15,454.1	61.6825
15,999	81.881	15,999	83.1045	15,999	83.3705	15,999	82.4975	15,999	83.2623	15,999	80.7399	15,999	82.1954	15,999	78.5932	15,999	78.6215	15,999	75.4545	15,999	73.6008	15,999	73.3919	15,999	71.7321	15,999	67.3201	15,999	67.9722	15,999	66.3637	15,999	64.3564	15,999	64.9411	15,999	59.8716	15,999	57.7391	15,999	57.9039	15,999	60.7737	15,999	49.9526	15,999	59.2229	15,999	69.0453	15,999	65.1527	15,999	54.9224	15,999	53.2411	15,999	54.9378	15,999	47.5708	15,999	54.9482	15,999	53.3817	15,999	60.5896	15,999	56.8157	15,999	62.8313	15,999	62.6085
16,564.5	82.072	16,564.5	83.505	16,564.5	83.674	16,564.5	83.1135	16,564.5	83.719	16,564.5	80.9486	16,564.5	82.4775	16,564.5	79.1681	16,564.5	78.9254	16,564.5	75.236	16,564.5	74.3247	16,564.5	73.7855	16,564.5	71.962	16,564.5	67.6297	16,564.5	67.5424	16,564.5	66.8611	16,564.5	64.4997	16,564.5	66.3731	16,564.5	61.2618	16,564.5	56.8694	16,564.5	57.5763	16,564.5	62.7294	16,564.5	61.9002	16,564.5	61.1839	16,564.5	69.1413	16,564.5	66.0807	16,564.5	57.7857	16,564.5	56.6881	16,564.5	54.9626	16,564.5	51.2718	16,564.5	58.411	16,564.5	56.8439	16,564.5	62.1197	16,564.5	58.1616	16,564.5	64.2816	16,564.5	63.5243
17,147.5	82.8417	17,147.5	84.2118	17,147.5	84.017	17,147.5	83.6615	17,147.5	83.7477	17,147.5	80.9815	17,147.5	82.3108	17,147.5	78.8014	17,147.5	77.8994	17,147.5	74.9377	17,147.5	74.494	17,147.5	73.8321	17,147.5	68.7109	17,147.5	67.5344	17,147.5	68.2008	17,147.5	66.8877	17,147.5	63.0453	17,147.5	66.4585	17,147.5	62.6726	17,147.5	57.8007	17,147.5	58.7414	17,147.5	63.0973	17,147.5	64.7665	17,147.5	61.9672	17,147.5	68.5474	17,147.5	66.7971	17,147.5	58.9445	17,147.5	57.5719	17,147.5	55.6287	17,147.5	51.9076	17,147.5	59.3441	17,147.5	57.2778	17,147.5	62.8267	17,147.5	58.9331	17,147.5	65.4516	17,147.5	63.7584
17,753.9	83.2206	17,753.9	84.9309	17,753.9	84.4928	17,753.9	83.6021	17,753.9	83.7343	17,753.9	80.5329	17,753.9	82.0304	17,753.9	78.4355	17,753.9	77.2641	17,753.9	74.741	17,753.9	72.0928	17,753.9	73.5742	17,753.9	67.7426	17,753.9	67.1103	17,753.9	64.4895	17,753.9	67.44	17,753.9	63.3082	17,753.9	66.7152	17,753.9	62.4462	17,753.9	58.4982	17,753.9	58.7398	17,753.9	63.2278	17,753.9	67.07	17,753.9	62.3022	17,753.9	69.0861	17,753.9	66.606	17,753.9	59.9285	17,753.9	58.2203	17,753.9	53.4625	17,753.9	54.8265	17,753.9	57.6093	17,753.9	59.0265	17,753.9	63.2718	17,753.9	58.0403	17,753.9	65.9953	17,753.9	63.1888
18,377.9	82.8209	18,377.9	85.2683	18,377.9	84.5776	18,377.9	83.4892	18,377.9	83.7467	18,377.9	80.7277	18,377.9	82.0907	18,377.9	78.6485	18,377.9	76.9562	18,377.9	74.9013	18,377.9	69.0876	18,377.9	74.1653	18,377.9	68.6178	18,377.9	67.134	18,377.9	65.3444	18,377.9	66.4459	18,377.9	61.5079	18,377.9	67.0467	18,377.9	61.6093	18,377.9	58.907	18,377.9	57.9824	18,377.9	63.8393	18,377.9	68.9657	18,377.9	62.572	18,377.9	68.737	18,377.9	66.9201	18,377.9	60.7823	18,377.9	57.4704	18,377.9	56.249	18,377.9	55.3394	18,377.9	58.0408	18,377.9	59.6756	18,377.9	64.1408	18,377.9	56.6892	18,377.9	67.2013	18,377.9	63.8181
19,028.3	82.969	19,028.3	85.4745	19,028.3	84.5647	19,028.3	83.4074	19,028.3	83.4751	19,028.3	80.5609	19,028.3	81.6267	19,028.3	78.6344	19,028.3	76.4425	19,028.3	74.36	19,028.3	68.4883	19,028.3	73.9452	19,028.3	67.0682	19,028.3	65.9206	19,028.3	64.2593	19,028.3	64.7631	19,028.3	57.989	19,028.3	66.4195	19,028.3	62.047	19,028.3	58.2941	19,028.3	57.8783	19,028.3	63.6904	19,028.3	68.887	19,028.3	62.7679	19,028.3	68.7176	19,028.3	66.9703	19,028.3	60.9367	19,028.3	56.6467	19,028.3	56.2706	19,028.3	55.622	19,028.3	58.9687	19,028.3	59.3505	19,028.3	63.8977	19,028.3	56.0484	19,028.3	67.0817	19,028.3	63.2236
19,699.2	83.7196	19,699.2	85.7064	19,699.2	84.8709	19,699.2	83.2651	19,699.2	83.311	19,699.2	80.0809	19,699.2	81.0305	19,699.2	78.0713	19,699.2	75.2629	19,699.2	72.9197	19,699.2	65.3056	19,699.2	73.4448	19,699.2	63.5366	19,699.2	64.3074	19,699.2	62.4093	19,699.2	63.8681	19,699.2	58.419	19,699.2	65.8074	19,699.2	60.5604	19,699.2	57.526	19,699.2	55.8936	19,699.2	63.259	19,699.2	69.0088	19,699.2	62.3831	19,699.2	68.8818	19,699.2	65.8024	19,699.2	61.3371	19,699.2	55.4262	19,699.2	55.1367	19,699.2	56.135	19,699.2	56.893	19,699.2	57.3287	19,699.2	62.9841	19,699.2	55.4673	19,699.2	66.5388	19,699.2	62.2752
19,998	83.9473	19,998	85.7503	19,998	84.9202	19,998	83.3289	19,998	83.1107	19,998	79.5115	19,998	80.9829	19,998	77.4452	19,998	74.8465	19,998	72.2899	19,998	63.2817	19,998	73.9403	19,998	64.8278	19,998	63.6599	19,998	62.7021	19,998	62.2909	19,998	55.9409	19,998	66.1068	19,998	58.7008	19,998	55.9082	19,998	54.141	19,998	62.0929	19,998	69.2744	19,998	64.1451	19,998	68.555	19,998	64.5964	19,998	60.696	19,998	53.0793	19,998	52.0559	19,998	55.5213	19,998	57.6932	19,998	57.2583	19,998	62.2427	19,998	55.9166	19,998	65.7397	19,998	63.1019
