"SPL Horizontal"																																																																							
"On-Axis"		"10°"		"-10°"		"20°"		"-20°"		"30°"		"-30°"		"40°"		"-40°"		"50°"		"-50°"		"60°"		"-60°"		"70°"		"-70°"		"80°"		"-80°"		"90°"		"-90°"		"100°"		"-100°"		"110°"		"-110°"		"120°"		"-120°"		"130°"		"-130°"		"140°"		"-140°"		"150°"		"-150°"		"160°"		"-160°"		"170°"		"-170°"		"180°"	
"Frequency [Hz]"	"Sound Pessure Level [dB]  / [2.83V 1m] "	"Frequency [Hz]"	"Sound Pessure Level [dB]  / [2.83V 1m] "	"Frequency [Hz]"	"Sound Pessure Level [dB]  / [2.83V 1m] "	"Frequency [Hz]"	"Sound Pessure Level [dB]  / [2.83V 1m] "	"Frequency [Hz]"	"Sound Pessure Level [dB]  / [2.83V 1m] "	"Frequency [Hz]"	"Sound Pessure Level [dB]  / [2.83V 1m] "	"Frequency [Hz]"	"Sound Pessure Level [dB]  / [2.83V 1m] "	"Frequency [Hz]"	"Sound Pessure Level [dB]  / [2.83V 1m] "	"Frequency [Hz]"	"Sound Pessure Level [dB]  / [2.83V 1m] "	"Frequency [Hz]"	"Sound Pessure Level [dB]  / [2.83V 1m] "	"Frequency [Hz]"	"Sound Pessure Level [dB]  / [2.83V 1m] "	"Frequency [Hz]"	"Sound Pessure Level [dB]  / [2.83V 1m] "	"Frequency [Hz]"	"Sound Pessure Level [dB]  / [2.83V 1m] "	"Frequency [Hz]"	"Sound Pessure Level [dB]  / [2.83V 1m] "	"Frequency [Hz]"	"Sound Pessure Level [dB]  / [2.83V 1m] "	"Frequency [Hz]"	"Sound Pessure Level [dB]  / [2.83V 1m] "	"Frequency [Hz]"	"Sound Pessure Level [dB]  / [2.83V 1m] "	"Frequency [Hz]"	"Sound Pessure Level [dB]  / [2.83V 1m] "	"Frequency [Hz]"	"Sound Pessure Level [dB]  / [2.83V 1m] "	"Frequency [Hz]"	"Sound Pessure Level [dB]  / [2.83V 1m] "	"Frequency [Hz]"	"Sound Pessure Level [dB]  / [2.83V 1m] "	"Frequency [Hz]"	"Sound Pessure Level [dB]  / [2.83V 1m] "	"Frequency [Hz]"	"Sound Pessure Level [dB]  / [2.83V 1m] "	"Frequency [Hz]"	"Sound Pessure Level [dB]  / [2.83V 1m] "	"Frequency [Hz]"	"Sound Pessure Level [dB]  / [2.83V 1m] "	"Frequency [Hz]"	"Sound Pessure Level [dB]  / [2.83V 1m] "	"Frequency [Hz]"	"Sound Pessure Level [dB]  / [2.83V 1m] "	"Frequency [Hz]"	"Sound Pessure Level [dB]  / [2.83V 1m] "	"Frequency [Hz]"	"Sound Pessure Level [dB]  / [2.83V 1m] "	"Frequency [Hz]"	"Sound Pessure Level [dB]  / [2.83V 1m] "	"Frequency [Hz]"	"Sound Pessure Level [dB]  / [2.83V 1m] "	"Frequency [Hz]"	"Sound Pessure Level [dB]  / [2.83V 1m] "	"Frequency [Hz]"	"Sound Pessure Level [dB]  / [2.83V 1m] "	"Frequency [Hz]"	"Sound Pessure Level [dB]  / [2.83V 1m] "	"Frequency [Hz]"	"Sound Pessure Level [dB]  / [2.83V 1m] "	"Frequency [Hz]"	"Sound Pessure Level [dB]  / [2.83V 1m] "
20.5078	50.81	20.5078	50.9317	20.5078	50.7767	20.5078	51.141	20.5078	50.834	20.5078	51.4382	20.5078	50.9855	20.5078	51.8215	20.5078	51.2347	20.5078	52.286	20.5078	51.5825	20.5078	52.8214	20.5078	52.0245	20.5078	53.4122	20.5078	52.5499	20.5078	54.0387	20.5078	53.1418	20.5078	54.6789	20.5078	53.7784	20.5078	55.3102	20.5078	54.4356	20.5078	55.9111	20.5078	55.0888	20.5078	56.4618	20.5078	55.715	20.5078	56.9449	20.5078	56.2933	20.5078	57.346	20.5078	56.8056	20.5078	57.6532	20.5078	57.2369	20.5078	57.8577	20.5078	57.5749	20.5078	57.9536	20.5078	57.8106	20.5078	57.9378
23.4375	53.3957	23.4375	53.3349	23.4375	53.3908	23.4375	53.2108	23.4375	53.3198	23.4375	53.0291	23.4375	53.1849	23.4375	52.8	23.4375	52.9906	23.4375	52.5394	23.4375	52.7454	23.4375	52.271	23.4375	52.463	23.4375	52.0268	23.4375	52.1642	23.4375	51.844	23.4375	51.8784	23.4375	51.7578	23.4375	51.643	23.4375	51.79	23.4375	51.4976	23.4375	51.9388	23.4375	51.4739	23.4375	52.1774	23.4375	51.5831	23.4375	52.4619	23.4375	51.8089	23.4375	52.7435	23.4375	52.1116	23.4375	52.9792	23.4375	52.4407	23.4375	53.1363	23.4375	52.747	23.4375	53.1945	23.4375	52.9908	23.4375	53.1449
26.3672	54.8786	26.3672	54.9017	26.3672	54.8422	26.3672	54.9178	26.3672	54.7942	26.3672	54.9407	26.3672	54.7445	26.3672	54.9909	26.3672	54.711	26.3672	55.0934	26.3672	54.7188	26.3672	55.273	26.3672	54.7971	26.3672	55.548	26.3672	54.9734	26.3672	55.9235	26.3672	55.2654	26.3672	56.388	26.3672	55.6738	26.3672	56.9157	26.3672	56.1803	26.3672	57.4718	26.3672	56.7518	26.3672	58.0198	26.3672	57.3483	26.3672	58.5258	26.3672	57.9302	26.3672	58.9618	26.3672	58.4632	26.3672	59.3059	26.3672	58.9197	26.3672	59.5423	26.3672	59.2794	26.3672	59.6609	26.3672	59.5279	26.3672	59.6563
29.2969	55.0972	29.2969	55.0146	29.2969	55.0864	29.2969	54.8443	29.2969	54.9826	29.2969	54.5998	29.2969	54.7922	29.2969	54.3061	29.2969	54.5301	29.2969	54.0055	29.2969	54.2238	29.2969	53.7606	29.2969	53.9188	29.2969	53.6493	29.2969	53.682	29.2969	53.7433	29.2969	53.5941	29.2969	54.074	29.2969	53.7241	29.2969	54.6125	29.2969	54.0953	29.2969	55.2835	29.2969	54.6683	29.2969	55.9982	29.2969	55.3611	29.2969	56.6807	29.2969	56.0841	29.2969	57.2765	29.2969	56.7635	29.2969	57.75	29.2969	57.3479	29.2969	58.0795	29.2969	57.8043	29.2969	58.2529	29.2969	58.1134	29.2969	58.2644
32.2266	58.8314	32.2266	58.8002	32.2266	58.8055	32.2266	58.7178	32.2266	58.7223	32.2266	58.5969	32.2266	58.5874	32.2266	58.4576	32.2266	58.4138	32.2266	58.3286	32.2266	58.223	32.2266	58.2461	32.2266	58.0471	32.2266	58.249	32.2266	57.9271	32.2266	58.3689	32.2266	57.9081	32.2266	58.619	32.2266	58.0265	32.2266	58.9872	32.2266	58.2959	32.2266	59.4386	32.2266	58.6999	32.2266	59.9262	32.2266	59.1962	32.2266	60.4023	32.2266	59.7308	32.2266	60.8259	32.2266	60.2515	32.2266	61.1654	32.2266	60.7151	32.2266	61.3987	32.2266	61.09	32.2266	61.5118	32.2266	61.3551	32.2266	61.4975
35.1563	61.3264	35.1563	61.2952	35.1563	61.3004	35.1563	61.2109	35.1563	61.2182	35.1563	61.0834	35.1563	61.086	35.1563	60.9294	35.1563	60.9165	35.1563	60.7735	35.1563	60.7301	35.1563	60.6485	35.1563	60.5562	35.1563	60.5921	35.1563	60.4322	35.1563	60.6392	35.1563	60.3988	35.1563	60.8113	35.1563	60.4893	35.1563	61.1067	35.1563	60.7178	35.1563	61.4993	35.1563	61.0713	35.1563	61.9463	35.1563	61.5129	35.1563	62.4	35.1563	61.9935	35.1563	62.8167	35.1563	62.4638	35.1563	63.1615	35.1563	62.8818	35.1563	63.4093	35.1563	63.2162	35.1563	63.5437	35.1563	63.4452	35.1563	63.5562
38.0859	64.6425	38.0859	64.6143	38.0859	64.6206	38.0859	64.5389	38.0859	64.5491	38.0859	64.4234	38.0859	64.4325	38.0859	64.2794	38.0859	64.2794	38.0859	64.1243	38.0859	64.1038	38.0859	63.9811	38.0859	63.9261	38.0859	63.8773	38.0859	63.7727	38.0859	63.8411	38.0859	63.6739	38.0859	63.8944	38.0859	63.6588	38.0859	64.0458	38.0859	63.747	38.0859	64.2855	38.0859	63.941	38.0859	64.5874	38.0859	64.2234	38.0859	64.9154	38.0859	64.5612	38.0859	65.2311	38.0859	64.9145	38.0859	65.5005	38.0859	65.2442	38.0859	65.6971	38.0859	65.5175	38.0859	65.8027	38.0859	65.7103	38.0859	65.8076
41.0156	65.5198	41.0156	65.447	41.0156	65.5282	41.0156	65.3118	41.0156	65.4731	41.0156	65.1202	41.0156	65.3588	41.0156	64.8833	41.0156	65.1933	41.0156	64.6194	41.0156	64.9895	41.0156	64.3555	41.0156	64.7666	41.0156	64.1275	41.0156	64.551	41.0156	63.9771	41.0156	64.3752	41.0156	63.9415	41.0156	64.2738	41.0156	64.0414	41.0156	64.2751	41.0156	64.27	41.0156	64.3912	41.0156	64.5943	41.0156	64.6115	41.0156	64.9652	41.0156	64.9053	41.0156	65.3319	41.0156	65.23	41.0156	65.6509	41.0156	65.5413	41.0156	65.8902	41.0156	65.801	41.0156	66.0295	41.0156	65.9801	41.0156	66.0594
43.9453	69.0943	43.9453	69.0724	43.9453	69.0723	43.9453	69.009	43.9453	69.0068	43.9453	68.9096	43.9453	68.9007	43.9453	68.7831	43.9453	68.7604	43.9453	68.6422	43.9453	68.5959	43.9453	68.5041	43.9453	68.4219	43.9453	68.389	43.9453	68.2576	43.9453	68.3184	43.9453	68.1259	43.9453	68.3105	43.9453	68.0504	43.9453	68.3754	43.9453	68.0507	43.9453	68.5107	43.9453	68.1359	43.9453	68.7011	43.9453	68.3008	43.9453	68.9211	43.9453	68.5263	43.9453	69.1409	43.9453	68.7828	43.9453	69.3313	43.9453	69.0377	43.9453	69.4681	43.9453	69.2605	43.9453	69.5343	43.9453	69.427	43.9453	69.5209
46.875	71.0185	46.875	70.9876	46.875	71.0039	46.875	70.9129	46.875	70.9441	46.875	70.7988	46.875	70.8418	46.875	70.6524	46.875	70.7023	46.875	70.4844	46.875	70.5338	46.875	70.3096	46.875	70.3485	46.875	70.1462	46.875	70.1627	46.875	70.0152	46.875	69.9962	46.875	69.9362	46.875	69.8709	46.875	69.9237	46.875	69.8062	46.875	69.9815	46.875	69.8147	46.875	70.1008	46.875	69.8973	46.875	70.2617	46.875	70.0414	46.875	70.4369	46.875	70.2236	46.875	70.5981	46.875	70.4151	46.875	70.7206	46.875	70.5873	46.875	70.7862	46.875	70.7161	46.875	70.785
49.8047	73.0296	49.8047	72.9994	49.8047	73.0174	49.8047	72.9282	49.8047	72.9631	49.8047	72.8194	49.8047	72.8689	49.8047	72.6787	49.8047	72.7392	49.8047	72.5148	49.8047	72.5807	49.8047	72.3396	49.8047	72.4033	49.8047	72.1682	49.8047	72.2202	49.8047	72.018	49.8047	72.0475	49.8047	71.9068	49.8047	71.9035	49.8047	71.8485	49.8047	71.8055	49.8047	71.85	49.8047	71.766	49.8047	71.9078	49.8047	71.7891	49.8047	72.0082	49.8047	71.8681	49.8047	72.13	49.8047	71.9864	49.8047	72.2491	49.8047	72.121	49.8047	72.3431	49.8047	72.2474	49.8047	72.3952	49.8047	72.3442	49.8047	72.396
52.7344	74.9019	52.7344	74.8714	52.7344	74.8921	52.7344	74.8017	52.7344	74.8421	52.7344	74.6958	52.7344	74.7538	52.7344	74.5586	52.7344	74.6307	52.7344	74.3976	52.7344	74.4785	52.7344	74.2227	52.7344	74.3055	52.7344	74.047	52.7344	74.1227	52.7344	73.8856	52.7344	73.9441	52.7344	73.7544	52.7344	73.7856	52.7344	73.6668	52.7344	73.663	52.7344	73.631	52.7344	73.5891	52.7344	73.6464	52.7344	73.57	52.7344	73.7035	52.7344	73.6029	52.7344	73.7855	52.7344	73.6758	52.7344	73.8717	52.7344	73.7701	52.7344	73.9423	52.7344	73.8645	52.7344	73.9817	52.7344	73.9397	52.7344	73.9812
55.6641	76.6338	55.6641	76.6092	55.6641	76.6211	55.6641	76.5484	55.6641	76.5716	55.6641	76.4537	55.6641	76.4868	55.6641	76.3289	55.6641	76.3698	55.6641	76.1799	55.6641	76.2252	55.6641	76.015	55.6641	76.0599	55.6641	75.8445	55.6641	75.8832	55.6641	75.681	55.6641	75.7068	55.6641	75.538	55.6641	75.5438	55.6641	75.4277	55.6641	75.4081	55.6641	75.3587	55.6641	75.3114	55.6641	75.3332	55.6641	75.2607	55.6641	75.3458	55.6641	75.2557	55.6641	75.3848	55.6641	75.2887	55.6641	75.434	55.6641	75.3458	55.6641	75.4771	55.6641	75.4098	55.6641	75.5005	55.6641	75.4642	55.6641	75.4965
58.5938	78.1372	58.5938	78.1107	58.5938	78.128	58.5938	78.0496	58.5938	78.0835	58.5938	77.9557	58.5938	78.0049	58.5938	77.8325	58.5938	77.8946	58.5938	77.6849	58.5938	77.7566	58.5938	77.5201	58.5938	77.5967	58.5938	77.3472	58.5938	77.4225	58.5938	77.1771	58.5938	77.2441	58.5938	77.0219	58.5938	77.0732	58.5938	76.8932	58.5938	76.9221	58.5938	76.7997	58.5938	76.8023	58.5938	76.745	58.5938	76.7215	58.5938	76.7268	58.5938	76.682	58.5938	76.7361	58.5938	76.6793	58.5938	76.7602	58.5938	76.703	58.5938	76.7851	58.5938	76.7391	58.5938	76.7993	58.5938	76.7737	58.5938	76.7957
61.5234	79.1929	61.5234	79.1702	61.5234	79.1813	61.5234	79.1138	61.5234	79.1358	61.5234	79.0256	61.5234	79.0573	61.5234	78.9081	61.5234	78.9482	61.5234	78.7658	61.5234	78.812	61.5234	78.6046	61.5234	78.6537	61.5234	78.4325	61.5234	78.4803	61.5234	78.2593	61.5234	78.3006	61.5234	78.0959	61.5234	78.1252	61.5234	77.9532	61.5234	77.9657	61.5234	77.8402	61.5234	77.8327	61.5234	77.762	61.5234	77.7343	61.5234	77.7181	61.5234	77.674	61.5234	77.7023	61.5234	77.6492	61.5234	77.7044	61.5234	77.6521	61.5234	77.7127	61.5234	77.671	61.5234	77.7169	61.5234	77.6938	61.5234	77.7108
64.4531	80.4014	64.4531	80.3791	64.4531	80.3913	64.4531	80.3248	64.4531	80.3489	64.4531	80.24	64.4531	80.2752	64.4531	80.127	64.4531	80.1722	64.4531	79.9894	64.4531	80.0428	64.4531	79.8325	64.4531	79.8913	64.4531	79.6632	64.4531	79.7239	64.4531	79.4902	64.4531	79.548	64.4531	79.3233	64.4531	79.3732	64.4531	79.1727	64.4531	79.2096	64.4531	79.0472	64.4531	79.0673	64.4531	78.9525	64.4531	78.9543	64.4531	78.8898	64.4531	78.8752	64.4531	78.8551	64.4531	78.8291	64.4531	78.8406	64.4531	78.8108	64.4531	78.8367	64.4531	78.811	64.4531	78.8347	64.4531	78.82	64.4531	78.8294
67.3828	81.4759	67.3828	81.4555	67.3828	81.466	67.3828	81.4051	67.3828	81.4258	67.3828	81.3259	67.3828	81.3563	67.3828	81.2198	67.3828	81.259	67.3828	81.09	67.3828	81.1365	67.3828	80.9406	67.3828	80.9924	67.3828	80.7777	67.3828	80.8318	67.3828	80.6086	67.3828	80.6613	67.3828	80.4419	67.3828	80.4891	67.3828	80.2869	67.3828	80.3243	67.3828	80.1519	67.3828	80.1762	67.3828	80.0431	67.3828	80.0526	67.3828	79.9628	67.3828	79.9585	67.3828	79.9094	67.3828	79.895	67.3828	79.8777	67.3828	79.8587	67.3828	79.8603	67.3828	79.843	67.3828	79.8506	67.3828	79.8404	67.3828	79.8441
70.3125	82.7236	70.3125	82.7022	70.3125	82.7177	70.3125	82.6539	70.3125	82.6848	70.3125	82.5796	70.3125	82.6257	70.3125	82.4811	70.3125	82.5416	70.3125	82.3608	70.3125	82.4347	70.3125	82.2227	70.3125	82.3081	70.3125	82.0719	70.3125	82.1661	70.3125	81.915	70.3125	82.0142	70.3125	81.7597	70.3125	81.8592	70.3125	81.6142	70.3125	81.7088	70.3125	81.4862	70.3125	81.5707	70.3125	81.3816	70.3125	81.4519	70.3125	81.3032	70.3125	81.357	70.3125	81.2502	70.3125	81.2877	70.3125	81.2186	70.3125	81.242	70.3125	81.2025	70.3125	81.2152	70.3125	81.1963	70.3125	81.2017	70.3125	81.1963
73.2422	83.6689	73.2422	83.6509	73.2422	83.6624	73.2422	83.6086	73.2422	83.6314	73.2422	83.5428	73.2422	83.5767	73.2422	83.4548	73.2422	83.4992	73.2422	83.3466	73.2422	83.4007	73.2422	83.2215	73.2422	83.2837	73.2422	83.0837	73.2422	83.1518	73.2422	82.9387	73.2422	83.0095	73.2422	82.7929	73.2422	82.8627	73.2422	82.6535	73.2422	82.7182	73.2422	82.5272	73.2422	82.5829	73.2422	82.4197	73.2422	82.4634	73.2422	82.3341	73.2422	82.3647	73.2422	82.2709	73.2422	82.2892	73.2422	82.2278	73.2422	82.2365	73.2422	82.201	73.2422	82.2039	73.2422	82.1866	73.2422	82.187	73.2422	82.182
76.1719	84.5505	76.1719	84.5304	76.1719	84.5473	76.1719	84.4872	76.1719	84.521	76.1719	84.4218	76.1719	84.4718	76.1719	84.3351	76.1719	84.4006	76.1719	84.2289	76.1719	84.3087	76.1719	84.1061	76.1719	84.1981	76.1719	83.9704	76.1719	84.0716	76.1719	83.8267	76.1719	83.9334	76.1719	83.6809	76.1719	83.7885	76.1719	83.5396	76.1719	83.6431	76.1719	83.4095	76.1719	83.5037	76.1719	83.2963	76.1719	83.377	76.1719	83.2037	76.1719	83.2683	76.1719	83.1332	76.1719	83.181	76.1719	83.0837	76.1719	83.116	76.1719	83.0525	76.1719	83.0718	76.1719	83.0368	76.1719	83.0457	76.1719	83.0346
79.1016	85.2034	79.1016	85.1874	79.1016	85.1983	79.1016	85.1504	79.1016	85.1721	79.1016	85.093	79.1016	85.125	79.1016	85.0161	79.1016	85.0577	79.1016	84.921	79.1016	84.9711	79.1016	84.8099	79.1016	84.8669	79.1016	84.6859	79.1016	84.7475	79.1016	84.553	79.1016	84.6163	79.1016	84.4162	79.1016	84.4779	79.1016	84.2812	79.1016	84.3377	79.1016	84.1539	79.1016	84.202	79.1016	84.0397	79.1016	84.077	79.1016	83.9426	79.1016	83.9682	79.1016	83.8646	79.1016	83.8795	79.1016	83.8061	79.1016	83.8127	79.1016	83.7658	79.1016	83.7675	79.1016	83.7421	79.1016	83.7421	79.1016	83.7341
82.0313	85.7256	82.0313	85.7152	82.0313	85.716	82.0313	85.6848	82.0313	85.6866	82.0313	85.6346	82.0313	85.6374	82.0313	85.5651	82.0313	85.569	82.0313	85.477	82.0313	85.4819	82.0313	85.3717	82.0313	85.3775	82.0313	85.2516	82.0313	85.2578	82.0313	85.1198	82.0313	85.1256	82.0313	84.9806	82.0313	84.9849	82.0313	84.8393	82.0313	84.8408	82.0313	84.7016	82.0313	84.6993	82.0313	84.5732	82.0313	84.5666	82.0313	84.4594	82.0313	84.4486	82.0313	84.3636	82.0313	84.3501	82.0313	84.288	82.0313	84.2741	82.0313	84.2331	82.0313	84.2217	82.0313	84.1989	82.0313	84.1925	82.0313	84.1852
84.9609	86.5693	84.9609	86.5549	84.9609	86.5653	84.9609	86.5221	84.9609	86.5428	84.9609	86.471	84.9609	86.5019	84.9609	86.4018	84.9609	86.4429	84.9609	86.3153	84.9609	86.3661	84.9609	86.2126	84.9609	86.2724	84.9609	86.0956	84.9609	86.1633	84.9609	85.9675	84.9609	86.0412	84.9609	85.8321	84.9609	85.9093	84.9609	85.6945	84.9609	85.7722	84.9609	85.5603	84.9609	85.6351	84.9609	85.4353	84.9609	85.5037	84.9609	85.3248	84.9609	85.384	84.9609	85.2328	84.9609	85.2806	84.9609	85.1617	84.9609	85.1973	84.9609	85.1126	84.9609	85.1359	84.9609	85.0855	84.9609	85.097	84.9609	85.0803
87.8906	87.38	87.8906	87.3689	87.8906	87.3752	87.8906	87.3416	87.8906	87.3544	87.8906	87.2982	87.8906	87.3177	87.8906	87.2388	87.8906	87.2654	87.8906	87.1639	87.8906	87.1978	87.8906	87.0745	87.8906	87.1155	87.8906	86.9724	87.8906	87.0199	87.8906	86.86	87.8906	86.913	87.8906	86.7412	87.8906	86.7976	87.8906	86.6201	87.8906	86.6777	87.8906	86.502	87.8906	86.5578	87.8906	86.392	87.8906	86.4431	87.8906	86.2946	87.8906	86.3387	87.8906	86.2135	87.8906	86.2489	87.8906	86.1506	87.8906	86.1767	87.8906	86.1069	87.8906	86.1238	87.8906	86.0825	87.8906	86.0907	87.8906	86.077
90.8203	87.8792	90.8203	87.8735	90.8203	87.8749	90.8203	87.8573	90.8203	87.8606	90.8203	87.8303	90.8203	87.8364	90.8203	87.7923	90.8203	87.8021	90.8203	87.7431	90.8203	87.7577	90.8203	87.683	90.8203	87.7033	90.8203	87.6129	90.8203	87.6393	90.8203	87.5344	90.8203	87.5666	90.8203	87.4499	90.8203	87.4869	90.8203	87.3627	90.8203	87.4026	90.8203	87.2765	90.8203	87.317	90.8203	87.1951	90.8203	87.2336	90.8203	87.1223	90.8203	87.1565	90.8203	87.061	90.8203	87.0891	90.8203	87.013	90.8203	87.0341	90.8203	86.9794	90.8203	86.9932	90.8203	86.9605	90.8203	86.9673	90.8203	86.9565
93.75	88.5419	93.75	88.5384	93.75	88.5351	93.75	88.5244	93.75	88.5179	93.75	88.4992	93.75	88.4902	93.75	88.4624	93.75	88.4515	93.75	88.4132	93.75	88.4013	93.75	88.3516	93.75	88.3393	93.75	88.2775	93.75	88.2655	93.75	88.1918	93.75	88.1805	93.75	88.0963	93.75	88.0859	93.75	87.9937	93.75	87.9841	93.75	87.8877	93.75	87.8785	93.75	87.7826	93.75	87.7737	93.75	87.6832	93.75	87.6744	93.75	87.5942	93.75	87.5859	93.75	87.52	93.75	87.5127	93.75	87.4639	93.75	87.4584	93.75	87.4285	93.75	87.4255	93.75	87.4155
96.6797	89.0577	96.6797	89.0532	96.6797	89.0496	96.6797	89.0358	96.6797	89.029	96.6797	89.005	96.6797	88.9958	96.6797	88.96	96.6797	88.9496	96.6797	88.9003	96.6797	88.89	96.6797	88.8255	96.6797	88.8167	96.6797	88.7358	96.6797	88.7299	96.6797	88.6323	96.6797	88.6301	96.6797	88.5169	96.6797	88.5191	96.6797	88.393	96.6797	88.3995	96.6797	88.2649	96.6797	88.2749	96.6797	88.1379	96.6797	88.1503	96.6797	88.0181	96.6797	88.0313	96.6797	87.9114	96.6797	87.9237	96.6797	87.823	96.6797	87.8333	96.6797	87.7574	96.6797	87.7646	96.6797	87.7176	96.6797	87.7213	96.6797	87.7054
102.539	89.859	102.539	89.8608	102.539	89.8509	102.539	89.8556	102.539	89.8366	102.539	89.8424	102.539	89.8158	102.539	89.8202	102.539	89.7879	102.539	89.7875	102.539	89.7521	102.539	89.7433	102.539	89.7074	102.539	89.687	102.539	89.6531	102.539	89.6187	102.539	89.5889	102.539	89.5392	102.539	89.5153	102.539	89.4509	102.539	89.4336	102.539	89.3569	102.539	89.3462	102.539	89.2615	102.539	89.2566	102.539	89.1696	102.539	89.1691	102.539	89.0863	102.539	89.0885	102.539	89.0164	102.539	89.0197	102.539	88.9638	102.539	88.9668	102.539	88.9315	102.539	88.9332	102.539	88.9212
105.469	90.3981	105.469	90.4013	105.469	90.3896	105.469	90.3985	105.469	90.376	105.469	90.3885	105.469	90.3569	105.469	90.37	105.469	90.3315	105.469	90.3413	105.469	90.2987	105.469	90.3011	105.469	90.2573	105.469	90.2484	105.469	90.2062	105.469	90.1828	105.469	90.1447	105.469	90.1051	105.469	90.0731	105.469	90.0172	105.469	89.9923	105.469	89.9222	105.469	89.9045	105.469	89.8244	105.469	89.8133	105.469	89.7288	105.469	89.7231	105.469	89.6411	105.469	89.639	105.469	89.5665	105.469	89.5666	105.469	89.5098	105.469	89.5106	105.469	89.4744	105.469	89.4751	105.469	89.4627
108.398	90.8663	108.398	90.8699	108.398	90.8588	108.398	90.8687	108.398	90.8473	108.398	90.8617	108.398	90.8313	108.398	90.8472	108.398	90.8099	108.398	90.8236	108.398	90.7816	108.398	90.789	108.398	90.745	108.398	90.7423	108.398	90.6988	108.398	90.6827	108.398	90.642	108.398	90.6106	108.398	90.5744	108.398	90.5276	108.398	90.4971	108.398	90.4365	108.398	90.4121	108.398	90.3413	108.398	90.3228	108.398	90.247	108.398	90.2338	108.398	90.1594	108.398	90.1504	108.398	90.084	108.398	90.0782	108.398	90.0259	108.398	90.0225	108.398	89.9891	108.398	89.9875	108.398	89.976
111.328	91.2805	111.328	91.2827	111.328	91.2753	111.328	91.2815	111.328	91.2673	111.328	91.2755	111.328	91.2556	111.328	91.2633	111.328	91.239	111.328	91.2428	111.328	91.216	111.328	91.2123	111.328	91.1848	111.328	91.1702	111.328	91.1437	111.328	91.1155	111.328	91.0917	111.328	91.0484	111.328	91.0285	111.328	90.9701	111.328	90.9546	111.328	90.8831	111.328	90.8722	111.328	90.7914	111.328	90.7846	111.328	90.7	111.328	90.6964	111.328	90.6144	111.328	90.613	111.328	90.5404	111.328	90.5403	111.328	90.4834	111.328	90.4837	111.328	90.4474	111.328	90.4477	111.328	90.4352
117.188	91.9743	117.188	91.9717	117.188	91.9758	117.188	91.9674	117.188	91.976	117.188	91.9603	117.188	91.974	117.188	91.9486	117.188	91.9683	117.188	91.9305	117.188	91.957	117.188	91.9038	117.188	91.9379	117.188	91.8669	117.188	91.909	117.188	91.8185	117.188	91.8688	117.188	91.7586	117.188	91.8164	117.188	91.6881	117.188	91.7521	117.188	91.6093	117.188	91.6773	117.188	91.5261	117.188	91.5951	117.188	91.4431	117.188	91.5095	117.188	91.3662	117.188	91.4259	117.188	91.3012	117.188	91.3502	117.188	91.2533	117.188	91.2882	117.188	91.2266	117.188	91.2448	117.188	91.2237
120.117	92.2372	120.117	92.2322	120.117	92.2415	120.117	92.226	120.117	92.245	120.117	92.2174	120.117	92.2465	120.117	92.2046	120.117	92.2445	120.117	92.1857	120.117	92.2368	120.117	92.1583	120.117	92.2213	120.117	92.1207	120.117	92.1955	120.117	92.0716	120.117	92.1576	120.117	92.0107	120.117	92.1067	120.117	91.9389	120.117	92.0426	120.117	91.8586	120.117	91.9667	120.117	91.7737	120.117	91.8817	120.117	91.6892	120.117	91.792	120.117	91.6111	120.117	91.703	120.117	91.5458	120.117	91.6209	120.117	91.4988	120.117	91.5522	120.117	91.4747	120.117	91.5024	120.117	91.4759
125.977	92.8279	125.977	92.8286	125.977	92.8291	125.977	92.8303	125.977	92.8318	125.977	92.8315	125.977	92.8351	125.977	92.8299	125.977	92.8371	125.977	92.8229	125.977	92.8354	125.977	92.8076	125.977	92.8271	125.977	92.7815	125.977	92.8095	125.977	92.7427	125.977	92.7802	125.977	92.6902	125.977	92.7375	125.977	92.6245	125.977	92.6809	125.977	92.5478	125.977	92.6113	125.977	92.4637	125.977	92.5313	125.977	92.3777	125.977	92.4451	125.977	92.2961	125.977	92.3586	125.977	92.2259	125.977	92.2783	125.977	92.1736	125.977	92.2114	125.977	92.1442	125.977	92.1641	125.977	92.1409
128.906	93.1638	128.906	93.1623	128.906	93.1689	128.906	93.1638	128.906	93.1772	128.906	93.1668	128.906	93.1874	128.906	93.1689	128.906	93.1973	128.906	93.1673	128.906	93.204	128.906	93.159	128.906	93.2044	128.906	93.141	128.906	93.1954	128.906	93.1111	128.906	93.1742	128.906	93.0678	128.906	93.1388	128.906	93.0112	128.906	93.0886	128.906	92.943	128.906	93.0242	128.906	92.8666	128.906	92.9483	128.906	92.7871	128.906	92.8652	128.906	92.7108	128.906	92.7808	128.906	92.6445	128.906	92.7019	128.906	92.5949	128.906	92.6357	128.906	92.5674	128.906	92.5885	128.906	92.565
134.766	93.6448	134.766	93.6506	134.766	93.6445	134.766	93.6609	134.766	93.6495	134.766	93.6739	134.766	93.6588	134.766	93.687	134.766	93.6702	134.766	93.6972	134.766	93.681	134.766	93.7011	134.766	93.6879	134.766	93.6957	134.766	93.6878	134.766	93.6785	134.766	93.6776	134.766	93.6479	134.766	93.655	134.766	93.6039	134.766	93.619	134.766	93.5476	134.766	93.5701	134.766	93.4823	134.766	93.5102	134.766	93.4124	134.766	93.4432	134.766	93.3439	134.766	93.3743	134.766	93.2831	134.766	93.3097	134.766	93.2362	134.766	93.2559	134.766	93.2082	134.766	93.2187	134.766	93.2021
137.695	93.8628	137.695	93.8722	137.695	93.8585	137.695	93.8858	137.695	93.8593	137.695	93.9015	137.695	93.8644	137.695	93.9169	137.695	93.872	137.695	93.9289	137.695	93.8795	137.695	93.9343	137.695	93.884	137.695	93.93	137.695	93.8823	137.695	93.9136	137.695	93.8718	137.695	93.8835	137.695	93.85	137.695	93.8396	137.695	93.8159	137.695	93.7831	137.695	93.7697	137.695	93.7172	137.695	93.7132	137.695	93.6464	137.695	93.65	137.695	93.5766	137.695	93.585	137.695	93.5141	137.695	93.5242	137.695	93.4652	137.695	93.4739	137.695	93.4348	137.695	93.4399	137.695	93.4262
143.555	94.0705	143.555	94.0783	143.555	94.0677	143.555	94.0902	143.555	94.0698	143.555	94.1044	143.555	94.0759	143.555	94.1181	143.555	94.0839	143.555	94.1284	143.555	94.0911	143.555	94.1319	143.555	94.0946	143.555	94.1254	143.555	94.091	143.555	94.1063	143.555	94.0774	143.555	94.0731	143.555	94.0516	143.555	94.0254	143.555	94.0126	143.555	93.9647	143.555	93.9607	143.555	93.894	143.555	93.8979	143.555	93.8181	143.555	93.8281	143.555	93.7433	143.555	93.7566	143.555	93.6763	143.555	93.69	143.555	93.6239	143.555	93.635	143.555	93.5914	143.555	93.5977	143.555	93.5825
149.414	94.5582	149.414	94.5678	149.414	94.5539	149.414	94.5816	149.414	94.555	149.414	94.5976	149.414	94.5606	149.414	94.613	149.414	94.5688	149.414	94.6244	149.414	94.5769	149.414	94.6284	149.414	94.5818	149.414	94.6218	149.414	94.5801	149.414	94.6021	149.414	94.5686	149.414	94.5676	149.414	94.545	149.414	94.5181	149.414	94.5077	149.414	94.4553	149.414	94.457	149.414	94.3823	149.414	94.3946	149.414	94.3044	149.414	94.3244	149.414	94.2279	149.414	94.2517	149.414	94.16	149.414	94.1831	149.414	94.1074	149.414	94.1257	149.414	94.0757	149.414	94.0858	149.414	94.0684
155.273	94.7016	155.273	94.7148	155.273	94.6956	155.273	94.7342	155.273	94.6968	155.273	94.7574	155.273	94.7042	155.273	94.7815	155.273	94.7157	155.273	94.8027	155.273	94.7283	155.273	94.8173	155.273	94.7385	155.273	94.8214	155.273	94.7426	155.273	94.8119	155.273	94.7374	155.273	94.7869	155.273	94.7201	155.273	94.7456	155.273	94.6892	155.273	94.6893	155.273	94.6448	155.273	94.6211	155.273	94.5888	155.273	94.5458	155.273	94.5247	155.273	94.47	155.273	94.4581	155.273	94.401	155.273	94.3956	155.273	94.3457	155.273	94.3441	155.273	94.3102	155.273	94.31	155.273	94.298
158.203	94.6594	158.203	94.6692	158.203	94.6569	158.203	94.6853	158.203	94.6615	158.203	94.7057	158.203	94.6721	158.203	94.7274	158.203	94.6866	158.203	94.7469	158.203	94.702	158.203	94.7606	158.203	94.715	158.203	94.7646	158.203	94.7218	158.203	94.7559	158.203	94.719	158.203	94.7324	158.203	94.704	158.203	94.6933	158.203	94.6751	158.203	94.6398	158.203	94.6322	158.203	94.5748	158.203	94.577	158.203	94.5033	158.203	94.5132	158.203	94.4315	158.203	94.446	158.203	94.3666	158.203	94.3821	158.203	94.3156	158.203	94.3284	158.203	94.2842	158.203	94.2914	158.203	94.2759
164.063	94.7897	164.063	94.7953	164.063	94.7913	164.063	94.8074	164.063	94.7999	164.063	94.8243	164.063	94.8143	164.063	94.8435	164.063	94.8325	164.063	94.862	164.063	94.8517	164.063	94.8764	164.063	94.8687	164.063	94.8834	164.063	94.8801	164.063	94.8798	164.063	94.8824	164.063	94.8635	164.063	94.8732	164.063	94.8337	164.063	94.8507	164.063	94.7909	164.063	94.8147	164.063	94.7377	164.063	94.7668	164.063	94.6782	164.063	94.7102	164.063	94.6179	164.063	94.6497	164.063	94.5634	164.063	94.5914	164.063	94.5208	164.063	94.5417	164.063	94.4955	164.063	94.5067	164.063	94.4905
169.922	95.0181	169.922	95.0194	169.922	95.0247	169.922	95.028	169.922	95.0388	169.922	95.0425	169.922	95.0591	169.922	95.0607	169.922	95.0836	169.922	95.08	169.922	95.1095	169.922	95.097	169.922	95.1335	169.922	95.1085	169.922	95.152	169.922	95.1115	169.922	95.1619	169.922	95.1037	169.922	95.1602	169.922	95.0839	169.922	95.1453	169.922	95.0524	169.922	95.1167	169.922	95.011	169.922	95.0757	169.922	94.9635	169.922	95.0253	169.922	94.9146	169.922	94.9702	169.922	94.8703	169.922	94.916	169.922	94.8363	169.922	94.8688	169.922	94.8173	169.922	94.8342	169.922	94.8164
175.781	95.0412	175.781	95.0438	175.781	95.0452	175.781	95.052	175.781	95.0555	175.781	95.0644	175.781	95.0715	175.781	95.079	175.781	95.0915	175.781	95.0932	175.781	95.1131	175.781	95.1043	175.781	95.1334	175.781	95.1094	175.781	95.1493	175.781	95.1061	175.781	95.1574	175.781	95.0928	175.781	95.155	175.781	95.0686	175.781	95.1403	175.781	95.0342	175.781	95.1127	175.781	94.9917	175.781	95.0732	175.781	94.9447	175.781	95.0244	175.781	94.898	175.781	94.9706	175.781	94.8569	175.781	94.9172	175.781	94.8266	175.781	94.8699	175.781	94.8115	175.781	94.8341	175.781	94.8139
181.641	94.9862	181.641	94.9952	181.641	94.9822	181.641	95.008	181.641	94.9835	181.641	95.0227	181.641	94.9899	181.641	95.0372	181.641	95.0003	181.641	95.049	181.641	95.0127	181.641	95.0552	181.641	95.0247	181.641	95.0536	181.641	95.0332	181.641	95.042	181.641	95.0353	181.641	95.0194	181.641	95.0283	181.641	94.9855	181.641	95.0103	181.641	94.9416	181.641	94.9806	181.641	94.8904	181.641	94.9402	181.641	94.8358	181.641	94.8913	181.641	94.783	181.641	94.8382	181.641	94.7371	181.641	94.7857	181.641	94.7034	181.641	94.7396	181.641	94.6858	181.641	94.7051	181.641	94.6864
190.43	95.0787	190.43	95.088	190.43	95.0744	190.43	95.1017	190.43	95.075	190.43	95.1185	190.43	95.0797	190.43	95.1363	190.43	95.087	190.43	95.1525	190.43	95.0948	190.43	95.1641	190.43	95.1008	190.43	95.1678	190.43	95.1021	190.43	95.161	190.43	95.0962	190.43	95.1416	190.43	95.0809	190.43	95.1088	190.43	95.055	190.43	95.0634	190.43	95.0183	190.43	95.0077	190.43	94.9725	190.43	94.9458	190.43	94.9203	190.43	94.8832	190.43	94.8662	190.43	94.8258	190.43	94.8157	190.43	94.7796	190.43	94.7744	190.43	94.7495	190.43	94.7474	190.43	94.7385
196.289	95.0998	196.289	95.1027	196.289	95.1002	196.289	95.1085	196.289	95.1039	196.289	95.1164	196.289	95.1104	196.289	95.1248	196.289	95.1187	196.289	95.1321	196.289	95.1273	196.289	95.1361	196.289	95.1339	196.289	95.1343	196.289	95.1363	196.289	95.1245	196.289	95.1318	196.289	95.105	196.289	95.1181	196.289	95.0748	196.289	95.0939	196.289	95.0344	196.289	95.0587	196.289	94.9855	196.289	95.0137	196.289	94.9318	196.289	94.9615	196.289	94.8778	196.289	94.9065	196.289	94.829	196.289	94.8539	196.289	94.791	196.289	94.8093	196.289	94.7682	196.289	94.7779	196.289	94.7637
202.148	95.0516	202.148	95.0533	202.148	95.0513	202.148	95.0559	202.148	95.0526	202.148	95.0584	202.148	95.0555	202.148	95.0596	202.148	95.0593	202.148	95.0581	202.148	95.0629	202.148	95.0521	202.148	95.0649	202.148	95.0399	202.148	95.0632	202.148	95.02	202.148	95.0556	202.148	94.9913	202.148	95.0403	202.148	94.954	202.148	95.0156	202.148	94.909	202.148	94.9813	202.148	94.8588	202.148	94.9378	202.148	94.8068	202.148	94.8874	202.148	94.7577	202.148	94.8336	202.148	94.7163	202.148	94.7808	202.148	94.6871	202.148	94.7341	202.148	94.6736	202.148	94.6983	202.148	94.6774
210.938	94.9684	210.938	94.9715	210.938	94.966	210.938	94.975	210.938	94.9649	210.938	94.9781	210.938	94.9651	210.938	94.9797	210.938	94.9666	210.938	94.9788	210.938	94.9688	210.938	94.9737	210.938	94.9704	210.938	94.963	210.938	94.9697	210.938	94.9451	210.938	94.9647	210.938	94.919	210.938	94.9533	210.938	94.8845	210.938	94.9337	210.938	94.8427	210.938	94.905	210.938	94.7956	210.938	94.8675	210.938	94.7468	210.938	94.8228	210.938	94.7007	210.938	94.774	210.938	94.662	210.938	94.7253	210.938	94.635	210.938	94.6817	210.938	94.6229	210.938	94.6477	210.938	94.6273
216.797	94.9639	216.797	94.9673	216.797	94.9617	216.797	94.9714	216.797	94.961	216.797	94.9756	216.797	94.9618	216.797	94.9789	216.797	94.9637	216.797	94.9802	216.797	94.9661	216.797	94.9779	216.797	94.9677	216.797	94.9703	216.797	94.9668	216.797	94.9558	216.797	94.9614	216.797	94.9332	216.797	94.9494	216.797	94.902	216.797	94.9293	216.797	94.8629	216.797	94.9002	216.797	94.8178	216.797	94.8628	216.797	94.77	216.797	94.8188	216.797	94.7235	216.797	94.7715	216.797	94.6832	216.797	94.7251	216.797	94.6534	216.797	94.6845	216.797	94.6377	216.797	94.6543	216.797	94.638
225.586	94.8439	225.586	94.8541	225.586	94.8313	225.586	94.8614	225.586	94.8171	225.586	94.8651	225.586	94.802	225.586	94.8648	225.586	94.7867	225.586	94.8597	225.586	94.7718	225.586	94.8491	225.586	94.7573	225.586	94.8322	225.586	94.7429	225.586	94.8083	225.586	94.7275	225.586	94.7771	225.586	94.7101	225.586	94.739	225.586	94.6895	225.586	94.6952	225.586	94.6647	225.586	94.648	225.586	94.6357	225.586	94.6004	225.586	94.6033	225.586	94.5561	225.586	94.5691	225.586	94.5188	225.586	94.536	225.586	94.4916	225.586	94.5071	225.586	94.4767	225.586	94.4858	225.586	94.475
234.375	94.9065	234.375	94.9147	234.375	94.8935	234.375	94.9179	234.375	94.876	234.375	94.9163	234.375	94.8544	234.375	94.9099	234.375	94.8295	234.375	94.8984	234.375	94.802	234.375	94.8816	234.375	94.7725	234.375	94.859	234.375	94.7417	234.375	94.8302	234.375	94.7097	234.375	94.795	234.375	94.6767	234.375	94.7537	234.375	94.6428	234.375	94.7074	234.375	94.6084	234.375	94.6581	234.375	94.5739	234.375	94.6083	234.375	94.5404	234.375	94.5611	234.375	94.5096	234.375	94.5196	234.375	94.4833	234.375	94.4865	234.375	94.4638	234.375	94.4639	234.375	94.453	234.375	94.4528
240.234	94.714	240.234	94.7109	240.234	94.7125	240.234	94.7037	240.234	94.7061	240.234	94.6929	240.234	94.6949	240.234	94.679	240.234	94.6791	240.234	94.6621	240.234	94.659	240.234	94.6422	240.234	94.6347	240.234	94.6185	240.234	94.6064	240.234	94.5903	240.234	94.5741	240.234	94.557	240.234	94.5377	240.234	94.5183	240.234	94.4975	240.234	94.4748	240.234	94.454	240.234	94.4278	240.234	94.4086	240.234	94.3797	240.234	94.3634	240.234	94.3337	240.234	94.3208	240.234	94.293	240.234	94.2837	240.234	94.261	240.234	94.255	240.234	94.2401	240.234	94.2372	240.234	94.232
249.023	94.6928	249.023	94.6862	249.023	94.6894	249.023	94.6705	249.023	94.6759	249.023	94.6465	249.023	94.6524	249.023	94.6153	249.023	94.6195	249.023	94.5779	249.023	94.5785	249.023	94.535	249.023	94.5309	249.023	94.4876	249.023	94.4785	249.023	94.4362	249.023	94.423	249.023	94.3818	249.023	94.3663	249.023	94.3253	249.023	94.31	249.023	94.2683	249.023	94.2554	249.023	94.2127	249.023	94.2039	249.023	94.1607	249.023	94.1566	249.023	94.1147	249.023	94.1147	249.023	94.0771	249.023	94.0797	249.023	94.0495	249.023	94.0528	249.023	94.0332	249.023	94.0354	249.023	94.0286
257.813	94.5996	257.813	94.5864	257.813	94.607	257.813	94.5687	257.813	94.6076	257.813	94.5479	257.813	94.6006	257.813	94.5251	257.813	94.5853	257.813	94.501	257.813	94.5617	257.813	94.4759	257.813	94.5298	257.813	94.4493	257.813	94.4902	257.813	94.4206	257.813	94.4441	257.813	94.3888	257.813	94.3928	257.813	94.3534	257.813	94.3387	257.813	94.3146	257.813	94.2842	257.813	94.2732	257.813	94.2322	257.813	94.231	257.813	94.1852	257.813	94.1902	257.813	94.1457	257.813	94.1534	257.813	94.1154	257.813	94.123	257.813	94.0954	257.813	94.1008	257.813	94.0864	257.813	94.0883
266.602	94.4161	266.602	94.3863	266.602	94.436	266.602	94.3489	266.602	94.4443	266.602	94.3064	266.602	94.4394	266.602	94.2615	266.602	94.4201	266.602	94.2168	266.602	94.3859	266.602	94.1744	266.602	94.3365	266.602	94.1352	266.602	94.2729	266.602	94.0994	266.602	94.197	266.602	94.066	266.602	94.1123	266.602	94.0336	266.602	94.0237	266.602	94.0005	266.602	93.9368	266.602	93.9651	266.602	93.8579	266.602	93.9269	266.602	93.7923	266.602	93.8863	266.602	93.7441	266.602	93.8442	266.602	93.7153	266.602	93.8029	266.602	93.7055	266.602	93.765	266.602	93.7127	266.602	93.7338
278.32	94.3421	278.32	94.3374	278.32	94.3261	278.32	94.3079	278.32	94.2959	278.32	94.2528	278.32	94.2595	278.32	94.1747	278.32	94.2248	278.32	94.0792	278.32	94.1983	278.32	93.9747	278.32	94.1832	278.32	93.8713	278.32	94.1794	278.32	93.7796	278.32	94.1837	278.32	93.7092	278.32	94.1913	278.32	93.6667	278.32	94.197	278.32	93.6547	278.32	94.1969	278.32	93.6715	278.32	94.1888	278.32	93.7113	278.32	94.1723	278.32	93.7664	278.32	94.1486	278.32	93.8286	278.32	94.119	278.32	93.8909	278.32	94.0845	278.32	93.9488	278.32	94.0451	278.32	94.0002
287.109	94.5454	287.109	94.5548	287.109	94.5157	287.109	94.5428	287.109	94.4677	287.109	94.5096	287.109	94.4052	287.109	94.4558	287.109	94.3336	287.109	94.383	287.109	94.2593	287.109	94.2935	287.109	94.1886	287.109	94.1908	287.109	94.1268	287.109	94.0797	287.109	94.0768	287.109	93.9666	287.109	94.0386	287.109	93.8587	287.109	94.0094	287.109	93.7635	287.109	93.9847	287.109	93.6873	287.109	93.9594	287.109	93.6348	287.109	93.9296	287.109	93.6074	287.109	93.893	287.109	93.604	287.109	93.8493	287.109	93.6213	287.109	93.8003	287.109	93.6546	287.109	93.7488	287.109	93.6987
295.898	94.3769	295.898	94.3579	295.898	94.372	295.898	94.3188	295.898	94.3407	295.898	94.2637	295.898	94.2826	295.898	94.1969	295.898	94.1998	295.898	94.1221	295.898	94.0972	295.898	94.0422	295.898	93.9819	295.898	93.9596	295.898	93.8631	295.898	93.8764	295.898	93.7498	295.898	93.7944	295.898	93.6499	295.898	93.7159	295.898	93.5688	295.898	93.6431	295.898	93.5082	295.898	93.5784	295.898	93.4666	295.898	93.5237	295.898	93.4404	295.898	93.4804	295.898	93.4249	295.898	93.4485	295.898	93.416	295.898	93.4274	295.898	93.411	295.898	93.4151	295.898	93.4088	295.898	93.4096
307.617	94.1857	307.617	94.1092	307.617	94.242	307.617	94.0151	307.617	94.2766	307.617	93.9071	307.617	94.2882	307.617	93.7899	307.617	94.2763	307.617	93.6699	307.617	94.2411	307.617	93.5544	307.617	94.184	307.617	93.451	307.617	94.1077	307.617	93.3667	307.617	94.0169	307.617	93.3067	307.617	93.9179	307.617	93.2733	307.617	93.8181	307.617	93.2655	307.617	93.7253	307.617	93.2794	307.617	93.6459	307.617	93.3086	307.617	93.5839	307.617	93.346	307.617	93.5401	307.617	93.3848	307.617	93.5119	307.617	93.4196	307.617	93.4944	307.617	93.4473	307.617	93.4815	307.617	93.4672
319.336	93.9706	319.336	93.904	319.336	94.0152	319.336	93.8144	319.336	94.0406	319.336	93.7023	319.336	94.05	319.336	93.5711	319.336	94.0462	319.336	93.4266	319.336	94.0316	319.336	93.2775	319.336	94.0076	319.336	93.1344	319.336	93.9748	319.336	93.0089	319.336	93.9339	319.336	92.9122	319.336	93.8857	319.336	92.8529	319.336	93.832	319.336	92.8356	319.336	93.7753	319.336	92.8595	319.336	93.7184	319.336	92.9186	319.336	93.6636	319.336	93.0031	319.336	93.6114	319.336	93.1012	319.336	93.5606	319.336	93.2017	319.336	93.5077	319.336	93.2958	319.336	93.4484	319.336	93.3784
331.055	94.0748	331.055	94.0747	331.055	94.0429	331.055	94.0372	331.055	93.9862	331.055	93.9598	331.055	93.9131	331.055	93.8427	331.055	93.8319	331.055	93.69	331.055	93.7505	331.055	93.5097	331.055	93.675	331.055	93.3141	331.055	93.6093	331.055	93.1188	331.055	93.5551	331.055	92.9417	331.055	93.512	331.055	92.8004	331.055	93.4781	331.055	92.7087	331.055	93.4508	331.055	92.6734	331.055	93.427	331.055	92.6924	331.055	93.4032	331.055	92.7559	331.055	93.3759	331.055	92.8487	331.055	93.3411	331.055	92.9548	331.055	93.2947	331.055	93.0601	331.055	93.2331	331.055	93.1546
342.773	94.0496	342.773	94.0863	342.773	93.9774	342.773	94.0839	342.773	93.875	342.773	94.0408	342.773	93.7494	342.773	93.9572	342.773	93.6095	342.773	93.8353	342.773	93.4658	342.773	93.6804	342.773	93.3287	342.773	93.5008	342.773	93.2085	342.773	93.3085	342.773	93.113	342.773	93.1187	342.773	93.0471	342.773	92.9489	342.773	93.0119	342.773	92.8156	342.773	93.004	342.773	92.7314	342.773	93.0169	342.773	92.7009	342.773	93.0413	342.773	92.7201	342.773	93.0666	342.773	92.7767	342.773	93.0826	342.773	92.8543	342.773	93.0807	342.773	92.9354	342.773	93.0554	342.773	93.0056
354.492	93.9467	354.492	93.964	354.492	93.8909	354.492	93.9425	354.492	93.7994	354.492	93.8835	354.492	93.6771	354.492	93.7896	354.492	93.5314	354.492	93.6649	354.492	93.3718	354.492	93.5146	354.492	93.2091	354.492	93.3456	354.492	93.0545	354.492	93.1664	354.492	92.9177	354.492	92.988	354.492	92.8066	354.492	92.8227	354.492	92.7252	354.492	92.6831	354.492	92.674	354.492	92.5798	354.492	92.6496	354.492	92.5185	354.492	92.6454	354.492	92.4985	354.492	92.6527	354.492	92.5122	354.492	92.662	354.492	92.5473	354.492	92.6645	354.492	92.59	354.492	92.6539	354.492	92.6282
366.211	93.8616	366.211	93.8754	366.211	93.8149	366.211	93.8558	366.211	93.7372	366.211	93.8033	366.211	93.6318	366.211	93.719	366.211	93.504	366.211	93.6051	366.211	93.3608	366.211	93.4648	366.211	93.2108	366.211	93.3031	366.211	93.0635	366.211	93.1274	366.211	92.9284	366.211	92.9478	366.211	92.8141	366.211	92.7765	366.211	92.7266	366.211	92.6271	366.211	92.6686	366.211	92.512	366.211	92.6379	366.211	92.4396	366.211	92.6284	366.211	92.4119	366.211	92.6304	366.211	92.4234	366.211	92.633	366.211	92.4625	366.211	92.6264	366.211	92.5145	366.211	92.6041	366.211	92.5652
377.93	93.864	377.93	93.8925	377.93	93.7973	377.93	93.8829	377.93	93.694	377.93	93.8366	377.93	93.558	377.93	93.7566	377.93	93.3961	377.93	93.6469	377.93	93.2181	377.93	93.5135	377.93	93.0368	377.93	93.3641	377.93	92.8667	377.93	93.2084	377.93	92.7225	377.93	93.0574	377.93	92.6161	377.93	92.9221	377.93	92.5544	377.93	92.8126	377.93	92.5374	377.93	92.7356	377.93	92.5584	377.93	92.6936	377.93	92.605	377.93	92.6837	377.93	92.6628	377.93	92.6983	377.93	92.7176	377.93	92.7265	377.93	92.7582	377.93	92.7561	377.93	92.7781	377.93	92.7761
392.578	93.6389	392.578	93.6826	392.578	93.5516	392.578	93.6838	392.578	93.4218	392.578	93.646	392.578	93.2532	392.578	93.5741	392.578	93.0523	392.578	93.4749	392.578	92.8288	392.578	93.3562	392.578	92.596	392.578	93.227	392.578	92.3702	392.578	93.0965	392.578	92.17	392.578	92.9736	392.578	92.0139	392.578	92.8666	392.578	91.9167	392.578	92.7813	392.578	91.8858	392.578	92.7204	392.578	91.9186	392.578	92.6825	392.578	92.0029	392.578	92.6619	392.578	92.1201	392.578	92.6495	392.578	92.2495	392.578	92.6344	392.578	92.3729	392.578	92.6058	392.578	92.477	392.578	92.5549
407.227	93.5862	407.227	93.5686	407.227	93.5469	407.227	93.4997	407.227	93.4494	407.227	93.388	407.227	93.2966	407.227	93.2447	407.227	93.0963	407.227	93.083	407.227	92.8614	407.227	92.9172	407.227	92.6097	407.227	92.7617	407.227	92.3625	407.227	92.6298	407.227	92.1431	407.227	92.5318	407.227	91.9735	407.227	92.4735	407.227	91.8706	407.227	92.4556	407.227	91.8424	407.227	92.4725	407.227	91.8857	407.227	92.5141	407.227	91.9869	407.227	92.5668	407.227	92.1248	407.227	92.6158	407.227	92.2756	407.227	92.6466	407.227	92.4171	407.227	92.6474	407.227	92.5321	407.227	92.6101
421.875	93.714	421.875	93.6699	421.875	93.6919	421.875	93.5648	421.875	93.6015	421.875	93.4069	421.875	93.4448	421.875	93.2076	421.875	93.2281	421.875	92.9809	421.875	92.9629	421.875	92.7448	421.875	92.6663	421.875	92.5199	421.875	92.3612	421.875	92.3282	421.875	92.0753	421.875	92.1893	421.875	91.8379	421.875	92.1155	421.875	91.6752	421.875	92.1081	421.875	91.6035	421.875	92.1563	421.875	91.6239	421.875	92.2401	421.875	91.7219	421.875	92.3355	421.875	91.8717	421.875	92.4191	421.875	92.043	421.875	92.4716	421.875	92.208	421.875	92.48	421.875	92.3444	421.875	92.4375
436.523	93.6218	436.523	93.5744	436.523	93.605	436.523	93.4636	436.523	93.5244	436.523	93.2919	436.523	93.3815	436.523	93.0658	436.523	93.1796	436.523	92.7972	436.523	92.9258	436.523	92.5054	436.523	92.6321	436.523	92.2182	436.523	92.3181	436.523	91.9696	436.523	92.0117	436.523	91.7941	436.523	91.7471	436.523	91.7172	436.523	91.5598	436.523	91.7458	436.523	91.477	436.523	91.8651	436.523	91.5081	436.523	92.0428	436.523	91.64	436.523	92.2387	436.523	91.841	436.523	92.4146	436.523	92.0702	436.523	92.5396	436.523	92.2878	436.523	92.5935	436.523	92.4609	436.523	92.5668
451.172	93.8526	451.172	93.8062	451.172	93.8267	451.172	93.6901	451.172	93.7275	451.172	93.5081	451.172	93.5562	451.172	93.2653	451.172	93.3174	451.172	92.9692	451.172	93.0205	451.172	92.6313	451.172	92.6807	451.172	92.2699	451.172	92.3202	451.172	91.9122	451.172	91.9682	451.172	91.5941	451.172	91.6592	451.172	91.3559	451.172	91.4277	451.172	91.2309	451.172	91.2998	451.172	91.2307	451.172	91.2842	451.172	91.3384	451.172	91.3673	451.172	91.5138	451.172	91.5173	451.172	91.7074	451.172	91.6933	451.172	91.8746	451.172	91.8552	451.172	91.9833	451.172	91.9702	451.172	92.0162
465.82	93.7502	465.82	93.666	465.82	93.7694	465.82	93.5228	465.82	93.718	465.82	93.3264	465.82	93.5912	465.82	93.0836	465.82	93.3863	465.82	92.804	465.82	93.1052	465.82	92.5017	465.82	92.7569	465.82	92.1967	465.82	92.3605	465.82	91.9154	465.82	91.9482	465.82	91.6875	465.82	91.566	465.82	91.5404	465.82	91.2678	465.82	91.4905	465.82	91.1017	465.82	91.5367	465.82	91.0903	465.82	91.6592	465.82	91.2188	465.82	91.8246	465.82	91.4411	465.82	91.9943	465.82	91.6975	465.82	92.1319	465.82	91.9334	465.82	92.2079	465.82	92.1093	465.82	92.2029
483.398	93.7387	483.398	93.6904	483.398	93.7207	483.398	93.5742	483.398	93.6369	483.398	93.3876	483.398	93.4865	483.398	93.1293	483.398	93.2688	483.398	92.802	483.398	92.9849	483.398	92.4156	483.398	92.6396	483.398	91.9922	483.398	92.2448	483.398	91.5694	483.398	91.8227	483.398	91.2001	483.398	91.4088	483.398	90.9422	483.398	91.0509	483.398	90.8383	483.398	90.8009	483.398	90.894	483.398	90.6983	483.398	91.0724	483.398	90.7511	483.398	91.3105	483.398	90.9296	483.398	91.5423	483.398	91.1782	483.398	91.7157	483.398	91.4343	483.398	91.7972	483.398	91.6449	483.398	91.7726
500.977	93.7022	500.977	93.6752	500.977	93.6604	500.977	93.5739	500.977	93.5546	500.977	93.3933	500.977	93.3878	500.977	93.1309	500.977	93.1623	500.977	92.7893	500.977	92.8805	500.977	92.3794	500.977	92.5475	500.977	91.9243	500.977	92.1741	500.977	91.4623	500.977	91.7802	500.977	91.0475	500.977	91.398	500.977	90.7421	500.977	91.0718	500.977	90.5972	500.977	90.8507	500.977	90.63	500.977	90.7729	500.977	90.813	500.977	90.8458	500.977	91.0843	500.977	91.0384	500.977	91.3723	500.977	91.2911	500.977	91.614	500.977	91.5372	500.977	91.765	500.977	91.7199	500.977	91.8015
518.555	93.696	518.555	93.6244	518.555	93.6899	518.555	93.4765	518.555	93.6046	518.555	93.2534	518.555	93.4399	518.555	92.956	518.555	93.1984	518.555	92.5871	518.555	92.8866	518.555	92.1554	518.555	92.5162	518.555	91.6811	518.555	92.1054	518.555	91.202	518.555	91.6806	518.555	90.7763	518.555	91.2776	518.555	90.4737	518.555	90.9397	518.555	90.3496	518.555	90.7102	518.555	90.4132	518.555	90.6177	518.555	90.6193	518.555	90.6623	518.555	90.8909	518.555	90.8125	518.555	91.1535	518.555	91.0174	518.555	91.3538	518.555	91.2231	518.555	91.4626	518.555	91.3848	518.555	91.4709
536.133	93.6622	536.133	93.6192	536.133	93.6467	536.133	93.5208	536.133	93.5636	536.133	93.3629	536.133	93.4009	536.133	93.1344	536.133	93.1472	536.133	92.8203	536.133	92.7945	536.133	92.4077	536.133	92.3428	536.133	91.8949	536.133	91.8059	536.133	91.3038	536.133	91.2189	536.133	90.6955	536.133	90.6459	536.133	90.1776	536.133	90.1801	536.133	89.8807	536.133	89.919	536.133	89.8868	536.133	89.9165	536.133	90.1652	536.133	90.1469	536.133	90.5929	536.133	90.5201	536.133	91.0331	536.133	90.9299	536.133	91.3866	536.133	91.2898	536.133	91.5994	536.133	91.5418	536.133	91.6508
553.711	93.9235	553.711	93.8518	553.711	93.9258	553.711	93.7104	553.711	93.855	553.711	93.4957	553.711	93.7044	553.711	93.2013	553.711	93.4661	553.711	92.8214	553.711	93.1328	553.711	92.3538	553.711	92.7013	553.711	91.8068	553.711	92.1771	553.711	91.207	553.711	91.582	553.711	90.6105	553.711	90.9633	553.711	90.1066	553.711	90.4025	553.711	89.8012	553.711	90.0068	553.711	89.7668	553.711	89.8689	553.711	89.9917	553.711	90.008	553.711	90.3825	553.711	90.35	553.711	90.8171	553.711	90.7706	553.711	91.192	553.711	91.1532	553.711	91.4376	553.711	91.4167	553.711	91.5163
574.219	93.8887	574.219	93.8702	574.219	93.854	574.219	93.7988	574.219	93.7586	574.219	93.6664	574.219	93.5905	574.219	93.4571	574.219	93.3351	574.219	93.1503	574.219	92.9785	574.219	92.7257	574.219	92.5106	574.219	92.1715	574.219	91.9306	574.219	91.496	574.219	91.256	574.219	90.7444	574.219	90.5364	574.219	90.0192	574.219	89.8686	574.219	89.48	574.219	89.3913	574.219	89.2806	574.219	89.23	574.219	89.4539	574.219	89.4074	574.219	89.8779	574.219	89.8183	574.219	90.3717	574.219	90.3048	574.219	90.7932	574.219	90.7352	574.219	91.0615	574.219	91.0281	574.219	91.1418
594.727	93.8996	594.727	93.856	594.727	93.8973	594.727	93.769	594.727	93.843	594.727	93.6355	594.727	93.7266	594.727	93.4456	594.727	93.534	594.727	93.1829	594.727	93.2469	594.727	92.8263	594.727	92.8454	594.727	92.3573	594.727	92.3118	594.727	91.7695	594.727	91.6402	594.727	91.0858	594.727	90.851	594.727	90.3785	594.727	90.0129	594.727	89.7803	594.727	89.2648	594.727	89.4472	594.727	88.7965	594.727	89.4573	594.727	88.7408	594.727	89.7381	594.727	89.0553	594.727	90.1238	594.727	89.5579	594.727	90.4602	594.727	90.0618	594.727	90.6502	594.727	90.4455	594.727	90.6485
615.234	94.0496	615.234	93.9487	615.234	94.0995	615.234	93.8018	615.234	94.0906	615.234	93.6099	615.234	94.0124	615.234	93.3676	615.234	93.8512	615.234	93.0616	615.234	93.5903	615.234	92.6717	615.234	93.2114	615.234	92.1772	615.234	92.6974	615.234	91.5688	615.234	92.0384	615.234	90.8666	615.234	91.2428	615.234	90.1437	615.234	90.3583	615.234	89.54	615.234	89.501	615.234	89.2235	615.234	88.8651	615.234	89.2775	615.234	88.6438	615.234	89.6186	615.234	88.8699	615.234	90.0621	615.234	89.3756	615.234	90.4389	615.234	89.9339	615.234	90.6434	615.234	90.3797	615.234	90.6265
638.672	93.9479	638.672	93.888	638.672	93.9658	638.672	93.7858	638.672	93.939	638.672	93.6384	638.672	93.8611	638.672	93.4373	638.672	93.7201	638.672	93.1665	638.672	93.4986	638.672	92.8018	638.672	93.1758	638.672	92.3154	638.672	92.7322	638.672	91.6856	638.672	92.1571	638.672	90.9155	638.672	91.4604	638.672	90.0635	638.672	90.6909	638.672	89.2781	638.672	89.9572	638.672	88.7878	638.672	89.4283	638.672	88.7633	638.672	89.2595	638.672	89.1493	638.672	89.465	638.672	89.7171	638.672	89.8917	638.672	90.2479	638.672	90.3362	638.672	90.6113	638.672	90.6483	638.672	90.7488
659.18	94.1138	659.18	94.0254	659.18	94.1586	659.18	93.8954	659.18	94.156	659.18	93.7228	659.18	94.0995	659.18	93.5021	659.18	93.9777	659.18	93.2212	659.18	93.7712	659.18	92.8606	659.18	93.4528	659.18	92.395	659.18	92.9912	659.18	91.8005	659.18	92.3596	659.18	91.0695	659.18	91.5488	659.18	90.2364	659.18	90.5902	659.18	89.4118	659.18	89.5934	659.18	88.7935	659.18	88.7766	659.18	88.5799	659.18	88.4006	659.18	88.7978	659.18	88.5539	659.18	89.2661	659.18	89.0482	659.18	89.7505	659.18	89.6009	659.18	90.0841	659.18	90.0106	659.18	90.1801
682.617	94.1252	682.617	94.0595	682.617	94.1467	682.617	93.9519	682.617	94.1199	682.617	93.8005	682.617	94.0398	682.617	93.5963	682.617	93.8994	682.617	93.3215	682.617	93.6886	682.617	92.9505	682.617	93.3932	682.617	92.4563	682.617	92.9938	682.617	91.8191	682.617	92.4673	682.617	91.0435	682.617	91.7946	682.617	90.1841	682.617	90.9783	682.617	89.3772	682.617	90.0775	682.617	88.8359	682.617	89.2503	682.617	88.7289	682.617	88.7427	682.617	89.0176	682.617	88.7235	682.617	89.4867	682.617	89.0978	682.617	89.9185	682.617	89.6005	682.617	90.181	682.617	90.0103	682.617	90.2154
706.055	93.9716	706.055	93.9029	706.055	93.9887	706.055	93.7892	706.055	93.9538	706.055	93.642	706.055	93.8697	706.055	93.47	706.055	93.7374	706.055	93.27	706.055	93.5493	706.055	93.0197	706.055	93.2855	706.055	92.6802	706.055	92.9149	706.055	92.2078	706.055	92.402	706.055	91.5727	706.055	91.7218	706.055	90.7852	706.055	90.8817	706.055	89.931	706.055	89.9556	706.055	89.198	706.055	89.1175	706.055	88.8214	706.055	88.6129	706.055	88.9012	706.055	88.5929	706.055	89.2896	706.055	88.9587	706.055	89.7295	706.055	89.4585	706.055	90.0243	706.055	89.8734	706.055	90.078
732.422	94.0672	732.422	93.9826	732.422	94.1122	732.422	93.8638	732.422	94.1074	732.422	93.7093	732.422	94.0418	732.422	93.5115	732.422	93.905	732.422	93.2591	732.422	93.6858	732.422	92.937	732.422	93.3688	732.422	92.5231	732.422	92.9327	732.422	91.9879	732.422	92.3525	732.422	91.3067	732.422	91.6084	732.422	90.4904	732.422	90.7062	732.422	89.6343	732.422	89.7161	732.422	88.9492	732.422	88.8222	732.422	88.6735	732.422	88.306	732.422	88.8533	732.422	88.3415	732.422	89.2867	732.422	88.7944	732.422	89.7218	732.422	89.3624	732.422	89.9959	732.422	89.8122	732.422	90.0331
758.789	94.241	758.789	94.1618	758.789	94.2708	758.789	94.0343	758.789	94.2491	758.789	93.8565	758.789	94.1732	758.789	93.6198	758.789	94.0396	758.789	93.3091	758.789	93.841	758.789	92.9047	758.789	93.5621	758.789	92.3874	758.789	93.1749	758.789	91.7433	758.789	92.64	758.789	90.9711	758.789	91.9163	758.789	90.1017	758.789	90.9837	758.789	89.2384	758.789	89.8873	758.789	88.5954	758.789	88.8064	758.789	88.4184	758.789	88.0804	758.789	88.7412	758.789	87.9966	758.789	89.3094	758.789	88.464	758.789	89.818	758.789	89.1294	758.789	90.0842	758.789	89.705	758.789	90.0439
785.156	93.8137	785.156	93.7191	785.156	93.8686	785.156	93.5936	785.156	93.8845	785.156	93.4513	785.156	93.8639	785.156	93.2967	785.156	93.7972	785.156	93.1118	785.156	93.6555	785.156	92.8522	785.156	93.3998	785.156	92.4587	785.156	92.995	785.156	91.876	785.156	92.418	785.156	91.0725	785.156	91.6528	785.156	90.0638	785.156	90.6876	785.156	88.9551	785.156	89.5404	785.156	88.0028	785.156	88.3435	785.156	87.5769	785.156	87.4598	785.156	87.8369	785.156	87.3326	785.156	88.505	785.156	87.9265	785.156	89.1745	785.156	88.741	785.156	89.5963	785.156	89.3756	785.156	89.6714
811.523	93.6792	811.523	93.6385	811.523	93.682	811.523	93.5602	811.523	93.6498	811.523	93.447	811.523	93.5886	811.523	93.3001	811.523	93.5027	811.523	93.1131	811.523	93.3838	811.523	92.8621	811.523	93.2038	811.523	92.5019	811.523	92.9166	811.523	91.9751	811.523	92.4708	811.523	91.2338	811.523	91.8243	811.523	90.2762	811.523	90.9591	811.523	89.2025	811.523	89.9079	811.523	88.2714	811.523	88.8063	811.523	87.8283	811.523	87.9456	811.523	88.0004	811.523	87.6631	811.523	88.5455	811.523	88.0009	811.523	89.1158	811.523	88.6352	811.523	89.4755	811.523	89.208	811.523	89.5127
840.82	93.6448	840.82	93.5166	840.82	93.7411	840.82	93.3677	840.82	93.7948	840.82	93.2023	840.82	93.8004	840.82	93.016	840.82	93.7532	840.82	92.7961	840.82	93.6407	840.82	92.5176	840.82	93.4382	840.82	92.1355	840.82	93.113	840.82	91.5862	840.82	92.6286	840.82	90.8087	840.82	91.9478	840.82	89.7912	840.82	91.0394	840.82	88.6527	840.82	89.9032	840.82	87.7273	840.82	88.6391	840.82	87.4233	840.82	87.5573	840.82	87.7678	840.82	87.1298	840.82	88.3815	840.82	87.4931	840.82	88.9211	840.82	88.225	840.82	89.2219	840.82	88.8682	840.82	89.2139
870.117	93.3795	870.117	93.2485	870.117	93.4536	870.117	93.0645	870.117	93.4774	870.117	92.8538	870.117	93.4549	870.117	92.6587	870.117	93.3861	870.117	92.5071	870.117	93.2726	870.117	92.3764	870.117	93.113	870.117	92.1863	870.117	92.8823	870.117	91.8281	870.117	92.5168	870.117	91.2101	870.117	91.9276	870.117	90.3032	870.117	91.0405	870.117	89.1975	870.117	89.8532	870.117	88.1744	870.117	88.5332	870.117	87.6669	870.117	87.5324	870.117	87.8942	870.117	87.3718	870.117	88.5848	870.117	87.9909	870.117	89.3022	870.117	88.845	870.117	89.7625	870.117	89.5212	870.117	89.8438
902.344	93.5517	902.344	93.3566	902.344	93.662	902.344	93.1125	902.344	93.6785	902.344	92.8559	902.344	93.6285	902.344	92.602	902.344	93.5538	902.344	92.3421	902.344	93.4701	902.344	92.0585	902.344	93.3454	902.344	91.73	902.344	93.1175	902.344	91.3156	902.344	92.7227	902.344	90.7386	902.344	92.1047	902.344	89.907	902.344	91.2108	902.344	88.7991	902.344	90.0104	902.344	87.6402	902.344	88.5812	902.344	87.0388	902.344	87.2933	902.344	87.4278	902.344	86.8049	902.344	88.3505	902.344	87.3068	902.344	89.1547	902.344	88.2238	902.344	89.5537	902.344	89.0284	902.344	89.4996
931.641	93.9367	931.641	93.8376	931.641	93.9701	931.641	93.671	931.641	93.9415	931.641	93.4416	931.641	93.8527	931.641	93.1574	931.641	93.7112	931.641	92.8177	931.641	93.5385	931.641	92.4062	931.641	93.3587	931.641	91.8915	931.641	93.1651	931.641	91.2306	931.641	92.8959	931.641	90.3745	931.641	92.4496	931.641	89.2858	931.641	91.7261	931.641	88.0005	931.641	90.6654	931.641	86.7805	931.641	89.2999	931.641	86.2239	931.641	87.8807	931.641	86.7256	931.641	87.0212	931.641	87.8266	931.641	87.2507	931.641	88.8586	931.641	88.186	931.641	89.4753	931.641	89.0866	931.641	89.5553
966.797	94.0024	966.797	93.972	966.797	93.9377	966.797	93.8501	966.797	93.7936	966.797	93.6569	966.797	93.5992	966.797	93.4156	966.797	93.3789	966.797	93.1388	966.797	93.1389	966.797	92.82	966.797	92.869	966.797	92.4318	966.797	92.555	966.797	91.9184	966.797	92.1754	966.797	91.1893	966.797	91.6798	966.797	90.1356	966.797	90.9822	966.797	88.7036	966.797	90.0041	966.797	87.0992	966.797	88.7933	966.797	86.0736	966.797	87.708	966.797	86.3366	966.797	87.3429	966.797	87.3658	966.797	87.7858	966.797	88.3463	966.797	88.4855	966.797	88.9662	966.797	89.0026	966.797	89.1788
999.023	93.5876	999.023	93.4967	999.023	93.5898	999.023	93.3324	999.023	93.4974	999.023	93.1264	999.023	93.319	999.023	92.9295	999.023	93.0874	999.023	92.7889	999.023	92.8567	999.023	92.7012	999.023	92.6654	999.023	92.5849	999.023	92.487	999.023	92.3045	999.023	92.2211	999.023	91.7192	999.023	91.7372	999.023	90.7198	999.023	90.924	999.023	89.2688	999.023	89.7324	999.023	87.53	999.023	88.2613	999.023	86.2013	999.023	86.9464	999.023	86.2802	999.023	86.5324	999.023	87.4454	999.023	87.1842	999.023	88.6194	999.023	88.2172	999.023	89.3135	999.023	89.05	999.023	89.4453
1,034.18	93.4452	1,034.18	93.2938	1,034.18	93.4267	1,034.18	93.0021	1,034.18	93.2552	1,034.18	92.6559	1,034.18	92.9761	1,034.18	92.3649	1,034.18	92.6552	1,034.18	92.1827	1,034.18	92.3708	1,034.18	92.0565	1,034.18	92.1759	1,034.18	91.8742	1,034.18	92.0419	1,034.18	91.5347	1,034.18	91.8467	1,034.18	90.9562	1,034.18	91.4311	1,034.18	90.0515	1,034.18	90.6661	1,034.18	88.7593	1,034.18	89.4948	1,034.18	87.2312	1,034.18	88.0036	1,034.18	86.1738	1,034.18	86.6219	1,034.18	86.4114	1,034.18	86.1704	1,034.18	87.4947	1,034.18	86.8749	1,034.18	88.5191	1,034.18	87.9671	1,034.18	89.1172	1,034.18	88.8195	1,034.18	89.2179
1,072.27	93.3557	1,072.27	93.2	1,072.27	93.3454	1,072.27	92.9052	1,072.27	93.1777	1,072.27	92.5205	1,072.27	92.8999	1,072.27	92.1061	1,072.27	92.5778	1,072.27	91.7198	1,072.27	92.2664	1,072.27	91.3957	1,072.27	91.9933	1,072.27	91.1172	1,072.27	91.7496	1,072.27	90.7997	1,072.27	91.4705	1,072.27	90.2898	1,072.27	91.0245	1,072.27	89.3884	1,072.27	90.2412	1,072.27	87.9162	1,072.27	88.9678	1,072.27	85.9542	1,072.27	87.1824	1,072.27	84.5532	1,072.27	85.322	1,072.27	85.1567	1,072.27	84.6454	1,072.27	86.7111	1,072.27	85.6559	1,072.27	87.9234	1,072.27	87.114	1,072.27	88.559	1,072.27	88.1718	1,072.27	88.6465
1,110.35	93.2325	1,110.35	93.1067	1,110.35	93.21	1,110.35	92.8258	1,110.35	93.053	1,110.35	92.4238	1,110.35	92.7717	1,110.35	91.9988	1,110.35	92.3971	1,110.35	91.676	1,110.35	92.0081	1,110.35	91.5013	1,110.35	91.7042	1,110.35	91.373	1,110.35	91.5076	1,110.35	91.1036	1,110.35	91.2961	1,110.35	90.5228	1,110.35	90.8606	1,110.35	89.515	1,110.35	90.0054	1,110.35	88.0066	1,110.35	88.5939	1,110.35	86.0161	1,110.35	86.5904	1,110.35	84.0764	1,110.35	84.356	1,110.35	83.8215	1,110.35	83.3762	1,110.35	85.4794	1,110.35	84.6178	1,110.35	87.2272	1,110.35	86.4592	1,110.35	88.2382	1,110.35	87.8013	1,110.35	88.4141
1,148.44	93.1952	1,148.44	93.0415	1,148.44	93.1569	1,148.44	92.7175	1,148.44	92.9366	1,148.44	92.2668	1,148.44	92.5839	1,148.44	91.7659	1,148.44	92.1749	1,148.44	91.3259	1,148.44	91.7946	1,148.44	91.0345	1,148.44	91.5242	1,148.44	90.8613	1,148.44	91.3892	1,148.44	90.6451	1,148.44	91.2893	1,148.44	90.1743	1,148.44	91.0249	1,148.44	89.248	1,148.44	90.3905	1,148.44	87.679	1,148.44	89.2213	1,148.44	85.3632	1,148.44	87.4185	1,148.44	82.9577	1,148.44	85.1455	1,148.44	82.9639	1,148.44	83.5686	1,148.44	85.0543	1,148.44	84.244	1,148.44	86.7822	1,148.44	85.9246	1,148.44	87.6415	1,148.44	87.1786	1,148.44	87.7469
1,189.45	93.694	1,189.45	93.5097	1,189.45	93.6326	1,189.45	93.0718	1,189.45	93.3796	1,189.45	92.4389	1,189.45	92.9909	1,189.45	91.7289	1,189.45	92.503	1,189.45	91.0885	1,189.45	91.976	1,189.45	90.637	1,189.45	91.5431	1,189.45	90.3933	1,189.45	91.3166	1,189.45	90.2313	1,189.45	91.2079	1,189.45	89.9119	1,189.45	90.9554	1,189.45	89.1614	1,189.45	90.3066	1,189.45	87.7277	1,189.45	89.0847	1,189.45	85.4569	1,189.45	87.1702	1,189.45	82.7417	1,189.45	84.6714	1,189.45	81.8031	1,189.45	82.8369	1,189.45	83.7119	1,189.45	83.629	1,189.45	85.9329	1,189.45	85.6149	1,189.45	87.3301	1,189.45	87.1137	1,189.45	87.7198
1,230.47	93.8651	1,230.47	93.7301	1,230.47	93.7581	1,230.47	93.349	1,230.47	93.4475	1,230.47	92.7482	1,230.47	92.9755	1,230.47	91.9927	1,230.47	92.368	1,230.47	91.2182	1,230.47	91.6978	1,230.47	90.6102	1,230.47	91.1586	1,230.47	90.2939	1,230.47	90.9393	1,230.47	90.2162	1,230.47	90.9651	1,230.47	90.1179	1,230.47	90.9391	1,230.47	89.6162	1,230.47	90.5653	1,230.47	88.3104	1,230.47	89.5928	1,230.47	85.8265	1,230.47	87.7669	1,230.47	82.1014	1,230.47	84.9335	1,230.47	80.0506	1,230.47	82.3001	1,230.47	82.7313	1,230.47	83.3675	1,230.47	85.4973	1,230.47	85.8542	1,230.47	87.1534	1,230.47	87.3671	1,230.47	87.7712
1,274.41	94.158	1,274.41	93.9371	1,274.41	94.129	1,274.41	93.4921	1,274.41	93.8653	1,274.41	92.8557	1,274.41	93.4124	1,274.41	92.0596	1,274.41	92.8012	1,274.41	91.2022	1,274.41	92.0641	1,274.41	90.5186	1,274.41	91.3363	1,274.41	90.2536	1,274.41	90.8593	1,274.41	90.347	1,274.41	90.7213	1,274.41	90.4315	1,274.41	90.6874	1,274.41	90.1247	1,274.41	90.4015	1,274.41	89.1447	1,274.41	89.5469	1,274.41	87.2773	1,274.41	87.8297	1,274.41	84.4366	1,274.41	85.0145	1,274.41	81.5713	1,274.41	81.9314	1,274.41	82.0374	1,274.41	82.4595	1,274.41	84.648	1,274.41	85.0843	1,274.41	86.5473	1,274.41	86.7826	1,274.41	87.2609
1,318.36	94.3141	1,318.36	94.1571	1,318.36	94.2428	1,318.36	93.7758	1,318.36	93.9774	1,318.36	93.1557	1,318.36	93.5676	1,318.36	92.2831	1,318.36	92.9892	1,318.36	91.2776	1,318.36	92.1942	1,318.36	90.436	1,318.36	91.3373	1,318.36	89.9813	1,318.36	90.8271	1,318.36	89.8402	1,318.36	90.8152	1,318.36	89.7969	1,318.36	90.9231	1,318.36	89.5823	1,318.36	90.736	1,318.36	88.8209	1,318.36	90.0087	1,318.36	87.1318	1,318.36	88.491	1,318.36	84.4123	1,318.36	85.7901	1,318.36	81.9257	1,318.36	81.8543	1,318.36	82.5959	1,318.36	80.9696	1,318.36	84.8691	1,318.36	84.1693	1,318.36	86.5167	1,318.36	86.3368	1,318.36	87.0554
1,365.23	93.9912	1,365.23	93.8657	1,365.23	93.9327	1,365.23	93.5541	1,365.23	93.6703	1,365.23	92.9985	1,365.23	93.2271	1,365.23	92.1559	1,365.23	92.6467	1,365.23	91.1038	1,365.23	91.9246	1,365.23	90.0961	1,365.23	91.0859	1,365.23	89.4485	1,365.23	90.3712	1,365.23	89.2314	1,365.23	90.0968	1,365.23	89.1972	1,365.23	90.1469	1,365.23	89.0014	1,365.23	90.0387	1,365.23	88.2908	1,365.23	89.3951	1,365.23	86.7206	1,365.23	88.0162	1,365.23	84.1963	1,365.23	85.699	1,365.23	82.0386	1,365.23	82.3948	1,365.23	82.8786	1,365.23	80.8091	1,365.23	84.9872	1,365.23	83.5287	1,365.23	86.4539	1,365.23	85.9435	1,365.23	86.856
1,415.04	93.7424	1,415.04	93.5517	1,415.04	93.7054	1,415.04	93.1619	1,415.04	93.4136	1,415.04	92.5721	1,415.04	92.8984	1,415.04	91.7683	1,415.04	92.211	1,415.04	90.7559	1,415.04	91.3297	1,415.04	89.6629	1,415.04	90.2648	1,415.04	88.8468	1,415.04	89.3367	1,415.04	88.5943	1,415.04	89.0224	1,415.04	88.632	1,415.04	89.2047	1,415.04	88.4412	1,415.04	89.3005	1,415.04	87.6647	1,415.04	88.9036	1,415.04	86.0597	1,415.04	87.7812	1,415.04	83.5573	1,415.04	85.6872	1,415.04	81.3354	1,415.04	82.5758	1,415.04	82.2934	1,415.04	80.6697	1,415.04	84.7253	1,415.04	82.832	1,415.04	86.2815	1,415.04	85.3148	1,415.04	86.5008
1,464.84	93.7159	1,464.84	93.5312	1,464.84	93.6944	1,464.84	93.1288	1,464.84	93.4552	1,464.84	92.5124	1,464.84	92.9703	1,464.84	91.7074	1,464.84	92.2244	1,464.84	90.7157	1,464.84	91.2334	1,464.84	89.5878	1,464.84	90.1011	1,464.84	88.6611	1,464.84	89.1279	1,464.84	88.3861	1,464.84	88.7078	1,464.84	88.5398	1,464.84	88.8311	1,464.84	88.426	1,464.84	88.9962	1,464.84	87.5521	1,464.84	88.6851	1,464.84	85.6344	1,464.84	87.5451	1,464.84	82.5551	1,464.84	85.3194	1,464.84	79.7188	1,464.84	82.2095	1,464.84	81.1854	1,464.84	80.8674	1,464.84	84.0247	1,464.84	82.8564	1,464.84	85.6409	1,464.84	84.8956	1,464.84	85.8856
1,514.65	94.0457	1,514.65	93.8798	1,514.65	94.059	1,514.65	93.5331	1,514.65	93.8799	1,514.65	92.9623	1,514.65	93.44	1,514.65	92.1436	1,514.65	92.7159	1,514.65	91.0636	1,514.65	91.7258	1,514.65	89.7984	1,514.65	90.5148	1,514.65	88.7111	1,514.65	89.317	1,514.65	88.2922	1,514.65	88.6834	1,514.65	88.3942	1,514.65	88.8083	1,514.65	88.3513	1,514.65	89.0389	1,514.65	87.6748	1,514.65	88.7281	1,514.65	86.039	1,514.65	87.6256	1,514.65	83.0728	1,514.65	85.6116	1,514.65	79.5402	1,514.65	82.6783	1,514.65	80.794	1,514.65	80.8092	1,514.65	83.8602	1,514.65	82.7787	1,514.65	85.5014	1,514.65	84.9634	1,514.65	85.847
1,570.31	94.1533	1,570.31	93.9677	1,570.31	94.1721	1,570.31	93.6529	1,570.31	93.9816	1,570.31	93.1848	1,570.31	93.5438	1,570.31	92.4694	1,570.31	92.8439	1,570.31	91.462	1,570.31	91.8873	1,570.31	90.2549	1,570.31	90.6678	1,570.31	89.0711	1,570.31	89.2974	1,570.31	88.2811	1,570.31	88.3355	1,570.31	88.124	1,570.31	88.3808	1,570.31	88.1762	1,570.31	88.8957	1,570.31	87.7287	1,570.31	88.9215	1,570.31	86.2943	1,570.31	87.9714	1,570.31	83.5347	1,570.31	85.8463	1,570.31	79.8201	1,570.31	82.6342	1,570.31	80.2174	1,570.31	81.0255	1,570.31	83.6816	1,570.31	83.5334	1,570.31	85.7925	1,570.31	85.7372	1,570.31	86.4475
1,623.05	93.5048	1,623.05	93.3526	1,623.05	93.4939	1,623.05	93.0471	1,623.05	93.2753	1,623.05	92.5773	1,623.05	92.809	1,623.05	91.9028	1,623.05	92.114	1,623.05	90.9537	1,623.05	91.1959	1,623.05	89.7267	1,623.05	89.9659	1,623.05	88.4728	1,623.05	88.4574	1,623.05	87.7065	1,623.05	87.2535	1,623.05	87.6347	1,623.05	87.1274	1,623.05	87.7915	1,623.05	87.6702	1,623.05	87.5025	1,623.05	87.88	1,623.05	86.1919	1,623.05	87.1805	1,623.05	83.4547	1,623.05	85.2269	1,623.05	80.036	1,623.05	82.0093	1,623.05	80.6206	1,623.05	80.3029	1,623.05	83.5251	1,623.05	82.6069	1,623.05	85.3239	1,623.05	84.8444	1,623.05	85.7663
1,681.64	92.6578	1,681.64	92.5085	1,681.64	92.5914	1,681.64	92.1639	1,681.64	92.3642	1,681.64	91.7202	1,681.64	91.9615	1,681.64	91.1518	1,681.64	91.3389	1,681.64	90.3013	1,681.64	90.4976	1,681.64	89.1219	1,681.64	89.4076	1,681.64	87.8615	1,681.64	87.9989	1,681.64	86.9592	1,681.64	86.4838	1,681.64	86.6722	1,681.64	85.7236	1,681.64	86.7921	1,681.64	86.068	1,681.64	86.7189	1,681.64	86.3984	1,681.64	85.7581	1,681.64	85.8635	1,681.64	83.3004	1,681.64	84.0699	1,681.64	79.5474	1,681.64	80.8534	1,681.64	80.1194	1,681.64	78.856	1,681.64	83.396	1,681.64	81.4555	1,681.64	84.9026	1,681.64	83.8619	1,681.64	84.9502
1,740.23	92.6279	1,740.23	92.4542	1,740.23	92.5109	1,740.23	91.9598	1,740.23	92.2628	1,740.23	91.2963	1,740.23	91.9146	1,740.23	90.5593	1,740.23	91.3529	1,740.23	89.6204	1,740.23	90.5377	1,740.23	88.3721	1,740.23	89.5472	1,740.23	87.1324	1,740.23	88.4277	1,740.23	86.4722	1,740.23	87.2584	1,740.23	86.3614	1,740.23	86.3949	1,740.23	86.3381	1,740.23	86.151	1,740.23	86.0054	1,740.23	86.1625	1,740.23	84.8918	1,740.23	85.7401	1,740.23	82.4535	1,740.23	84.2769	1,740.23	78.9097	1,740.23	81.4064	1,740.23	79.2655	1,740.23	79.0701	1,740.23	82.412	1,740.23	81.0504	1,740.23	84.1328	1,740.23	83.3749	1,740.23	84.398
1,801.76	92.9892	1,801.76	92.8271	1,801.76	92.9235	1,801.76	92.4039	1,801.76	92.7073	1,801.76	91.7685	1,801.76	92.336	1,801.76	90.9759	1,801.76	91.7339	1,801.76	89.9129	1,801.76	90.8885	1,801.76	88.3021	1,801.76	89.8178	1,801.76	86.315	1,801.76	88.5023	1,801.76	85.2188	1,801.76	87.1954	1,801.76	85.4134	1,801.76	86.4815	1,801.76	85.6389	1,801.76	86.3268	1,801.76	85.377	1,801.76	86.182	1,801.76	84.4459	1,801.76	85.6767	1,801.76	82.2788	1,801.76	84.2559	1,801.76	79.0835	1,801.76	81.5536	1,801.76	79.5254	1,801.76	80.0333	1,801.76	82.552	1,801.76	81.7652	1,801.76	84.3421	1,801.76	83.5686	1,801.76	84.5728
1,866.21	92.5904	1,866.21	92.6008	1,866.21	92.3549	1,866.21	92.331	1,866.21	92.1756	1,866.21	91.8753	1,866.21	92.0738	1,866.21	91.1823	1,866.21	91.6596	1,866.21	90.1109	1,866.21	90.7085	1,866.21	88.5751	1,866.21	89.4481	1,866.21	86.5643	1,866.21	88.0621	1,866.21	84.6889	1,866.21	86.5387	1,866.21	84.4499	1,866.21	85.5232	1,866.21	85.258	1,866.21	85.4533	1,866.21	85.3636	1,866.21	85.3764	1,866.21	84.3861	1,866.21	84.7888	1,866.21	82.4583	1,866.21	83.233	1,866.21	79.7489	1,866.21	80.1144	1,866.21	79.6598	1,866.21	79.1998	1,866.21	82.4993	1,866.21	82.1987	1,866.21	84.143	1,866.21	83.9667	1,866.21	84.4789
1,930.66	91.4364	1,930.66	91.4504	1,930.66	91.2794	1,930.66	91.3427	1,930.66	91.0385	1,930.66	91.0312	1,930.66	90.9353	1,930.66	90.3828	1,930.66	90.8043	1,930.66	89.3378	1,930.66	90.0647	1,930.66	87.9413	1,930.66	88.6871	1,930.66	86.2254	1,930.66	87.2461	1,930.66	84.4505	1,930.66	85.8718	1,930.66	83.8979	1,930.66	84.5551	1,930.66	84.9275	1,930.66	83.7402	1,930.66	85.6083	1,930.66	83.2297	1,930.66	84.9005	1,930.66	82.7774	1,930.66	82.4239	1,930.66	81.8842	1,930.66	78.6385	1,930.66	78.9566	1,930.66	80.0546	1,930.66	75.584	1,930.66	82.5893	1,930.66	80.1888	1,930.66	83.0438	1,930.66	82.8508	1,930.66	83.1285
2,000.98	91.4614	2,000.98	91.5662	2,000.98	91.3297	2,000.98	91.4255	2,000.98	91.3036	2,000.98	90.9602	2,000.98	91.1733	2,000.98	90.1902	2,000.98	90.6514	2,000.98	89.205	2,000.98	89.7137	2,000.98	88.0714	2,000.98	88.6671	2,000.98	86.6437	2,000.98	87.7097	2,000.98	84.7628	2,000.98	86.4106	2,000.98	83.3454	2,000.98	84.7176	2,000.98	83.6356	2,000.98	83.6891	2,000.98	84.2913	2,000.98	83.5397	2,000.98	84.1383	2,000.98	83.1785	2,000.98	82.7321	2,000.98	82.1583	2,000.98	80.0634	2,000.98	80.5106	2,000.98	80.7415	2,000.98	78.5675	2,000.98	83.5899	2,000.98	80.1743	2,000.98	84.7865	2,000.98	83.3141	2,000.98	84.7418
2,071.29	91.8443	2,071.29	91.3981	2,071.29	91.8419	2,071.29	90.8772	2,071.29	91.5427	2,071.29	90.8117	2,071.29	91.142	2,071.29	90.6875	2,071.29	90.6078	2,071.29	89.774	2,071.29	89.9245	2,071.29	88.2306	2,071.29	89.242	2,071.29	86.1775	2,071.29	88.3289	2,071.29	83.0204	2,071.29	86.6106	2,071.29	81.61	2,071.29	84.2245	2,071.29	84.2623	2,071.29	82.733	2,071.29	85.0894	2,071.29	82.3202	2,071.29	83.4126	2,071.29	81.4321	2,071.29	79.4042	2,071.29	79.7516	2,071.29	76.2739	2,071.29	77.6284	2,071.29	80.9495	2,071.29	77.5032	2,071.29	84.2202	2,071.29	80.9209	2,071.29	85.8084	2,071.29	84.3127	2,071.29	85.9583
2,144.53	90.7422	2,144.53	91.2409	2,144.53	90.1489	2,144.53	91.1477	2,144.53	90.0037	2,144.53	90.1496	2,144.53	90.2782	2,144.53	89.2728	2,144.53	89.8067	2,144.53	89.2001	2,144.53	88.4834	2,144.53	88.5909	2,144.53	87.3099	2,144.53	86.8949	2,144.53	86.7169	2,144.53	84.7604	2,144.53	85.7772	2,144.53	81.8349	2,144.53	84.7525	2,144.53	80.9404	2,144.53	84.3844	2,144.53	83.7563	2,144.53	83.9488	2,144.53	84.2381	2,144.53	82.8162	2,144.53	81.3709	2,144.53	80.7059	2,144.53	74.6648	2,144.53	78.4554	2,144.53	79.0518	2,144.53	77.7963	2,144.53	83.9706	2,144.53	81.3635	2,144.53	85.3109	2,144.53	84.7133	2,144.53	85.5601
2,217.77	91.3344	2,217.77	90.6341	2,217.77	91.5542	2,217.77	89.8484	2,217.77	90.7672	2,217.77	89.078	2,217.77	89.6394	2,217.77	88.7208	2,217.77	89.8356	2,217.77	88.7129	2,217.77	89.9283	2,217.77	87.6603	2,217.77	88.0676	2,217.77	84.6758	2,217.77	85.5207	2,217.77	81.833	2,217.77	84.9331	2,217.77	81.5224	2,217.77	83.8003	2,217.77	81.0307	2,217.77	82.2852	2,217.77	81.2797	2,217.77	83.0808	2,217.77	82.6064	2,217.77	83.1687	2,217.77	80.7943	2,217.77	80.2936	2,217.77	75.3533	2,217.77	78.0482	2,217.77	79.7784	2,217.77	78.2377	2,217.77	81.345	2,217.77	81.4547	2,217.77	82.6184	2,217.77	84.6355	2,217.77	84.7267
2,296.88	90.6812	2,296.88	90.5309	2,296.88	91.0798	2,296.88	90.1826	2,296.88	90.9255	2,296.88	89.1539	2,296.88	90.1993	2,296.88	88.6077	2,296.88	89.7846	2,296.88	89.0672	2,296.88	89.5148	2,296.88	88.5386	2,296.88	88.7706	2,296.88	86.0902	2,296.88	87.5997	2,296.88	82.4467	2,296.88	86.3119	2,296.88	80.6878	2,296.88	84.7994	2,296.88	82.5886	2,296.88	83.6149	2,296.88	81.4483	2,296.88	84.6708	2,296.88	81.3718	2,296.88	85.3855	2,296.88	80.8919	2,296.88	82.032	2,296.88	72.1682	2,296.88	75.7128	2,296.88	77.1781	2,296.88	80.331	2,296.88	82.1139	2,296.88	83.0276	2,296.88	84.9683	2,296.88	84.669	2,296.88	85.5762
2,378.91	90.874	2,378.91	91.0647	2,378.91	91.794	2,378.91	91.1415	2,378.91	92.477	2,378.91	90.7359	2,378.91	91.7222	2,378.91	90.3173	2,378.91	90.6263	2,378.91	89.1404	2,378.91	90.0774	2,378.91	88.0953	2,378.91	88.7188	2,378.91	88.5057	2,378.91	86.2145	2,378.91	87.721	2,378.91	83.3157	2,378.91	83.3438	2,378.91	79.9539	2,378.91	80.414	2,378.91	80.3689	2,378.91	81.407	2,378.91	84.8184	2,378.91	81.8343	2,378.91	86.439	2,378.91	81.6096	2,378.91	84.1981	2,378.91	76.6188	2,378.91	79.9095	2,378.91	72.2009	2,378.91	77.2602	2,378.91	82.3524	2,378.91	84.0417	2,378.91	85.7252	2,378.91	85.5951	2,378.91	85.8107
2,460.94	92.2913	2,460.94	92.3084	2,460.94	92.183	2,460.94	92.2425	2,460.94	91.6346	2,460.94	91.6493	2,460.94	90.7732	2,460.94	90.6223	2,460.94	89.9386	2,460.94	89.8306	2,460.94	88.6458	2,460.94	89.3708	2,460.94	87.1991	2,460.94	88.7574	2,460.94	86.4174	2,460.94	87.2108	2,460.94	85.3509	2,460.94	84.6502	2,460.94	84.032	2,460.94	82.01	2,460.94	83.5302	2,460.94	81.106	2,460.94	84.19	2,460.94	82.9249	2,460.94	84.8117	2,460.94	84.2575	2,460.94	83.2769	2,460.94	81.5116	2,460.94	79.4216	2,460.94	73.8651	2,460.94	74.4519	2,460.94	79.3748	2,460.94	72.0541	2,460.94	82.8936	2,460.94	82.7638	2,460.94	85.5417
2,548.83	92.6505	2,548.83	92.4643	2,548.83	92.0867	2,548.83	91.6727	2,548.83	91.6214	2,548.83	90.9477	2,548.83	90.9264	2,548.83	89.9694	2,548.83	89.5637	2,548.83	88.9751	2,548.83	88.5394	2,548.83	88.6748	2,548.83	87.9548	2,548.83	88.1377	2,548.83	86.5863	2,548.83	86.8907	2,548.83	84.8348	2,548.83	84.8976	2,548.83	83.2203	2,548.83	81.7085	2,548.83	81.7625	2,548.83	81.3378	2,548.83	81.814	2,548.83	81.4144	2,548.83	83.4873	2,548.83	81.8171	2,548.83	84.0229	2,548.83	81.1814	2,548.83	81.0016	2,548.83	75.8164	2,548.83	76.8617	2,548.83	78.9701	2,548.83	77.6836	2,548.83	84.4728	2,548.83	76.4607	2,548.83	83.6635
2,639.65	93.4323	2,639.65	93.2216	2,639.65	93.0131	2,639.65	92.5933	2,639.65	92.4422	2,639.65	91.9104	2,639.65	91.6999	2,639.65	90.9613	2,639.65	90.728	2,639.65	90.0289	2,639.65	90.0488	2,639.65	89.0817	2,639.65	89.0294	2,639.65	87.9493	2,639.65	87.2206	2,639.65	87.6403	2,639.65	85.6869	2,639.65	86.873	2,639.65	84.7163	2,639.65	83.2408	2,639.65	83.0526	2,639.65	78.7807	2,639.65	80.6024	2,639.65	81.6658	2,639.65	82.504	2,639.65	83.9975	2,639.65	84.5917	2,639.65	81.8665	2,639.65	82.7163	2,639.65	77.2498	2,639.65	77.7252	2,639.65	79.0126	2,639.65	80.7235	2,639.65	81.1346	2,639.65	82.9823	2,639.65	82.7103
2,733.4	93.4204	2,733.4	93.1895	2,733.4	93.0869	2,733.4	92.6247	2,733.4	92.6593	2,733.4	92.1653	2,733.4	92.0468	2,733.4	91.2095	2,733.4	91.0582	2,733.4	89.8652	2,733.4	90.1843	2,733.4	88.6922	2,733.4	89.4896	2,733.4	87.5256	2,733.4	87.8975	2,733.4	86.8947	2,733.4	85.636	2,733.4	86.4059	2,733.4	84.8362	2,733.4	84.4172	2,733.4	84.3828	2,733.4	82.1412	2,733.4	81.6587	2,733.4	81.213	2,733.4	78.8823	2,733.4	82.8657	2,733.4	82.53	2,733.4	81.9874	2,733.4	83.0008	2,733.4	77.9298	2,733.4	79.5665	2,733.4	80.3037	2,733.4	80.2172	2,733.4	84.436	2,733.4	81.2433	2,733.4	82.4748
2,827.15	93.7288	2,827.15	93.391	2,827.15	93.6563	2,827.15	92.5991	2,827.15	93.1575	2,827.15	91.6923	2,827.15	92.3433	2,827.15	90.8888	2,827.15	91.3016	2,827.15	89.8175	2,827.15	89.9364	2,827.15	88.6842	2,827.15	89.129	2,827.15	87.589	2,827.15	88.999	2,827.15	85.965	2,827.15	87.9979	2,827.15	85.1684	2,827.15	85.7496	2,827.15	84.4888	2,827.15	84.8239	2,827.15	83.445	2,827.15	84.5199	2,827.15	83.6482	2,827.15	82.0944	2,827.15	80.3577	2,827.15	80.7668	2,827.15	77.0704	2,827.15	82.5835	2,827.15	81.9343	2,827.15	81.724	2,827.15	83.0373	2,827.15	83.1472	2,827.15	82.8006	2,827.15	85.1743	2,827.15	83.2674
2,926.76	94.2225	2,926.76	93.84	2,926.76	94.2508	2,926.76	92.9183	2,926.76	93.8639	2,926.76	91.764	2,926.76	93.2323	2,926.76	90.9972	2,926.76	92.0694	2,926.76	89.6664	2,926.76	90.5286	2,926.76	88.1684	2,926.76	89.2371	2,926.76	87.8076	2,926.76	88.4492	2,926.76	86.8431	2,926.76	87.7842	2,926.76	84.8849	2,926.76	86.3529	2,926.76	84.5052	2,926.76	85.3687	2,926.76	84.0736	2,926.76	85.5267	2,926.76	83.1717	2,926.76	84.769	2,926.76	82.3012	2,926.76	83.0726	2,926.76	80.7601	2,926.76	82.6505	2,926.76	80.7422	2,926.76	80.4049	2,926.76	83.1891	2,926.76	78.302	2,926.76	84.5574	2,926.76	84.2494	2,926.76	85.8871
3,032.23	94.7581	3,032.23	94.3597	3,032.23	94.7709	3,032.23	93.6281	3,032.23	94.4954	3,032.23	92.4512	3,032.23	93.8937	3,032.23	91.517	3,032.23	92.8438	3,032.23	90.7179	3,032.23	91.5717	3,032.23	88.9872	3,032.23	89.6911	3,032.23	87.3406	3,032.23	88.6677	3,032.23	86.6646	3,032.23	87.779	3,032.23	85.3942	3,032.23	85.2379	3,032.23	83.8427	3,032.23	84.1759	3,032.23	81.7037	3,032.23	83.9921	3,032.23	81.7501	3,032.23	82.9473	3,032.23	84.3194	3,032.23	83.2134	3,032.23	83.8957	3,032.23	82.9431	3,032.23	81.0069	3,032.23	81.3752	3,032.23	81.542	3,032.23	79.3181	3,032.23	82.5595	3,032.23	83.9199	3,032.23	85.8458
3,137.7	94.9951	3,137.7	94.7486	3,137.7	95.005	3,137.7	94.3304	3,137.7	94.9285	3,137.7	93.7177	3,137.7	94.2636	3,137.7	92.5546	3,137.7	93.1657	3,137.7	90.802	3,137.7	92.0867	3,137.7	88.8659	3,137.7	90.7015	3,137.7	88.0629	3,137.7	89.4054	3,137.7	87.3055	3,137.7	87.694	3,137.7	85.0282	3,137.7	85.4262	3,137.7	83.809	3,137.7	83.8292	3,137.7	82.7578	3,137.7	83.7777	3,137.7	80.0056	3,137.7	83.7925	3,137.7	83.9255	3,137.7	84.2116	3,137.7	84.4068	3,137.7	83.9353	3,137.7	78.5096	3,137.7	81.7333	3,137.7	81.268	3,137.7	79.8665	3,137.7	85.4406	3,137.7	83.417	3,137.7	86.7535
3,249.02	94.1157	3,249.02	93.9282	3,249.02	94.0751	3,249.02	93.6517	3,249.02	93.9853	3,249.02	93.35	3,249.02	93.5983	3,249.02	92.7878	3,249.02	93.1386	3,249.02	91.5765	3,249.02	92.0663	3,249.02	89.7556	3,249.02	90.3519	3,249.02	87.875	3,249.02	89.14	3,249.02	86.5991	3,249.02	88.2576	3,249.02	85.9086	3,249.02	86.611	3,249.02	84.9727	3,249.02	84.0063	3,249.02	83.5912	3,249.02	82.671	3,249.02	81.8623	3,249.02	82.2907	3,249.02	83.7339	3,249.02	83.8259	3,249.02	84.7402	3,249.02	84.7302	3,249.02	79.9183	3,249.02	82.6563	3,249.02	80.0369	3,249.02	80.1593	3,249.02	84.3051	3,249.02	81.4693	3,249.02	84.5233
3,363.28	93.8402	3,363.28	93.5711	3,363.28	93.9624	3,363.28	93.1154	3,363.28	93.4893	3,363.28	92.7709	3,363.28	92.9505	3,363.28	92.5008	3,363.28	92.3941	3,363.28	90.9634	3,363.28	91.3699	3,363.28	89.466	3,363.28	90.0774	3,363.28	88.1138	3,363.28	88.0772	3,363.28	86.5117	3,363.28	87.2185	3,363.28	85.3817	3,363.28	86.537	3,363.28	84.3878	3,363.28	84.1561	3,363.28	84.2845	3,363.28	82.6831	3,363.28	82.8112	3,363.28	82.5187	3,363.28	81.2093	3,363.28	81.9409	3,363.28	81.9757	3,363.28	83.163	3,363.28	79.6312	3,363.28	81.576	3,363.28	81.3502	3,363.28	78.4891	3,363.28	83.9087	3,363.28	80.3515	3,363.28	83.0218
3,483.4	94.4228	3,483.4	94.0523	3,483.4	94.3749	3,483.4	93.3418	3,483.4	93.7685	3,483.4	92.8694	3,483.4	93.3702	3,483.4	91.9804	3,483.4	92.7174	3,483.4	90.4873	3,483.4	91.8975	3,483.4	89.4394	3,483.4	90.7264	3,483.4	88.1924	3,483.4	89.5899	3,483.4	87.0714	3,483.4	88.5195	3,483.4	85.4907	3,483.4	87.1522	3,483.4	83.8167	3,483.4	85.5475	3,483.4	82.9341	3,483.4	84.2092	3,483.4	82.4428	3,483.4	83.756	3,483.4	80.0197	3,483.4	82.4195	3,483.4	77.7684	3,483.4	81.7074	3,483.4	77.0403	3,483.4	79.1028	3,483.4	80.4854	3,483.4	76.0641	3,483.4	82.1587	3,483.4	80.6836	3,483.4	82.2086
3,606.45	94.9092	3,606.45	94.5955	3,606.45	94.4076	3,606.45	93.9337	3,606.45	93.9618	3,606.45	93.0957	3,606.45	93.0083	3,606.45	91.7371	3,606.45	92.2052	3,606.45	91.1029	3,606.45	91.9812	3,606.45	89.7966	3,606.45	90.7022	3,606.45	87.8478	3,606.45	89.0958	3,606.45	86.7872	3,606.45	87.7851	3,606.45	85.9137	3,606.45	86.855	3,606.45	84.6875	3,606.45	84.8786	3,606.45	83.264	3,606.45	83.0133	3,606.45	82.4772	3,606.45	82.8005	3,606.45	81.7083	3,606.45	82.4606	3,606.45	80.723	3,606.45	81.2632	3,606.45	77.6278	3,606.45	81.2006	3,606.45	79.2534	3,606.45	79.359	3,606.45	81.7108	3,606.45	80.3575	3,606.45	81.3945
3,732.42	94.8562	3,732.42	94.6493	3,732.42	94.3802	3,732.42	94.0593	3,732.42	93.7647	3,732.42	92.9006	3,732.42	92.8612	3,732.42	91.6735	3,732.42	91.8336	3,732.42	90.6893	3,732.42	91.1922	3,732.42	89.5118	3,732.42	90.8067	3,732.42	88.1327	3,732.42	89.3568	3,732.42	86.91	3,732.42	87.4916	3,732.42	86.1496	3,732.42	86.979	3,732.42	84.641	3,732.42	85.5294	3,732.42	82.1964	3,732.42	82.8477	3,732.42	80.4826	3,732.42	81.544	3,732.42	81.9843	3,732.42	81.8823	3,732.42	82.7725	3,732.42	82.4199	3,732.42	77.1118	3,732.42	82.4672	3,732.42	76.5155	3,732.42	78.2245	3,732.42	81.2381	3,732.42	78.0647	3,732.42	81.2904
3,864.26	94.7925	3,864.26	94.6516	3,864.26	94.9523	3,864.26	94.0477	3,864.26	94.3683	3,864.26	92.9745	3,864.26	93.5342	3,864.26	91.9848	3,864.26	92.7978	3,864.26	90.9839	3,864.26	91.6104	3,864.26	90.0975	3,864.26	90.7558	3,864.26	88.8732	3,864.26	89.9958	3,864.26	87.3029	3,864.26	89.1694	3,864.26	85.637	3,864.26	87.8839	3,864.26	84.6565	3,864.26	85.7894	3,864.26	83.3057	3,864.26	85.0987	3,864.26	80.9994	3,864.26	84.2502	3,864.26	82.2851	3,864.26	81.7941	3,864.26	83.7546	3,864.26	83.7012	3,864.26	79.2676	3,864.26	84.334	3,864.26	74.9305	3,864.26	78.5445	3,864.26	82.3491	3,864.26	77.6595	3,864.26	83.3087
3,999.02	94.9913	3,999.02	94.5781	3,999.02	95.056	3,999.02	94.124	3,999.02	94.6248	3,999.02	93.439	3,999.02	94.0151	3,999.02	92.4435	3,999.02	93.0313	3,999.02	91.4311	3,999.02	92.1376	3,999.02	90.6929	3,999.02	91.2465	3,999.02	90.1445	3,999.02	89.7076	3,999.02	88.6834	3,999.02	88.1778	3,999.02	86.5299	3,999.02	87.2526	3,999.02	85.8922	3,999.02	86.6338	3,999.02	85.3108	3,999.02	86.287	3,999.02	83.3855	3,999.02	84.256	3,999.02	83.2212	3,999.02	82.2756	3,999.02	84.0525	3,999.02	83.8009	3,999.02	81.4988	3,999.02	84.5696	3,999.02	77.5995	3,999.02	81.7459	3,999.02	83.4033	3,999.02	78.7421	3,999.02	83.2535
4,139.65	95.2019	4,139.65	94.8165	4,139.65	95.1368	4,139.65	94.3443	4,139.65	94.7663	4,139.65	94.1722	4,139.65	94.2967	4,139.65	93.0238	4,139.65	93.6009	4,139.65	91.9332	4,139.65	92.3779	4,139.65	91.2316	4,139.65	91.5696	4,139.65	89.8625	4,139.65	90.5571	4,139.65	88.2713	4,139.65	88.1554	4,139.65	87.5338	4,139.65	86.8007	4,139.65	85.6992	4,139.65	86.8134	4,139.65	84.4189	4,139.65	85.4228	4,139.65	82.9294	4,139.65	84.4393	4,139.65	82.5905	4,139.65	82.2537	4,139.65	83.9684	4,139.65	81.9009	4,139.65	80.8506	4,139.65	83.6417	4,139.65	76.6156	4,139.65	80.7187	4,139.65	82.7504	4,139.65	81.3824	4,139.65	83.6478
4,286.13	95.1387	4,286.13	94.753	4,286.13	94.9358	4,286.13	94.2747	4,286.13	94.7559	4,286.13	93.4924	4,286.13	94.0286	4,286.13	92.4909	4,286.13	93.7524	4,286.13	91.7471	4,286.13	92.9901	4,286.13	89.8123	4,286.13	91.9267	4,286.13	86.4064	4,286.13	90.8689	4,286.13	86.0144	4,286.13	90.0142	4,286.13	86.5042	4,286.13	87.3557	4,286.13	83.0119	4,286.13	85.656	4,286.13	82.905	4,286.13	84.0782	4,286.13	82.9979	4,286.13	83.7398	4,286.13	81.1011	4,286.13	84.386	4,286.13	83.5057	4,286.13	82.2284	4,286.13	82.0381	4,286.13	83.1615	4,286.13	77.1877	4,286.13	81.1936	4,286.13	79.7013	4,286.13	81.0455	4,286.13	82.9238
4,438.48	94.4036	4,438.48	94.1746	4,438.48	94.7303	4,438.48	93.9288	4,438.48	93.8811	4,438.48	93.0904	4,438.48	93.9914	4,438.48	93.4039	4,438.48	93.0905	4,438.48	92.4921	4,438.48	91.9927	4,438.48	91.3575	4,438.48	92.0405	4,438.48	90.3204	4,438.48	91.1003	4,438.48	87.6814	4,438.48	88.3043	4,438.48	84.466	4,438.48	87.4527	4,438.48	84.6215	4,438.48	86.8665	4,438.48	82.3319	4,438.48	84.6333	4,438.48	82.0239	4,438.48	83.0958	4,438.48	80.5783	4,438.48	82.0504	4,438.48	82.9361	4,438.48	84.4565	4,438.48	83.5292	4,438.48	84.3114	4,438.48	79.0506	4,438.48	80.805	4,438.48	84.3345	4,438.48	78.3665	4,438.48	84.8458
4,593.75	93.524	4,593.75	93.4433	4,593.75	93.6431	4,593.75	92.9529	4,593.75	94.1158	4,593.75	94.3404	4,593.75	94.2336	4,593.75	93.1316	4,593.75	93.8154	4,593.75	91.683	4,593.75	93.1129	4,593.75	91.6462	4,593.75	91.7024	4,593.75	91.577	4,593.75	90.7348	4,593.75	87.8435	4,593.75	89.4743	4,593.75	85.5215	4,593.75	87.9398	4,593.75	86.0662	4,593.75	86.2759	4,593.75	84.4424	4,593.75	86.0766	4,593.75	82.3636	4,593.75	84.3566	4,593.75	81.9966	4,593.75	82.493	4,593.75	83.7373	4,593.75	82.8447	4,593.75	82.6931	4,593.75	84.0391	4,593.75	76.1598	4,593.75	83.7908	4,593.75	84.1546	4,593.75	81.4305	4,593.75	83.856
4,757.81	90.9443	4,757.81	91.1333	4,757.81	91.079	4,757.81	92.164	4,757.81	92.6723	4,757.81	93.0432	4,757.81	92.2194	4,757.81	92.7751	4,757.81	93.5715	4,757.81	92.421	4,757.81	94.0946	4,757.81	91.3836	4,757.81	91.983	4,757.81	89.9639	4,757.81	90.6261	4,757.81	89.0277	4,757.81	90.9953	4,757.81	88.461	4,757.81	87.3161	4,757.81	85.6279	4,757.81	86.2529	4,757.81	83.5525	4,757.81	84.9286	4,757.81	84.3351	4,757.81	82.0706	4,757.81	83.0258	4,757.81	82.4212	4,757.81	81.7045	4,757.81	77.0343	4,757.81	84.6437	4,757.81	83.445	4,757.81	77.2527	4,757.81	85.2783	4,757.81	79.8602	4,757.81	81.1712	4,757.81	82.0229
4,924.8	90.6063	4,924.8	91.4712	4,924.8	91.29	4,924.8	92.3286	4,924.8	90.6486	4,924.8	91.838	4,924.8	92.2781	4,924.8	93.3386	4,924.8	93.1304	4,924.8	92.5985	4,924.8	92.7655	4,924.8	90.6926	4,924.8	92.2542	4,924.8	88.5525	4,924.8	91.7553	4,924.8	88.1051	4,924.8	88.4622	4,924.8	85.8968	4,924.8	86.1668	4,924.8	85.4575	4,924.8	85.8841	4,924.8	81.0485	4,924.8	85.2435	4,924.8	83.2801	4,924.8	83.8734	4,924.8	84.3492	4,924.8	82.4335	4,924.8	81.1663	4,924.8	84.4035	4,924.8	83.2846	4,924.8	83.3109	4,924.8	78.9542	4,924.8	82.1292	4,924.8	80.6186	4,924.8	80.3881	4,924.8	84.3355
5,097.66	91.121	5,097.66	91.7499	5,097.66	90.7671	5,097.66	91.8019	5,097.66	92.0915	5,097.66	93.4716	5,097.66	92.8612	5,097.66	92.7198	5,097.66	93.3922	5,097.66	92.466	5,097.66	93.15	5,097.66	91.6306	5,097.66	91.8408	5,097.66	91.3995	5,097.66	90.2592	5,097.66	88.0363	5,097.66	89.4441	5,097.66	85.1751	5,097.66	88.513	5,097.66	85.3195	5,097.66	84.9389	5,097.66	83.4967	5,097.66	83.9368	5,097.66	80.0375	5,097.66	82.8794	5,097.66	82.1837	5,097.66	83.1559	5,097.66	81.0204	5,097.66	79.6381	5,097.66	81.9965	5,097.66	80.439	5,097.66	77.2188	5,097.66	81.6135	5,097.66	83.2059	5,097.66	78.2691	5,097.66	83.8839
5,279.3	90.2275	5,279.3	89.9226	5,279.3	91.1875	5,279.3	92.1069	5,279.3	92.4607	5,279.3	92.1132	5,279.3	92.9496	5,279.3	92.6454	5,279.3	93.2535	5,279.3	92.5721	5,279.3	93.7803	5,279.3	91.8677	5,279.3	92.438	5,279.3	90.4935	5,279.3	90.7738	5,279.3	88.6328	5,279.3	89.947	5,279.3	86.0862	5,279.3	86.5103	5,279.3	83.5079	5,279.3	84.7885	5,279.3	83.726	5,279.3	85.5058	5,279.3	82.3512	5,279.3	81.783	5,279.3	77.4402	5,279.3	81.835	5,279.3	78.4199	5,279.3	82.3108	5,279.3	83.3372	5,279.3	81.6886	5,279.3	78.8492	5,279.3	83.1568	5,279.3	80.4531	5,279.3	77.883	5,279.3	84.0253
5,463.87	91.953	5,463.87	92.9844	5,463.87	92.2852	5,463.87	93.8647	5,463.87	92.7482	5,463.87	93.3373	5,463.87	94.1606	5,463.87	92.979	5,463.87	93.7408	5,463.87	91.7798	5,463.87	92.7461	5,463.87	89.8351	5,463.87	92.2928	5,463.87	87.1835	5,463.87	91.6217	5,463.87	86.9982	5,463.87	88.1422	5,463.87	84.6848	5,463.87	85.6513	5,463.87	84.0351	5,463.87	85.1104	5,463.87	82.4322	5,463.87	84.0971	5,463.87	82.7166	5,463.87	81.2375	5,463.87	81.3137	5,463.87	81.3895	5,463.87	78.3095	5,463.87	82.6364	5,463.87	82.9944	5,463.87	81.162	5,463.87	79.4685	5,463.87	83.0561	5,463.87	78.6766	5,463.87	78.4428	5,463.87	81.6792
5,657.23	92.3883	5,657.23	93.1301	5,657.23	91.3809	5,657.23	93.0171	5,657.23	92.6452	5,657.23	94.0083	5,657.23	93.3657	5,657.23	93.5102	5,657.23	93.515	5,657.23	91.9183	5,657.23	92.8606	5,657.23	89.3839	5,657.23	91.3375	5,657.23	89.5168	5,657.23	90.3484	5,657.23	87.597	5,657.23	89.0444	5,657.23	86.4273	5,657.23	87.3024	5,657.23	84.8226	5,657.23	83.7546	5,657.23	81.1916	5,657.23	82.1182	5,657.23	78.4827	5,657.23	81.8985	5,657.23	82.1725	5,657.23	80.853	5,657.23	79.4804	5,657.23	79.5924	5,657.23	81.7303	5,657.23	81.8253	5,657.23	80.9956	5,657.23	79.9678	5,657.23	78.8815	5,657.23	73.0744	5,657.23	80.1643
5,856.45	92.4067	5,856.45	91.3623	5,856.45	93.1874	5,856.45	92.794	5,856.45	92.9793	5,856.45	93.0493	5,856.45	93.5206	5,856.45	93.185	5,856.45	93.9964	5,856.45	92.746	5,856.45	92.974	5,856.45	92.4672	5,856.45	91.5353	5,856.45	90.3428	5,856.45	89.6104	5,856.45	87.463	5,856.45	87.9314	5,856.45	84.0132	5,856.45	86.3401	5,856.45	81.5407	5,856.45	83.741	5,856.45	81.921	5,856.45	82.1961	5,856.45	79.4574	5,856.45	80.2476	5,856.45	77.7651	5,856.45	80.633	5,856.45	79.3813	5,856.45	82.0666	5,856.45	81.7745	5,856.45	81.1534	5,856.45	82.9755	5,856.45	81.3761	5,856.45	79.5409	5,856.45	76.6673	5,856.45	81.1933
6,061.52	91.5231	6,061.52	92.69	6,061.52	92.2261	6,061.52	93.47	6,061.52	93.1313	6,061.52	93.6158	6,061.52	93.6888	6,061.52	93.7205	6,061.52	93.123	6,061.52	93.0582	6,061.52	92.3237	6,061.52	91.0514	6,061.52	91.2057	6,061.52	88.4313	6,061.52	89.5354	6,061.52	86.3924	6,061.52	87.8765	6,061.52	84.1794	6,061.52	84.911	6,061.52	81.5214	6,061.52	82.0571	6,061.52	80.5069	6,061.52	81.4859	6,061.52	80.1221	6,061.52	78.8386	6,061.52	80.7249	6,061.52	79.2725	6,061.52	80.3204	6,061.52	81.3792	6,061.52	81.4542	6,061.52	80.9487	6,061.52	81.2792	6,061.52	82.132	6,061.52	81.2553	6,061.52	79.5658	6,061.52	81.3262
6,275.39	90.9231	6,275.39	92.1281	6,275.39	90.8527	6,275.39	92.7114	6,275.39	93.1734	6,275.39	93.4755	6,275.39	93.7238	6,275.39	93.1934	6,275.39	93.7262	6,275.39	91.4688	6,275.39	93.4271	6,275.39	89.2337	6,275.39	92.0263	6,275.39	87.7952	6,275.39	90.5706	6,275.39	85.9978	6,275.39	89.1439	6,275.39	84.6916	6,275.39	84.8921	6,275.39	83.9156	6,275.39	82.4406	6,275.39	81.146	6,275.39	82.3761	6,275.39	76.956	6,275.39	80.0079	6,275.39	81.4031	6,275.39	78.5136	6,275.39	79.4512	6,275.39	80.2756	6,275.39	78.1087	6,275.39	80.1657	6,275.39	78.7367	6,275.39	81.0623	6,275.39	77.8489	6,275.39	80.8243	6,275.39	81.9224
6,498.05	90.0651	6,498.05	90.2802	6,498.05	91.6147	6,498.05	92.5634	6,498.05	92.4581	6,498.05	92.8657	6,498.05	93.6746	6,498.05	92.6625	6,498.05	93.8976	6,498.05	91.3993	6,498.05	93.0789	6,498.05	90.0044	6,498.05	91.7134	6,498.05	87.6002	6,498.05	90.1837	6,498.05	84.9155	6,498.05	87.448	6,498.05	82.914	6,498.05	85.927	6,498.05	80.4417	6,498.05	84.1207	6,498.05	81.0929	6,498.05	80.5078	6,498.05	77.7075	6,498.05	79.6146	6,498.05	74.5938	6,498.05	78.4573	6,498.05	80.6571	6,498.05	78.3825	6,498.05	76.2784	6,498.05	77.8167	6,498.05	75.6525	6,498.05	80.9385	6,498.05	78.4105	6,498.05	78.8239	6,498.05	82.1958
6,726.56	90.6333	6,726.56	91.3025	6,726.56	91.0844	6,726.56	91.9346	6,726.56	92.3752	6,726.56	92.5547	6,726.56	92.848	6,726.56	92.1559	6,726.56	92.813	6,726.56	91.2813	6,726.56	91.8663	6,726.56	89.6324	6,726.56	90.5738	6,726.56	86.9815	6,726.56	89.1114	6,726.56	84.6018	6,726.56	87.553	6,726.56	82.296	6,726.56	86.1989	6,726.56	78.5075	6,726.56	84.6916	6,726.56	77.6631	6,726.56	81.3053	6,726.56	76.9583	6,726.56	78.8263	6,726.56	76.8744	6,726.56	78.5687	6,726.56	79.1232	6,726.56	78.6119	6,726.56	77.1438	6,726.56	76.8213	6,726.56	77.2553	6,726.56	77.7174	6,726.56	77.5892	6,726.56	78.3514	6,726.56	81.8974
6,963.87	91.2234	6,963.87	91.0766	6,963.87	91.7172	6,963.87	92.0012	6,963.87	92.0765	6,963.87	92.1529	6,963.87	92.7571	6,963.87	91.529	6,963.87	92.7907	6,963.87	89.8026	6,963.87	91.928	6,963.87	87.6388	6,963.87	90.6262	6,963.87	85.662	6,963.87	88.5539	6,963.87	84.3998	6,963.87	86.4049	6,963.87	82.4703	6,963.87	84.7512	6,963.87	79.7445	6,963.87	81.6447	6,963.87	77.5776	6,963.87	78.9025	6,963.87	74.5112	6,963.87	78.5587	6,963.87	75.4107	6,963.87	74.5477	6,963.87	78.0338	6,963.87	72.6685	6,963.87	75.5566	6,963.87	74.5017	6,963.87	75.5421	6,963.87	78.1882	6,963.87	75.6817	6,963.87	75.5135	6,963.87	79.9473
7,209.96	91.2082	7,209.96	91.2029	7,209.96	91.3146	7,209.96	91.3922	7,209.96	91.5774	7,209.96	91.4608	7,209.96	92.0132	7,209.96	90.6784	7,209.96	92.0371	7,209.96	89.5378	7,209.96	91.0024	7,209.96	87.9068	7,209.96	89.6705	7,209.96	86.4282	7,209.96	87.9048	7,209.96	83.8024	7,209.96	85.8718	7,209.96	82.4483	7,209.96	84.0179	7,209.96	78.1506	7,209.96	81.6634	7,209.96	76.5532	7,209.96	77.8971	7,209.96	75.291	7,209.96	77.9581	7,209.96	71.5197	7,209.96	76.377	7,209.96	76.5126	7,209.96	75.3764	7,209.96	75.0363	7,209.96	74.7761	7,209.96	78.0165	7,209.96	76.7247	7,209.96	75.7431	7,209.96	74.8568	7,209.96	78.2838
7,464.84	91.8535	7,464.84	91.7071	7,464.84	91.7496	7,464.84	91.4408	7,464.84	91.6357	7,464.84	91.163	7,464.84	91.8557	7,464.84	90.5179	7,464.84	91.72	7,464.84	89.4495	7,464.84	90.6541	7,464.84	87.6449	7,464.84	89.2309	7,464.84	84.9065	7,464.84	87.4163	7,464.84	83.0663	7,464.84	85.4843	7,464.84	81.5044	7,464.84	82.9469	7,464.84	79.1134	7,464.84	81.3459	7,464.84	77.0297	7,464.84	79.7198	7,464.84	74.4289	7,464.84	75.4925	7,464.84	73.2263	7,464.84	69.9349	7,464.84	74.2089	7,464.84	74.2262	7,464.84	76.6196	7,464.84	76.1642	7,464.84	76.4654	7,464.84	75.2461	7,464.84	75.8424	7,464.84	73.147	7,464.84	75.7663
7,728.52	92.4043	7,728.52	92.2373	7,728.52	92.3459	7,728.52	92.1135	7,728.52	92.2177	7,728.52	91.7492	7,728.52	92.3623	7,728.52	90.8529	7,728.52	91.8492	7,728.52	89.7472	7,728.52	90.5296	7,728.52	88.1524	7,728.52	89.2372	7,728.52	86.6216	7,728.52	87.7634	7,728.52	83.8833	7,728.52	85.0312	7,728.52	81.2146	7,728.52	82.501	7,728.52	77.8535	7,728.52	80.5347	7,728.52	76.0278	7,728.52	79.1029	7,728.52	75.2626	7,728.52	77.4425	7,728.52	71.7086	7,728.52	74.5037	7,728.52	74.607	7,728.52	73.6886	7,728.52	74.0518	7,728.52	75.6564	7,728.52	76.3757	7,728.52	74.0275	7,728.52	75.2772	7,728.52	74.0959	7,728.52	75.6119
8,000.98	93.3649	8,000.98	92.9835	8,000.98	93.2057	8,000.98	92.9114	8,000.98	92.772	8,000.98	92.3004	8,000.98	92.6517	8,000.98	91.5258	8,000.98	92.1554	8,000.98	90.3802	8,000.98	91.0456	8,000.98	88.7276	8,000.98	89.822	8,000.98	86.747	8,000.98	88.174	8,000.98	84.4153	8,000.98	85.8856	8,000.98	82.4199	8,000.98	84.4713	8,000.98	79.5292	8,000.98	82.7807	8,000.98	77.3215	8,000.98	79.33	8,000.98	75.8334	8,000.98	77.6318	8,000.98	70.7302	8,000.98	76.2011	8,000.98	70.5824	8,000.98	75.3742	8,000.98	72.7939	8,000.98	75.6936	8,000.98	76.1033	8,000.98	74.2939	8,000.98	73.9113	8,000.98	75.1022	8,000.98	75.6405
8,282.23	93.8776	8,282.23	93.5672	8,282.23	93.7005	8,282.23	92.9685	8,282.23	93.2086	8,282.23	92.7969	8,282.23	92.8029	8,282.23	92.2265	8,282.23	92.533	8,282.23	90.7649	8,282.23	91.2331	8,282.23	89.171	8,282.23	90.2759	8,282.23	87.257	8,282.23	88.4417	8,282.23	84.9299	8,282.23	86.4941	8,282.23	82.6785	8,282.23	84.3207	8,282.23	79.7124	8,282.23	81.8336	8,282.23	76.6564	8,282.23	79.4212	8,282.23	76.2873	8,282.23	77.538	8,282.23	74.5079	8,282.23	75.9565	8,282.23	72.9078	8,282.23	75.1581	8,282.23	75.2606	8,282.23	75.1989	8,282.23	75.8015	8,282.23	74.2169	8,282.23	73.3777	8,282.23	74.3511	8,282.23	76.1499
8,575.2	94.1971	8,575.2	93.5122	8,575.2	93.9905	8,575.2	93.0235	8,575.2	93.1663	8,575.2	92.5862	8,575.2	92.74	8,575.2	91.7632	8,575.2	92.3649	8,575.2	90.7043	8,575.2	91.4445	8,575.2	89.1927	8,575.2	90.6405	8,575.2	87.4136	8,575.2	88.7158	8,575.2	84.8156	8,575.2	86.6479	8,575.2	82.3521	8,575.2	84.3762	8,575.2	80.1135	8,575.2	81.8403	8,575.2	77.2893	8,575.2	79.8541	8,575.2	74.2905	8,575.2	77.7017	8,575.2	73.4704	8,575.2	75.7668	8,575.2	71.1825	8,575.2	75.1801	8,575.2	72.8964	8,575.2	72.8174	8,575.2	75.343	8,575.2	73.971	8,575.2	71.2913	8,575.2	74.9391	8,575.2	75.6582
8,876.95	93.944	8,876.95	93.3408	8,876.95	93.4931	8,876.95	92.2896	8,876.95	92.5971	8,876.95	91.8747	8,876.95	91.9534	8,876.95	91.5221	8,876.95	91.8041	8,876.95	90.2484	8,876.95	91.151	8,876.95	88.7279	8,876.95	90.119	8,876.95	86.4605	8,876.95	88.1354	8,876.95	84.2864	8,876.95	86.1159	8,876.95	81.9326	8,876.95	83.4058	8,876.95	79.1031	8,876.95	80.3396	8,876.95	76.6957	8,876.95	78.9562	8,876.95	75.0362	8,876.95	77.3292	8,876.95	73.7053	8,876.95	73.2435	8,876.95	74.3252	8,876.95	74.8229	8,876.95	72.6397	8,876.95	73.896	8,876.95	75.8853	8,876.95	74.1338	8,876.95	69.6474	8,876.95	73.5875	8,876.95	75.1027
9,190.43	93.4096	9,190.43	92.6675	9,190.43	93.1829	9,190.43	91.7664	9,190.43	91.9867	9,190.43	90.8847	9,190.43	91.3952	9,190.43	90.242	9,190.43	91.2156	9,190.43	89.3424	9,190.43	90.372	9,190.43	87.9026	9,190.43	89.1689	9,190.43	85.5791	9,190.43	87.2591	9,190.43	82.6593	9,190.43	85.2692	9,190.43	80.608	9,190.43	82.9979	9,190.43	78.2537	9,190.43	80.2256	9,190.43	75.8419	9,190.43	78.1147	9,190.43	74.1747	9,190.43	75.9383	9,190.43	71.8164	9,190.43	73.0832	9,190.43	71.47	9,190.43	67.5595	9,190.43	68.3148	9,190.43	72.706	9,190.43	73.1896	9,190.43	73.1099	9,190.43	69.3665	9,190.43	73.1215	9,190.43	72.4341
9,512.7	93.3567	9,512.7	92.2621	9,512.7	92.9464	9,512.7	90.8914	9,512.7	91.4459	9,512.7	90.2819	9,512.7	90.55	9,512.7	89.733	9,512.7	90.2956	9,512.7	88.8996	9,512.7	89.6644	9,512.7	86.8452	9,512.7	88.1813	9,512.7	84.4184	9,512.7	86.0874	9,512.7	81.9162	9,512.7	83.7068	9,512.7	79.7679	9,512.7	81.3567	9,512.7	77.2741	9,512.7	79.2147	9,512.7	75.166	9,512.7	77.1055	9,512.7	73.5682	9,512.7	74.5114	9,512.7	69.9204	9,512.7	70.8318	9,512.7	70.4115	9,512.7	68.0372	9,512.7	71.0575	9,512.7	70.5002	9,512.7	73.8083	9,512.7	72.7748	9,512.7	68.3345	9,512.7	72.1747	9,512.7	71.9417
9,849.61	92.9441	9,849.61	91.8653	9,849.61	92.5875	9,849.61	90.4694	9,849.61	91.082	9,849.61	89.514	9,849.61	90.132	9,849.61	88.6765	9,849.61	89.772	9,849.61	87.8125	9,849.61	88.9551	9,849.61	85.9787	9,849.61	87.8091	9,849.61	83.6802	9,849.61	85.549	9,849.61	80.9433	9,849.61	83.1508	9,849.61	78.0165	9,849.61	80.8773	9,849.61	75.6973	9,849.61	78.9117	9,849.61	73.4028	9,849.61	77.048	9,849.61	71.9576	9,849.61	73.4272	9,849.61	70.3801	9,849.61	71.405	9,849.61	65.5242	9,849.61	69.9913	9,849.61	64.9208	9,849.61	70.1368	9,849.61	73.5329	9,849.61	72.1987	9,849.61	69.8602	9,849.61	72.8934	9,849.61	71.4078
10,195.3	93.1413	10,195.3	91.9701	10,195.3	92.7129	10,195.3	90.4882	10,195.3	91.1544	10,195.3	89.6461	10,195.3	90.098	10,195.3	88.8484	10,195.3	89.5624	10,195.3	87.9223	10,195.3	88.5136	10,195.3	85.4724	10,195.3	87.044	10,195.3	83.9537	10,195.3	85.4545	10,195.3	81.1022	10,195.3	81.7866	10,195.3	78.5325	10,195.3	78.9963	10,195.3	76.2864	10,195.3	76.6699	10,195.3	72.0104	10,195.3	75.9593	10,195.3	71.2012	10,195.3	71.8401	10,195.3	68.851	10,195.3	71.8305	10,195.3	62.8792	10,195.3	70.2944	10,195.3	68.6192	10,195.3	68.0629	10,195.3	71.5554	10,195.3	70.7245	10,195.3	71.0848	10,195.3	72.3306	10,195.3	71.2379
10,555.7	93.2461	10,555.7	92.0584	10,555.7	92.8821	10,555.7	90.6718	10,555.7	91.5867	10,555.7	89.8347	10,555.7	90.6515	10,555.7	89.0813	10,555.7	90.1272	10,555.7	87.6595	10,555.7	88.6736	10,555.7	84.9475	10,555.7	87.3763	10,555.7	82.6727	10,555.7	84.5312	10,555.7	80.1079	10,555.7	82.8271	10,555.7	77.1749	10,555.7	80.2561	10,555.7	75.453	10,555.7	77.1701	10,555.7	72.8738	10,555.7	75.3691	10,555.7	68.9696	10,555.7	72.3502	10,555.7	66.0029	10,555.7	70.1688	10,555.7	66.4587	10,555.7	69.0714	10,555.7	64.8255	10,555.7	67.1862	10,555.7	69.9082	10,555.7	69.6493	10,555.7	68.5862	10,555.7	71.1295	10,555.7	70.29
10,927.7	93.2825	10,927.7	92.169	10,927.7	93.0555	10,927.7	90.8064	10,927.7	91.6967	10,927.7	89.5549	10,927.7	90.8771	10,927.7	88.4202	10,927.7	90.2546	10,927.7	86.5049	10,927.7	88.622	10,927.7	84.0215	10,927.7	87.0535	10,927.7	82.4631	10,927.7	84.287	10,927.7	79.1874	10,927.7	82.3649	10,927.7	76.8094	10,927.7	79.8904	10,927.7	74.6713	10,927.7	76.7149	10,927.7	70.8934	10,927.7	75.5517	10,927.7	69.5858	10,927.7	71.8395	10,927.7	68.1695	10,927.7	67.7652	10,927.7	58.5182	10,927.7	65.4686	10,927.7	66.2613	10,927.7	66.4645	10,927.7	64.8141	10,927.7	66.2438	10,927.7	67.6208	10,927.7	69.3813	10,927.7	70.3226
11,314.5	93.4684	11,314.5	92.3889	11,314.5	93.0915	11,314.5	90.674	11,314.5	91.7336	11,314.5	89.6909	11,314.5	90.9047	11,314.5	88.2848	11,314.5	89.9021	11,314.5	85.9791	11,314.5	88.1337	11,314.5	83.6437	11,314.5	85.8156	11,314.5	81.3996	11,314.5	83.0463	11,314.5	78.7572	11,314.5	81.1993	11,314.5	75.9457	11,314.5	78.2292	11,314.5	73.8635	11,314.5	75.3543	11,314.5	69.603	11,314.5	74.6898	11,314.5	69.177	11,314.5	72.6891	11,314.5	66.0326	11,314.5	67.6874	11,314.5	63.3401	11,314.5	56.9703	11,314.5	59.0297	11,314.5	59.8459	11,314.5	64.5252	11,314.5	62.2671	11,314.5	63.1094	11,314.5	61.9793	11,314.5	68.2727
11,712.9	93.5941	11,712.9	92.4299	11,712.9	93.0842	11,712.9	90.5365	11,712.9	91.8144	11,712.9	89.4841	11,712.9	90.8027	11,712.9	87.8461	11,712.9	89.4784	11,712.9	84.9161	11,712.9	87.3883	11,712.9	83.7351	11,712.9	84.5822	11,712.9	79.9534	11,712.9	81.7941	11,712.9	77.9024	11,712.9	80.4606	11,712.9	75.5415	11,712.9	77.5905	11,712.9	72.9226	11,712.9	73.7522	11,712.9	69.7243	11,712.9	73.1653	11,712.9	69.0614	11,712.9	72.2577	11,712.9	64.3873	11,712.9	71.5546	11,712.9	63.665	11,712.9	60.2585	11,712.9	59.1219	11,712.9	52.6755	11,712.9	63.4822	11,712.9	56.0461	11,712.9	60.2511	11,712.9	61.387	11,712.9	67.409
12,126	93.7923	12,126	92.5924	12,126	93.2298	12,126	90.6466	12,126	92.2668	12,126	89.3851	12,126	90.6931	12,126	87.4351	12,126	89.2923	12,126	84.7776	12,126	87.0642	12,126	84.0717	12,126	84.4177	12,126	79.1802	12,126	82.795	12,126	78.2252	12,126	80.0512	12,126	75.4137	12,126	77.6733	12,126	72.6055	12,126	74.0894	12,126	69.9778	12,126	73.8843	12,126	69.6731	12,126	70.4848	12,126	65.83	12,126	72.1808	12,126	50.0821	12,126	65.7046	12,126	63.92	12,126	64.2871	12,126	60.8987	12,126	63.446	12,126	55.4503	12,126	62.2241	12,126	62.5453
12,553.7	93.8178	12,553.7	92.6247	12,553.7	93.4494	12,553.7	90.7244	12,553.7	92.4789	12,553.7	88.9992	12,553.7	90.5318	12,553.7	87.0422	12,553.7	88.9185	12,553.7	84.9253	12,553.7	87.2701	12,553.7	84.4929	12,553.7	84.7428	12,553.7	79.1601	12,553.7	83.8576	12,553.7	78.8504	12,553.7	80.1931	12,553.7	74.9726	12,553.7	77.2672	12,553.7	72.9495	12,553.7	76.0035	12,553.7	70.7363	12,553.7	72.3241	12,553.7	68.7477	12,553.7	71.7875	12,553.7	68.103	12,553.7	72.0647	12,553.7	58.0437	12,553.7	68.5163	12,553.7	65.1887	12,553.7	67.7594	12,553.7	67.8102	12,553.7	66.9084	12,553.7	52.7925	12,553.7	67.9771	12,553.7	60.6872
12,996.1	93.3848	12,996.1	92.3738	12,996.1	93.1527	12,996.1	90.3486	12,996.1	92.3311	12,996.1	88	12,996.1	90.1732	12,996.1	86.0366	12,996.1	88.3313	12,996.1	84.6346	12,996.1	87.059	12,996.1	83.5751	12,996.1	85.0162	12,996.1	79.6391	12,996.1	84.1402	12,996.1	78.5522	12,996.1	79.8477	12,996.1	74.5465	12,996.1	76.7331	12,996.1	71.7039	12,996.1	75.7284	12,996.1	70.461	12,996.1	72.3465	12,996.1	68.2302	12,996.1	72.4744	12,996.1	67.4783	12,996.1	70.9016	12,996.1	58.9174	12,996.1	69.5563	12,996.1	62.2985	12,996.1	67.5841	12,996.1	68.787	12,996.1	66.3521	12,996.1	56.0397	12,996.1	69.0596	12,996.1	60.3451
13,453.1	93.0366	13,453.1	92.0873	13,453.1	92.8723	13,453.1	89.9991	13,453.1	91.9606	13,453.1	87.2229	13,453.1	89.4601	13,453.1	85.4601	13,453.1	87.4894	13,453.1	84.2368	13,453.1	86.5936	13,453.1	82.6944	13,453.1	84.4879	13,453.1	80.1969	13,453.1	83.4477	13,453.1	77.8193	13,453.1	79.9207	13,453.1	74.3409	13,453.1	76.5062	13,453.1	71.7526	13,453.1	75.0852	13,453.1	70.4001	13,453.1	72.5543	13,453.1	68.4403	13,453.1	70.4497	13,453.1	68.3424	13,453.1	69.7044	13,453.1	59.4979	13,453.1	69.4887	13,453.1	64.4349	13,453.1	64.9061	13,453.1	68.6912	13,453.1	64.8478	13,453.1	60.4698	13,453.1	69.2177	13,453.1	64.0577
13,927.7	92.1827	13,927.7	91.3678	13,927.7	92.107	13,927.7	89.3264	13,927.7	91.4645	13,927.7	86.5591	13,927.7	88.6988	13,927.7	85.2659	13,927.7	86.9291	13,927.7	83.7193	13,927.7	85.8514	13,927.7	82.4754	13,927.7	84.3096	13,927.7	79.9365	13,927.7	82.8733	13,927.7	77.8234	13,927.7	79.8442	13,927.7	73.8055	13,927.7	76.7148	13,927.7	71.6135	13,927.7	75.9024	13,927.7	69.6413	13,927.7	72.8111	13,927.7	66.1969	13,927.7	68.4928	13,927.7	67.2991	13,927.7	68.6411	13,927.7	62.5219	13,927.7	69.8082	13,927.7	63.0523	13,927.7	62.6817	13,927.7	67.8806	13,927.7	63.9037	13,927.7	57.1203	13,927.7	67.9583	13,927.7	63.1498
14,419.9	91.2675	14,419.9	90.5171	14,419.9	91.4345	14,419.9	88.634	14,419.9	90.907	14,419.9	86.05	14,419.9	88.0753	14,419.9	84.9085	14,419.9	86.7948	14,419.9	83.2904	14,419.9	85.5332	14,419.9	82.2034	14,419.9	84.4143	14,419.9	79.479	14,419.9	82.6024	14,419.9	78.282	14,419.9	79.5418	14,419.9	72.178	14,419.9	75.8532	14,419.9	70.3693	14,419.9	74.0589	14,419.9	70.3814	14,419.9	71.5975	14,419.9	66.5488	14,419.9	69.1335	14,419.9	65.8391	14,419.9	66.0035	14,419.9	63.0628	14,419.9	67.7687	14,419.9	64.5361	14,419.9	56.0824	14,419.9	65.4619	14,419.9	63.4931	14,419.9	56.0642	14,419.9	66.7531	14,419.9	63.3731
14,929.7	90.8097	14,929.7	90.1912	14,929.7	91.1395	14,929.7	88.3637	14,929.7	90.4897	14,929.7	85.7709	14,929.7	87.8682	14,929.7	84.295	14,929.7	86.6094	14,929.7	83.0912	14,929.7	85.7165	14,929.7	81.7121	14,929.7	84.2738	14,929.7	80.1935	14,929.7	82.1793	14,929.7	78.2638	14,929.7	79.4472	14,929.7	72.3949	14,929.7	76.3344	14,929.7	69.4559	14,929.7	73.6525	14,929.7	69.7978	14,929.7	70.8196	14,929.7	66.5609	14,929.7	69.0324	14,929.7	63.096	14,929.7	65.7579	14,929.7	63.7739	14,929.7	64.7211	14,929.7	66.1034	14,929.7	55.874	14,929.7	62.7219	14,929.7	63.0036	14,929.7	54.7165	14,929.7	66.6624	14,929.7	62.4597
15,454.1	90.7027	15,454.1	90.203	15,454.1	91.1424	15,454.1	88.595	15,454.1	90.473	15,454.1	85.8091	15,454.1	87.9993	15,454.1	84.6404	15,454.1	86.6858	15,454.1	83.0508	15,454.1	85.312	15,454.1	81.7827	15,454.1	83.5928	15,454.1	80.5307	15,454.1	80.8709	15,454.1	77.4902	15,454.1	79.1291	15,454.1	73.8313	15,454.1	76.0799	15,454.1	69.0362	15,454.1	71.2717	15,454.1	67.9316	15,454.1	69.7173	15,454.1	64.9318	15,454.1	67.8015	15,454.1	62.2144	15,454.1	65.6824	15,454.1	64.9117	15,454.1	62.8973	15,454.1	64.8592	15,454.1	58.9481	15,454.1	58.1595	15,454.1	61.6761	15,454.1	49.8771	15,454.1	65.0988	15,454.1	60.5077
15,999	90.6867	15,999	90.1843	15,999	91.1738	15,999	88.7735	15,999	90.3314	15,999	86.4775	15,999	88.2616	15,999	85.3807	15,999	86.7637	15,999	83.1119	15,999	84.6638	15,999	82.1485	15,999	82.8167	15,999	80.0449	15,999	79.7638	15,999	76.8996	15,999	78.2851	15,999	74.1182	15,999	75.0916	15,999	69.2337	15,999	69.4501	15,999	66.177	15,999	69.1883	15,999	64.5936	15,999	65.9491	15,999	60.9231	15,999	64.7792	15,999	63.1053	15,999	56.7048	15,999	63.3056	15,999	58.7434	15,999	54.3869	15,999	61.3223	15,999	50.0609	15,999	64.1008	15,999	55.1968
16,564.5	90.8615	16,564.5	90.2933	16,564.5	91.3022	16,564.5	88.8438	16,564.5	90.2917	16,564.5	86.6937	16,564.5	88.4465	16,564.5	84.9138	16,564.5	86.4981	16,564.5	82.6767	16,564.5	84.163	16,564.5	81.4594	16,564.5	81.9516	16,564.5	78.62	16,564.5	78.8856	16,564.5	75.7799	16,564.5	77.2423	16,564.5	72.9031	16,564.5	73.9151	16,564.5	67.6591	16,564.5	68.4064	16,564.5	64.1064	16,564.5	67.6168	16,564.5	65.578	16,564.5	63.0537	16,564.5	59.9101	16,564.5	63.2436	16,564.5	61.9272	16,564.5	50.6325	16,564.5	58.9228	16,564.5	59.0779	16,564.5	51.6356	16,564.5	60.0941	16,564.5	52.0789	16,564.5	62.6933	16,564.5	55.9409
17,147.5	91.3539	17,147.5	90.7119	17,147.5	91.7541	17,147.5	89.145	17,147.5	90.4925	17,147.5	86.6477	17,147.5	88.7001	17,147.5	84.3969	17,147.5	86.4272	17,147.5	82.2536	17,147.5	83.9378	17,147.5	80.0999	17,147.5	81.5192	17,147.5	77.3678	17,147.5	77.6561	17,147.5	73.9085	17,147.5	75.8619	17,147.5	71.8857	17,147.5	72.0629	17,147.5	67.1322	17,147.5	66.4763	17,147.5	60.8636	17,147.5	66.662	17,147.5	63.9237	17,147.5	61.5991	17,147.5	58.9448	17,147.5	56.0887	17,147.5	60.0112	17,147.5	54.8553	17,147.5	56.0196	17,147.5	60.2546	17,147.5	49.5466	17,147.5	58.0043	17,147.5	54.2647	17,147.5	60.7361	17,147.5	55.4624
17,753.9	91.6635	17,753.9	91.0556	17,753.9	91.9816	17,753.9	89.4499	17,753.9	90.5918	17,753.9	86.8402	17,753.9	88.944	17,753.9	84.8682	17,753.9	86.3511	17,753.9	82.0589	17,753.9	83.4725	17,753.9	78.9929	17,753.9	80.7049	17,753.9	76.237	17,753.9	76.2457	17,753.9	72.0302	17,753.9	73.2421	17,753.9	70.7706	17,753.9	70.206	17,753.9	65.7371	17,753.9	65.1687	17,753.9	60.9829	17,753.9	62.8248	17,753.9	61.0618	17,753.9	59.7613	17,753.9	56.7537	17,753.9	53.8887	17,753.9	61.3944	17,753.9	56.8974	17,753.9	39.3661	17,753.9	60.4515	17,753.9	41.0449	17,753.9	58.0945	17,753.9	52.5058	17,753.9	56.8814	17,753.9	57.174
18,377.9	91.393	18,377.9	90.7245	18,377.9	91.5453	18,377.9	88.9168	18,377.9	90.1206	18,377.9	86.5668	18,377.9	88.3657	18,377.9	84.3288	18,377.9	85.3592	18,377.9	81.0016	18,377.9	81.9653	18,377.9	77.3805	18,377.9	79.2293	18,377.9	74.3234	18,377.9	73.2863	18,377.9	71.1595	18,377.9	70.2188	18,377.9	68.1933	18,377.9	67.9824	18,377.9	62.7138	18,377.9	63.4838	18,377.9	59.8652	18,377.9	61.2853	18,377.9	60.8555	18,377.9	52.3286	18,377.9	57.718	18,377.9	52.9274	18,377.9	59.6925	18,377.9	57.6357	18,377.9	51.3254	18,377.9	59.2536	18,377.9	46.4415	18,377.9	57.7004	18,377.9	52.9767	18,377.9	57.2452	18,377.9	58.481
19,028.3	90.8629	19,028.3	90.0935	19,028.3	90.8122	19,028.3	88.0648	19,028.3	89.4356	19,028.3	85.69	19,028.3	87.451	19,028.3	82.69	19,028.3	84.1302	19,028.3	79.3633	19,028.3	79.8881	19,028.3	74.8593	19,028.3	76.9745	19,028.3	71.5775	19,028.3	68.9546	19,028.3	69.1075	19,028.3	67.3335	19,028.3	63.8462	19,028.3	66.8984	19,028.3	59.4	19,028.3	62.1688	19,028.3	55.8788	19,028.3	61.9672	19,028.3	59.6418	19,028.3	45.3423	19,028.3	53.9642	19,028.3	53.5074	19,028.3	56.0745	19,028.3	57.5903	19,028.3	53.8669	19,028.3	57.7353	19,028.3	53.1844	19,028.3	57.3889	19,028.3	53.9789	19,028.3	56.1201	19,028.3	58.3591
19,699.2	90.3284	19,699.2	89.5631	19,699.2	90.0518	19,699.2	87.5085	19,699.2	88.6589	19,699.2	84.8539	19,699.2	86.5101	19,699.2	81.2532	19,699.2	82.9094	19,699.2	77.485	19,699.2	77.7286	19,699.2	71.9023	19,699.2	74.376	19,699.2	68.7248	19,699.2	66.0332	19,699.2	65.5374	19,699.2	64.5989	19,699.2	60.7602	19,699.2	65.4838	19,699.2	56.596	19,699.2	61.3008	19,699.2	46.1438	19,699.2	62.7536	19,699.2	57.5283	19,699.2	45.1565	19,699.2	42.5218	19,699.2	52.8505	19,699.2	53.3101	19,699.2	56.2234	19,699.2	54.2441	19,699.2	55.2487	19,699.2	54.7377	19,699.2	54.1145	19,699.2	53.7765	19,699.2	51.5733	19,699.2	56.325
19,998	90.2076	19,998	89.1815	19,998	89.7944	19,998	87.2058	19,998	88.1031	19,998	84.1486	19,998	85.9915	19,998	80.6887	19,998	82.141	19,998	76.5722	19,998	76.6147	19,998	70.7587	19,998	73.0476	19,998	67.3835	19,998	64.0497	19,998	63.7266	19,998	64.0312	19,998	60.9045	19,998	64.6883	19,998	55.3672	19,998	57.8707	19,998	41.8809	19,998	62.4889	19,998	56.3299	19,998	45.6942	19,998	52.3059	19,998	55.4039	19,998	54.9096	19,998	56.6652	19,998	54.5614	19,998	47.1159	19,998	53.5809	19,998	52.6432	19,998	53.7005	19,998	49.3318	19,998	55.7914
