"SPL Vertical"																																																																							
"On-Axis"		"10°"		"-10°"		"20°"		"-20°"		"30°"		"-30°"		"40°"		"-40°"		"50°"		"-50°"		"60°"		"-60°"		"70°"		"-70°"		"80°"		"-80°"		"90°"		"-90°"		"100°"		"-100°"		"110°"		"-110°"		"120°"		"-120°"		"130°"		"-130°"		"140°"		"-140°"		"150°"		"-150°"		"160°"		"-160°"		"170°"		"-170°"		"180°"	
"Frequency [Hz]"	"Sound Pessure Level [dB]  / [2.83V 1m] "	"Frequency [Hz]"	"Sound Pessure Level [dB]  / [2.83V 1m] "	"Frequency [Hz]"	"Sound Pessure Level [dB]  / [2.83V 1m] "	"Frequency [Hz]"	"Sound Pessure Level [dB]  / [2.83V 1m] "	"Frequency [Hz]"	"Sound Pessure Level [dB]  / [2.83V 1m] "	"Frequency [Hz]"	"Sound Pessure Level [dB]  / [2.83V 1m] "	"Frequency [Hz]"	"Sound Pessure Level [dB]  / [2.83V 1m] "	"Frequency [Hz]"	"Sound Pessure Level [dB]  / [2.83V 1m] "	"Frequency [Hz]"	"Sound Pessure Level [dB]  / [2.83V 1m] "	"Frequency [Hz]"	"Sound Pessure Level [dB]  / [2.83V 1m] "	"Frequency [Hz]"	"Sound Pessure Level [dB]  / [2.83V 1m] "	"Frequency [Hz]"	"Sound Pessure Level [dB]  / [2.83V 1m] "	"Frequency [Hz]"	"Sound Pessure Level [dB]  / [2.83V 1m] "	"Frequency [Hz]"	"Sound Pessure Level [dB]  / [2.83V 1m] "	"Frequency [Hz]"	"Sound Pessure Level [dB]  / [2.83V 1m] "	"Frequency [Hz]"	"Sound Pessure Level [dB]  / [2.83V 1m] "	"Frequency [Hz]"	"Sound Pessure Level [dB]  / [2.83V 1m] "	"Frequency [Hz]"	"Sound Pessure Level [dB]  / [2.83V 1m] "	"Frequency [Hz]"	"Sound Pessure Level [dB]  / [2.83V 1m] "	"Frequency [Hz]"	"Sound Pessure Level [dB]  / [2.83V 1m] "	"Frequency [Hz]"	"Sound Pessure Level [dB]  / [2.83V 1m] "	"Frequency [Hz]"	"Sound Pessure Level [dB]  / [2.83V 1m] "	"Frequency [Hz]"	"Sound Pessure Level [dB]  / [2.83V 1m] "	"Frequency [Hz]"	"Sound Pessure Level [dB]  / [2.83V 1m] "	"Frequency [Hz]"	"Sound Pessure Level [dB]  / [2.83V 1m] "	"Frequency [Hz]"	"Sound Pessure Level [dB]  / [2.83V 1m] "	"Frequency [Hz]"	"Sound Pessure Level [dB]  / [2.83V 1m] "	"Frequency [Hz]"	"Sound Pessure Level [dB]  / [2.83V 1m] "	"Frequency [Hz]"	"Sound Pessure Level [dB]  / [2.83V 1m] "	"Frequency [Hz]"	"Sound Pessure Level [dB]  / [2.83V 1m] "	"Frequency [Hz]"	"Sound Pessure Level [dB]  / [2.83V 1m] "	"Frequency [Hz]"	"Sound Pessure Level [dB]  / [2.83V 1m] "	"Frequency [Hz]"	"Sound Pessure Level [dB]  / [2.83V 1m] "	"Frequency [Hz]"	"Sound Pessure Level [dB]  / [2.83V 1m] "	"Frequency [Hz]"	"Sound Pessure Level [dB]  / [2.83V 1m] "	"Frequency [Hz]"	"Sound Pessure Level [dB]  / [2.83V 1m] "
20.5078	50.81	20.5078	50.9797	20.5078	50.7298	20.5078	51.2396	20.5078	50.7384	20.5078	51.5886	20.5078	50.8373	20.5078	52.0209	20.5078	51.0311	20.5078	52.5255	20.5078	51.3256	20.5078	53.0867	20.5078	51.7244	20.5078	53.6859	20.5078	52.2247	20.5078	54.3034	20.5078	52.8146	20.5078	54.9196	20.5078	53.4723	20.5078	55.5165	20.5078	54.169	20.5078	56.0775	20.5078	54.8726	20.5078	56.5878	20.5078	55.5518	20.5078	57.0342	20.5078	56.1791	20.5078	57.4046	20.5078	56.7321	20.5078	57.6885	20.5078	57.1938	20.5078	57.8768	20.5078	57.5527	20.5078	57.9618	20.5078	57.8016	20.5078	57.9378
23.4375	53.3957	23.4375	53.0618	23.4375	53.6644	23.4375	52.6753	23.4375	53.8595	23.4375	52.2547	23.4375	53.9751	23.4375	51.827	23.4375	54.0077	23.4375	51.4293	23.4375	53.9557	23.4375	51.1074	23.4375	53.8207	23.4375	50.9085	23.4375	53.6094	23.4375	50.8679	23.4375	53.3355	23.4375	50.9943	23.4375	53.0239	23.4375	51.2641	23.4375	52.7118	23.4375	51.6301	23.4375	52.4477	23.4375	52.0356	23.4375	52.281	23.4375	52.4283	23.4375	52.2449	23.4375	52.7665	23.4375	52.34	23.4375	53.0203	23.4375	52.5324	23.4375	53.1714	23.4375	52.7669	23.4375	53.2119	23.4375	52.9864	23.4375	53.1449
26.3672	54.8786	26.3672	54.8124	26.3672	54.9426	26.3672	54.7664	26.3672	54.9892	26.3672	54.7675	26.3672	55.0115	26.3672	54.8435	26.3672	55.0118	26.3672	55.0172	26.3672	55.0035	26.3672	55.2999	26.3672	55.0117	26.3672	55.688	26.3672	55.0717	26.3672	56.1628	26.3672	55.2238	26.3672	56.6959	26.3672	55.5002	26.3672	57.2546	26.3672	55.9113	26.3672	57.8072	26.3672	56.438	26.3672	58.3254	26.3672	57.0372	26.3672	58.7857	26.3672	57.6552	26.3672	59.1685	26.3672	58.242	26.3672	59.4582	26.3672	58.7578	26.3672	59.642	26.3672	59.1752	26.3672	59.7102	26.3672	59.4774	26.3672	59.6563
29.2969	55.0972	29.2969	54.7465	29.2969	55.364	29.2969	54.3393	29.2969	55.5303	29.2969	53.9193	29.2969	55.5862	29.2969	53.5503	29.2969	55.5276	29.2969	53.314	29.2969	55.3569	29.2969	53.2904	29.2969	55.0872	29.2969	53.5239	29.2969	54.7496	29.2969	53.9982	29.2969	54.4032	29.2969	54.6442	29.2969	54.1408	29.2969	55.374	29.2969	54.0743	29.2969	56.109	29.2969	54.2863	29.2969	56.7907	29.2969	54.7747	29.2969	57.38	29.2969	55.4512	29.2969	57.8508	29.2969	56.1946	29.2969	58.1854	29.2969	56.9015	29.2969	58.3714	29.2969	57.5039	29.2969	58.3996	29.2969	57.964	29.2969	58.2644
32.2266	58.8314	32.2266	58.5784	32.2266	59.0361	32.2266	58.2995	32.2266	59.178	32.2266	58.0259	32.2266	59.2491	32.2266	57.7985	32.2266	59.2472	32.2266	57.6637	32.2266	59.1769	32.2266	57.6636	32.2266	59.0514	32.2266	57.8233	32.2266	58.8957	32.2266	58.1397	32.2266	58.7482	32.2266	58.5825	32.2266	58.6596	32.2266	59.1039	32.2266	58.6823	32.2266	59.6528	32.2266	58.8521	32.2266	60.1836	32.2266	59.1705	32.2266	60.6598	32.2266	59.6011	32.2266	61.0541	32.2266	60.0847	32.2266	61.3464	32.2266	60.5592	32.2266	61.5229	32.2266	60.9741	32.2266	61.5745	32.2266	61.2939	32.2266	61.4975
35.1563	61.3264	35.1563	61.0989	35.1563	61.5064	35.1563	60.8445	35.1563	61.6249	35.1563	60.5916	35.1563	61.6736	35.1563	60.376	35.1563	61.6494	35.1563	60.2385	35.1563	61.5554	35.1563	60.2168	35.1563	61.4029	35.1563	60.3353	35.1563	61.2147	35.1563	60.5954	35.1563	61.0273	35.1563	60.9744	35.1563	60.891	35.1563	61.4327	35.1563	60.861	35.1563	61.924	35.1563	60.9793	35.1563	62.4052	35.1563	61.2545	35.1563	62.84	35.1563	61.6552	35.1563	63.2001	35.1563	62.1226	35.1563	63.4643	35.1563	62.5925	35.1563	63.6174	35.1563	63.0108	35.1563	63.6495	35.1563	63.3396	35.1563	63.5562
38.0859	64.6425	38.0859	64.4153	38.0859	64.8244	38.0859	64.157	38.0859	64.9513	38.0859	63.8874	38.0859	65.0174	38.0859	63.6324	38.0859	65.0208	38.0859	63.423	38.0859	64.9638	38.0859	63.2921	38.0859	64.8543	38.0859	63.2675	38.0859	64.7071	38.0859	63.3644	38.0859	64.546	38.0859	63.579	38.0859	64.4031	38.0859	63.889	38.0859	64.3154	38.0859	64.2594	38.0859	64.3159	38.0859	64.6508	38.0859	64.4215	38.0859	65.0259	38.0859	64.6245	38.0859	65.3534	38.0859	64.8943	38.0859	65.6089	38.0859	65.1876	38.0859	65.7755	38.0859	65.4601	38.0859	65.8427	38.0859	65.6752	38.0859	65.8076
41.0156	65.5198	41.0156	65.2364	41.0156	65.7463	41.0156	64.9119	41.0156	65.9045	41.0156	64.569	41.0156	65.9869	41.0156	64.2379	41.0156	65.9889	41.0156	63.9563	41.0156	65.9095	41.0156	63.7655	41.0156	65.752	41.0156	63.7009	41.0156	65.5265	41.0156	63.7812	41.0156	65.2536	41.0156	63.9998	41.0156	64.9668	41.0156	64.3263	41.0156	64.7139	41.0156	64.7158	41.0156	64.5499	41.0156	65.1201	41.0156	64.521	41.0156	65.4965	41.0156	64.6435	41.0156	65.8105	41.0156	64.8939	41.0156	66.0368	41.0156	65.2186	41.0156	66.1583	41.0156	65.5549	41.0156	66.1661	41.0156	65.8481	41.0156	66.0594
43.9453	69.0943	43.9453	68.9035	43.9453	69.2451	43.9453	68.6841	43.9453	69.3476	43.9453	68.4512	43.9453	69.3966	43.9453	68.2241	43.9453	69.3897	43.9453	68.0253	43.9453	69.3281	43.9453	67.879	43.9453	69.217	43.9453	67.8069	43.9453	69.0675	43.9453	67.8237	43.9453	68.8976	43.9453	67.9324	43.9453	68.7321	43.9453	68.1224	43.9453	68.6012	43.9453	68.3717	43.9453	68.5344	43.9453	68.6512	43.9453	68.5513	43.9453	68.9302	43.9453	68.6543	43.9453	69.1802	43.9453	68.8257	43.9453	69.378	43.9453	69.0333	43.9453	69.5062	43.9453	69.2396	43.9453	69.5547	43.9453	69.4106	43.9453	69.5209
46.875	71.0185	46.875	70.8103	46.875	71.1844	46.875	70.5696	46.875	71.3007	46.875	70.3099	46.875	71.3622	46.875	70.0481	46.875	71.3665	46.875	69.8046	46.875	71.3135	46.875	69.6024	46.875	71.2066	46.875	69.4639	46.875	71.0538	46.875	69.4067	46.875	70.8689	46.875	69.4388	46.875	70.6722	46.875	69.5555	46.875	70.4896	46.875	69.74	46.875	70.3493	46.875	69.9663	46.875	70.2745	46.875	70.2052	46.875	70.276	46.875	70.4282	46.875	70.3471	46.875	70.6113	46.875	70.4649	46.875	70.7371	46.875	70.5978	46.875	70.7955	46.875	70.7133	46.875	70.785
49.8047	73.0296	49.8047	72.8285	49.8047	73.1907	49.8047	72.5959	49.8047	73.3054	49.8047	72.3429	49.8047	73.3692	49.8047	72.0837	49.8047	73.3794	49.8047	71.8355	49.8047	73.3359	49.8047	71.6177	49.8047	73.2407	49.8047	71.4501	49.8047	73.1	49.8047	71.3495	49.8047	72.9242	49.8047	71.326	49.8047	72.7296	49.8047	71.3798	49.8047	72.5368	49.8047	71.5	49.8047	72.3697	49.8047	71.667	49.8047	72.2494	49.8047	71.8559	49.8047	72.1891	49.8047	72.0415	49.8047	72.1885	49.8047	72.2013	49.8047	72.2337	49.8047	72.3185	49.8047	72.3007	49.8047	72.3838	49.8047	72.3627	49.8047	72.396
52.7344	74.9019	52.7344	74.7064	52.7344	75.0587	52.7344	74.4798	52.7344	75.1711	52.7344	74.2318	52.7344	75.2348	52.7344	73.9748	52.7344	75.2475	52.7344	73.7237	52.7344	75.2084	52.7344	73.4956	52.7344	75.1191	52.7344	73.3085	52.7344	74.9845	52.7344	73.1784	52.7344	74.8131	52.7344	73.1164	52.7344	74.6186	52.7344	73.1254	52.7344	74.4186	52.7344	73.199	52.7344	74.234	52.7344	73.3218	52.7344	74.0845	52.7344	73.473	52.7344	73.9842	52.7344	73.6298	52.7344	73.9362	52.7344	73.7714	52.7344	73.9319	52.7344	73.8819	52.7344	73.9527	52.7344	73.9522	52.7344	73.9762	52.7344	73.9812
55.6641	76.6338	55.6641	76.446	55.6641	76.7855	55.6641	76.2287	55.6641	76.8961	55.6641	75.9902	55.6641	76.9619	55.6641	75.7409	55.6641	76.9804	55.6641	75.4935	55.6641	76.9508	55.6641	75.2626	55.6641	76.8741	55.6641	75.0637	55.6641	76.7537	55.6641	74.9115	55.6641	76.5964	55.6641	74.8172	55.6641	76.4127	55.6641	74.7862	55.6641	76.2169	55.6641	74.8156	55.6641	76.026	55.6641	74.8951	55.6641	75.8572	55.6641	75.0082	55.6641	75.7238	55.6641	75.1359	55.6641	75.6316	55.6641	75.26	55.6641	75.5769	55.6641	75.3659	55.6641	75.5475	55.6641	75.4451	55.6641	75.5263	55.6641	75.4965
58.5938	78.1372	58.5938	77.9512	58.5938	78.2883	58.5938	77.7364	58.5938	78.3999	58.5938	77.5003	58.5938	78.4683	58.5938	77.2522	58.5938	78.491	58.5938	77.0034	58.5938	78.4667	58.5938	76.7669	58.5938	78.3959	58.5938	76.5568	58.5938	78.281	58.5938	76.3869	58.5938	78.1274	58.5938	76.2684	58.5938	77.9441	58.5938	76.2076	58.5938	77.7432	58.5938	76.2043	58.5938	77.5399	58.5938	76.251	58.5938	77.3503	58.5938	76.3346	58.5938	77.1878	58.5938	76.4387	58.5938	77.0603	58.5938	76.5473	58.5938	76.9677	58.5938	76.647	58.5938	76.9016	58.5938	76.7302	58.5938	76.8491	58.5938	76.7957
61.5234	79.1929	61.5234	79.0146	61.5234	79.3376	61.5234	78.8082	61.5234	79.4444	61.5234	78.5806	61.5234	79.5098	61.5234	78.3401	61.5234	79.5312	61.5234	78.0968	61.5234	79.5072	61.5234	77.8624	61.5234	79.4379	61.5234	77.6496	61.5234	79.3251	61.5234	77.4711	61.5234	79.1733	61.5234	77.3377	61.5234	78.9901	61.5234	77.2561	61.5234	78.7866	61.5234	77.2276	61.5234	78.5763	61.5234	77.2471	61.5234	78.3746	61.5234	77.3041	61.5234	78.195	61.5234	77.3848	61.5234	78.0466	61.5234	77.475	61.5234	77.9315	61.5234	77.563	61.5234	77.8445	61.5234	77.6419	61.5234	77.775	61.5234	77.7108
64.4531	80.4014	64.4531	80.2293	64.4531	80.5415	64.4531	80.0299	64.4531	80.6453	64.4531	79.8094	64.4531	80.7098	64.4531	79.5752	64.4531	80.7325	64.4531	79.3364	64.4531	80.7119	64.4531	79.1032	64.4531	80.6476	64.4531	78.8874	64.4531	80.5413	64.4531	78.7008	64.4531	80.3964	64.4531	78.5537	64.4531	80.2195	64.4531	78.4537	64.4531	80.02	64.4531	78.4036	64.4531	79.8101	64.4531	78.4006	64.4531	79.6035	64.4531	78.4368	64.4531	79.413	64.4531	78.501	64.4531	79.2479	64.4531	78.5807	64.4531	79.1119	64.4531	78.6655	64.4531	79.0021	64.4531	78.7488	64.4531	78.9111	64.4531	78.8294
67.3828	81.4759	67.3828	81.31	67.3828	81.6116	67.3828	81.1182	67.3828	81.7135	67.3828	80.9062	67.3828	81.7783	67.3828	80.6805	67.3828	81.8038	67.3828	80.449	67.3828	81.7883	67.3828	80.221	67.3828	81.7312	67.3828	80.0069	67.3828	81.6333	67.3828	79.8173	67.3828	81.4974	67.3828	79.6621	67.3828	81.3287	67.3828	79.5489	67.3828	81.1352	67.3828	79.4815	67.3828	80.9274	67.3828	79.4589	67.3828	80.7175	67.3828	79.4756	67.3828	80.5176	67.3828	79.5228	67.3828	80.3373	67.3828	79.5905	67.3828	80.1819	67.3828	79.6697	67.3828	80.0513	67.3828	79.7547	67.3828	79.941	67.3828	79.8441
70.3125	82.7236	70.3125	82.5686	70.3125	82.8514	70.3125	82.3906	70.3125	82.9485	70.3125	82.1945	70.3125	83.0121	70.3125	81.9862	70.3125	83.0399	70.3125	81.7728	70.3125	83.03	70.3125	81.5624	70.3125	82.9819	70.3125	81.364	70.3125	82.896	70.3125	81.1872	70.3125	82.7745	70.3125	81.0406	70.3125	82.622	70.3125	80.9312	70.3125	82.4454	70.3125	80.8628	70.3125	82.2539	70.3125	80.8353	70.3125	82.0582	70.3125	80.8448	70.3125	81.8691	70.3125	80.8844	70.3125	81.6953	70.3125	80.9456	70.3125	81.5421	70.3125	81.0209	70.3125	81.4101	70.3125	81.105	70.3125	81.2965	70.3125	81.1963
73.2422	83.6689	73.2422	83.5238	73.2422	83.7894	73.2422	83.3577	73.2422	83.8821	73.2422	83.1751	73.2422	83.9443	73.2422	82.9811	73.2422	83.9737	73.2422	82.7818	73.2422	83.9685	73.2422	82.5843	73.2422	83.9279	73.2422	82.3965	73.2422	83.852	73.2422	82.2267	73.2422	83.7422	73.2422	82.0827	73.2422	83.6023	73.2422	81.971	73.2422	83.438	73.2422	81.8958	73.2422	83.257	73.2422	81.8582	73.2422	83.0688	73.2422	81.8558	73.2422	82.8829	73.2422	81.8837	73.2422	82.708	73.2422	81.9355	73.2422	82.5497	73.2422	82.005	73.2422	82.4102	73.2422	82.0878	73.2422	82.2886	73.2422	82.182
76.1719	84.5505	76.1719	84.4106	76.1719	84.6667	76.1719	84.2506	76.1719	84.7564	76.1719	84.0742	76.1719	84.8171	76.1719	83.8862	76.1719	84.8464	76.1719	83.6921	76.1719	84.8427	76.1719	83.4984	76.1719	84.8046	76.1719	83.3122	76.1719	84.7322	76.1719	83.1414	76.1719	84.6265	76.1719	82.9933	76.1719	84.4905	76.1719	82.8747	76.1719	84.3291	76.1719	82.7901	76.1719	84.1496	76.1719	82.7416	76.1719	83.9607	76.1719	82.7281	76.1719	83.7716	76.1719	82.7459	76.1719	83.5908	76.1719	82.7901	76.1719	83.4248	76.1719	82.8552	76.1719	83.2768	76.1719	82.9374	76.1719	83.1472	76.1719	83.0346
79.1016	85.2034	79.1016	85.0709	79.1016	85.3144	79.1016	84.92	79.1016	85.4014	79.1016	84.7543	79.1016	85.4617	79.1016	84.5777	79.1016	85.4933	79.1016	84.3951	79.1016	85.4941	79.1016	84.212	79.1016	85.4628	79.1016	84.0349	79.1016	85.3989	79.1016	83.8705	79.1016	85.303	79.1016	83.7258	79.1016	85.1774	79.1016	83.607	79.1016	85.0262	79.1016	83.5188	79.1016	84.8557	79.1016	83.464	79.1016	84.6734	79.1016	83.4428	79.1016	84.4881	79.1016	83.4531	79.1016	84.3078	79.1016	83.4911	79.1016	84.1392	79.1016	83.5527	79.1016	83.9865	79.1016	83.6344	79.1016	83.8514	79.1016	83.7341
82.0313	85.7256	82.0313	85.5989	82.0313	85.8315	82.0313	85.4542	82.0313	85.9145	82.0313	85.2941	82.0313	85.9724	82.0313	85.1223	82.0313	86.0029	82.0313	84.9428	82.0313	86.0044	82.0313	84.7605	82.0313	85.9751	82.0313	84.5812	82.0313	85.9141	82.0313	84.4112	82.0313	85.8215	82.0313	84.2573	82.0313	85.6989	82.0313	84.1262	82.0313	85.5493	82.0313	84.0233	82.0313	85.378	82.0313	83.9525	82.0313	85.1919	82.0313	83.9158	82.0313	84.9993	82.0313	83.9126	82.0313	84.8085	82.0313	83.9408	82.0313	84.627	82.0313	83.9976	82.0313	84.4604	82.0313	84.0798	82.0313	84.3125	82.0313	84.1852
84.9609	86.5693	84.9609	86.4497	84.9609	86.6697	84.9609	86.3129	84.9609	86.7487	84.9609	86.1616	84.9609	86.8045	84.9609	85.9986	84.9609	86.835	84.9609	85.8275	84.9609	86.8384	84.9609	85.6529	84.9609	86.813	84.9609	85.48	84.9609	86.7577	84.9609	85.3147	84.9609	86.6723	84.9609	85.1637	84.9609	86.5578	84.9609	85.0333	84.9609	86.4169	84.9609	84.9294	84.9609	86.254	84.9609	84.8564	84.9609	86.0756	84.9609	84.8166	84.9609	85.8892	84.9609	84.8104	84.9609	85.7026	84.9609	84.8363	84.9609	85.5234	84.9609	84.8918	84.9609	85.3574	84.9609	84.974	84.9609	85.2088	84.9609	85.0803
87.8906	87.38	87.8906	87.2656	87.8906	87.4775	87.8906	87.1362	87.8906	87.5563	87.8906	86.9943	87.8906	87.6144	87.8906	86.8424	87.8906	87.6499	87.8906	86.6841	87.8906	87.661	87.8906	86.5235	87.8906	87.6461	87.8906	86.3656	87.8906	87.6036	87.8906	86.216	87.8906	87.5333	87.8906	86.0808	87.8906	87.4356	87.8906	85.9659	87.8906	87.3127	87.8906	85.8767	87.8906	87.1684	87.8906	85.8169	87.8906	87.0084	87.8906	85.7886	87.8906	86.8392	87.8906	85.792	87.8906	86.668	87.8906	85.8253	87.8906	86.5014	87.8906	85.8859	87.8906	86.3449	87.8906	85.9707	87.8906	86.2025	87.8906	86.077
90.8203	87.8792	90.8203	87.7741	90.8203	87.9735	90.8203	87.66	90.8203	88.055	90.8203	87.5389	90.8203	88.1216	90.8203	87.4131	90.8203	88.1714	90.8203	87.2854	90.8203	88.2019	90.8203	87.159	90.8203	88.2111	90.8203	87.0374	90.8203	88.197	90.8203	86.925	90.8203	88.1583	90.8203	86.8261	90.8203	88.0948	90.8203	86.745	90.8203	88.0073	90.8203	86.6856	90.8203	87.8985	90.8203	86.6507	90.8203	87.7724	90.8203	86.642	90.8203	87.6343	90.8203	86.6595	90.8203	87.49	90.8203	86.702	90.8203	87.3454	90.8203	86.7674	90.8203	87.2056	90.8203	86.8531	90.8203	87.0749	90.8203	86.9565
93.75	88.5419	93.75	88.4506	93.75	88.6216	93.75	88.3488	93.75	88.6886	93.75	88.2374	93.75	88.7416	93.75	88.1177	93.75	88.779	93.75	87.9916	93.75	88.7988	93.75	87.8614	93.75	88.7989	93.75	87.7303	93.75	88.7772	93.75	87.6022	93.75	88.7318	93.75	87.4817	93.75	88.6617	93.75	87.3739	93.75	88.5671	93.75	87.284	93.75	88.4496	93.75	87.2169	93.75	88.3126	93.75	87.1764	93.75	88.1611	93.75	87.1653	93.75	88.0013	93.75	87.1846	93.75	87.8402	93.75	87.234	93.75	87.6848	93.75	87.3119	93.75	87.5413	93.75	87.4155
96.6797	89.0577	96.6797	88.9655	96.6797	89.136	96.6797	88.8603	96.6797	89.1995	96.6797	88.7429	96.6797	89.247	96.6797	88.6145	96.6797	89.2768	96.6797	88.477	96.6797	89.2871	96.6797	88.3325	96.6797	89.2758	96.6797	88.1845	96.6797	89.2408	96.6797	88.0373	96.6797	89.1802	96.6797	87.8958	96.6797	89.0933	96.6797	87.7661	96.6797	88.9804	96.6797	87.6541	96.6797	88.8434	96.6797	87.5658	96.6797	88.6865	96.6797	87.5061	96.6797	88.5152	96.6797	87.4786	96.6797	88.3368	96.6797	87.4853	96.6797	88.1592	96.6797	87.5264	96.6797	87.9901	96.6797	87.6006	96.6797	87.8368	96.6797	87.7054
102.539	89.859	102.539	89.7751	102.539	89.935	102.539	89.6838	102.539	90.0022	102.539	89.5856	102.539	90.0596	102.539	89.4812	102.539	90.1054	102.539	89.3717	102.539	90.1375	102.539	89.2587	102.539	90.1532	102.539	89.1447	102.539	90.1498	102.539	89.0328	102.539	90.1246	102.539	88.9273	102.539	90.0756	102.539	88.8325	102.539	90.0019	102.539	88.7535	102.539	89.9041	102.539	88.6952	102.539	89.7844	102.539	88.6616	102.539	89.6472	102.539	88.6559	102.539	89.4981	102.539	88.6797	102.539	89.3439	102.539	88.7331	102.539	89.1917	102.539	88.8145	102.539	89.0487	102.539	88.9212
105.469	90.3981	105.469	90.3215	105.469	90.4679	105.469	90.2383	105.469	90.5302	105.469	90.1486	105.469	90.5842	105.469	90.0525	105.469	90.6281	105.469	89.9507	105.469	90.6596	105.469	89.8443	105.469	90.676	105.469	89.7352	105.469	90.6742	105.469	89.6263	105.469	90.6514	105.469	89.5212	105.469	90.6052	105.469	89.4244	105.469	90.5343	105.469	89.3411	105.469	90.4389	105.469	89.2764	105.469	90.3212	105.469	89.2351	105.469	90.1852	105.469	89.2211	105.469	90.0366	105.469	89.237	105.469	89.8825	105.469	89.2834	105.469	89.7305	105.469	89.3596	105.469	89.5882	105.469	89.4627
108.398	90.8663	108.398	90.794	108.398	90.933	108.398	90.7159	108.398	90.9938	108.398	90.6318	108.398	91.0477	108.398	90.5417	108.398	91.0931	108.398	90.4456	108.398	91.1279	108.398	90.3445	108.398	91.149	108.398	90.2399	108.398	91.1532	108.398	90.1346	108.398	91.1371	108.398	90.032	108.398	91.0981	108.398	89.9366	108.398	91.0342	108.398	89.8536	108.398	90.9453	108.398	89.7884	108.398	90.8329	108.398	89.7462	108.398	90.7007	108.398	89.7314	108.398	90.5543	108.398	89.7468	108.398	90.4007	108.398	89.7937	108.398	90.2478	108.398	89.8711	108.398	90.1037	108.398	89.976
111.328	91.2805	111.328	91.2123	111.328	91.3438	111.328	91.1391	111.328	91.4024	111.328	91.0603	111.328	91.4553	111.328	90.9755	111.328	91.5011	111.328	90.8848	111.328	91.5376	111.328	90.7887	111.328	91.5618	111.328	90.6887	111.328	91.5701	111.328	90.5872	111.328	91.5593	111.328	90.4877	111.328	91.526	111.328	90.3946	111.328	91.4682	111.328	90.3131	111.328	91.3852	111.328	90.2487	111.328	91.2783	111.328	90.2067	111.328	91.1507	111.328	90.1917	111.328	91.008	111.328	90.2068	111.328	90.857	111.328	90.2534	111.328	90.7057	111.328	90.3305	111.328	90.5625	111.328	90.4352
117.188	91.9743	117.188	91.9168	117.188	92.0287	117.188	91.8556	117.188	92.0802	117.188	91.7898	117.188	92.1283	117.188	91.7186	117.188	92.1716	117.188	91.6416	117.188	92.208	117.188	91.5588	117.188	92.2346	117.188	91.4712	117.188	92.2477	117.188	91.3808	117.188	92.2437	117.188	91.2906	117.188	92.2192	117.188	91.2045	117.188	92.1717	117.188	91.1275	117.188	92.1001	117.188	91.0651	117.188	92.0051	117.188	91.0225	117.188	91.8896	117.188	91.0048	117.188	91.7584	117.188	91.0154	117.188	91.6182	117.188	91.0561	117.188	91.4769	117.188	91.1265	117.188	91.3427	117.188	91.2237
120.117	92.2372	120.117	92.1839	120.117	92.2873	120.117	92.1266	120.117	92.3346	120.117	92.0642	120.117	92.379	120.117	91.9957	120.117	92.4193	120.117	91.9205	120.117	92.4536	120.117	91.8386	120.117	92.4789	120.117	91.7508	120.117	92.4918	120.117	91.6592	120.117	92.4885	120.117	91.5667	120.117	92.4656	120.117	91.4775	120.117	92.4201	120.117	91.3968	120.117	92.3506	120.117	91.3302	120.117	92.2576	120.117	91.2836	120.117	92.1435	120.117	91.2622	120.117	92.013	120.117	91.2699	120.117	91.8728	120.117	91.3088	120.117	91.7308	120.117	91.3784	120.117	91.5957	120.117	91.4759
125.977	92.8279	125.977	92.7774	125.977	92.8774	125.977	92.7242	125.977	92.9267	125.977	92.6668	125.977	92.9759	125.977	92.6034	125.977	93.024	125.977	92.533	125.977	93.0689	125.977	92.4553	125.977	93.1073	125.977	92.3708	125.977	93.135	125.977	92.2813	125.977	93.1473	125.977	92.19	125.977	93.1394	125.977	92.1013	125.977	93.1074	125.977	92.0208	125.977	93.0487	125.977	91.9546	125.977	92.9627	125.977	91.9094	125.977	92.8512	125.977	91.8912	125.977	92.7188	125.977	91.9044	125.977	92.5723	125.977	91.9513	125.977	92.4206	125.977	92.0313	125.977	92.2736	125.977	92.1409
128.906	93.1638	128.906	93.1179	128.906	93.2107	128.906	93.071	128.906	93.2599	128.906	93.0211	128.906	93.3116	128.906	92.966	128.906	93.3647	128.906	92.904	128.906	93.4169	128.906	92.8344	128.906	93.4645	128.906	92.7573	128.906	93.5028	128.906	92.6743	128.906	93.5264	128.906	92.5884	128.906	93.5298	128.906	92.5041	128.906	93.5086	128.906	92.4268	128.906	93.4593	128.906	92.3633	128.906	93.3811	128.906	92.3204	128.906	93.2753	128.906	92.3042	128.906	93.1464	128.906	92.3197	128.906	93.0014	128.906	92.3693	128.906	92.8493	128.906	92.4524	128.906	92.7004	128.906	92.565
134.766	93.6448	134.766	93.6034	134.766	93.689	134.766	93.5631	134.766	93.7369	134.766	93.5218	134.766	93.7887	134.766	93.4775	134.766	93.8432	134.766	93.4285	134.766	93.898	134.766	93.3736	134.766	93.9496	134.766	93.3129	134.766	93.9932	134.766	93.2473	134.766	94.0237	134.766	93.1791	134.766	94.0359	134.766	93.1119	134.766	94.025	134.766	93.0506	134.766	93.9881	134.766	93.0006	134.766	93.9238	134.766	92.9681	134.766	93.8334	134.766	92.9585	134.766	93.7209	134.766	92.9763	134.766	93.5928	134.766	93.0235	134.766	93.4574	134.766	93.0999	134.766	93.324	134.766	93.2021
137.695	93.8628	137.695	93.8229	137.695	93.9054	137.695	93.784	137.695	93.9516	137.695	93.7442	137.695	94.0015	137.695	93.7014	137.695	94.0539	137.695	93.6541	137.695	94.1066	137.695	93.6011	137.695	94.156	137.695	93.5422	137.695	94.1978	137.695	93.4784	137.695	94.2268	137.695	93.4119	137.695	94.2381	137.695	93.3461	137.695	94.2272	137.695	93.2856	137.695	94.191	137.695	93.236	137.695	94.1283	137.695	93.2031	137.695	94.0403	137.695	93.1925	137.695	93.9308	137.695	93.2086	137.695	93.8061	137.695	93.2536	137.695	93.6743	137.695	93.3272	137.695	93.5446	137.695	93.4262
143.555	94.0705	143.555	94.034	143.555	94.1093	143.555	93.9979	143.555	94.1518	143.555	93.9602	143.555	94.198	143.555	93.9184	143.555	94.2471	143.555	93.8707	143.555	94.2969	143.555	93.8159	143.555	94.3438	143.555	93.7537	143.555	94.3836	143.555	93.685	143.555	94.4109	143.555	93.6122	143.555	94.4208	143.555	93.539	143.555	94.4085	143.555	93.4706	143.555	94.3706	143.555	93.413	143.555	94.3057	143.555	93.3726	143.555	94.2149	143.555	93.3556	143.555	94.102	143.555	93.3668	143.555	93.9733	143.555	93.4091	143.555	93.8373	143.555	93.4821	143.555	93.7037	143.555	93.5825
149.414	94.5582	149.414	94.5234	149.414	94.5949	149.414	94.4883	149.414	94.6349	149.414	94.4506	149.414	94.679	149.414	94.408	149.414	94.7264	149.414	94.3585	149.414	94.7754	149.414	94.3011	149.414	94.8228	149.414	94.2357	149.414	94.8642	149.414	94.1634	149.414	94.8945	149.414	94.0869	149.414	94.9082	149.414	94.0103	149.414	94.9001	149.414	93.9391	149.414	94.8664	149.414	93.8797	149.414	94.805	149.414	93.8389	149.414	94.7163	149.414	93.8231	149.414	94.6037	149.414	93.8371	149.414	94.4734	149.414	93.8837	149.414	94.3339	149.414	93.9621	149.414	94.1954	149.414	94.0684
155.273	94.7016	155.273	94.6694	155.273	94.737	155.273	94.6382	155.273	94.7774	155.273	94.6055	155.273	94.8233	155.273	94.5686	155.273	94.8743	155.273	94.5255	155.273	94.9285	155.273	94.4748	155.273	94.9824	155.273	94.4162	155.273	95.0316	155.273	94.3507	155.273	95.0705	155.273	94.2808	155.273	95.0932	155.273	94.2105	155.273	95.0943	155.273	94.1452	155.273	95.0692	155.273	94.0911	155.273	95.0156	155.273	94.055	155.273	94.9336	155.273	94.0433	155.273	94.8262	155.273	94.0608	155.273	94.6997	155.273	94.1101	155.273	94.5627	155.273	94.1905	155.273	94.4252	155.273	94.298
158.203	94.6594	158.203	94.6279	158.203	94.6944	158.203	94.5975	158.203	94.7346	158.203	94.5655	158.203	94.7806	158.203	94.5295	158.203	94.8321	158.203	94.4874	158.203	94.8872	158.203	94.4376	158.203	94.9426	158.203	94.38	158.203	94.9938	158.203	94.3156	158.203	95.0351	158.203	94.2468	158.203	95.0606	158.203	94.1777	158.203	95.0645	158.203	94.1134	158.203	95.0422	158.203	94.0606	158.203	94.9911	158.203	94.0257	158.203	94.9111	158.203	94.0154	158.203	94.8052	158.203	94.0343	158.203	94.6794	158.203	94.0851	158.203	94.5423	158.203	94.1671	158.203	94.4042	158.203	94.2759
164.063	94.7897	164.063	94.7613	164.063	94.8222	164.063	94.7346	164.063	94.8608	164.063	94.7067	164.063	94.9063	164.063	94.6751	164.063	94.9586	164.063	94.6376	164.063	95.016	164.063	94.5926	164.063	95.0755	164.063	94.5399	164.063	95.1325	164.063	94.4804	164.063	95.1813	164.063	94.4167	164.063	95.2157	164.063	94.3528	164.063	95.2296	164.063	94.2941	164.063	95.2178	164.063	94.2469	164.063	95.1769	164.063	94.2179	164.063	95.1064	164.063	94.2133	164.063	95.0085	164.063	94.2378	164.063	94.8889	164.063	94.2935	164.063	94.7558	164.063	94.3793	164.063	94.6194	164.063	94.4905
169.922	95.0181	169.922	94.995	169.922	95.0455	169.922	94.9738	169.922	95.0792	169.922	94.9517	169.922	95.1202	169.922	94.9262	169.922	95.1687	169.922	94.8952	169.922	95.2236	169.922	94.8574	169.922	95.2822	169.922	94.8123	169.922	95.3405	169.922	94.7609	169.922	95.3933	169.922	94.7056	169.922	95.4345	169.922	94.6503	169.922	95.4578	169.922	94.6001	169.922	95.4577	169.922	94.5609	169.922	95.4303	169.922	94.539	169.922	95.3742	169.922	94.5401	169.922	95.2908	169.922	94.5683	169.922	95.185	169.922	94.6254	169.922	95.0641	169.922	94.7097	169.922	94.9378	169.922	94.8164
175.781	95.0412	175.781	95.0191	175.781	95.0662	175.781	94.9974	175.781	95.0958	175.781	94.9738	175.781	95.1314	175.781	94.9461	175.781	95.1734	175.781	94.9123	175.781	95.221	175.781	94.8715	175.781	95.2724	175.781	94.8236	175.781	95.324	175.781	94.7696	175.781	95.3713	175.781	94.7122	175.781	95.4086	175.781	94.6553	175.781	95.43	175.781	94.604	175.781	95.4299	175.781	94.5642	175.781	95.4043	175.781	94.542	175.781	95.3513	175.781	94.5429	175.781	95.272	175.781	94.5708	175.781	95.1707	175.781	94.6269	175.781	95.0543	175.781	94.7096	175.781	94.932	175.781	94.8139
181.641	94.9862	181.641	94.9619	181.641	95.012	181.641	94.9367	181.641	95.0409	181.641	94.9085	181.641	95.0743	181.641	94.8751	181.641	95.1127	181.641	94.835	181.641	95.1555	181.641	94.7873	181.641	95.2011	181.641	94.732	181.641	95.2465	181.641	94.6708	181.641	95.2873	181.641	94.6063	181.641	95.3183	181.641	94.5428	181.641	95.3336	181.641	94.4857	181.641	95.328	181.641	94.4412	181.641	95.2974	181.641	94.4154	181.641	95.2399	181.641	94.414	181.641	95.1566	181.641	94.4407	181.641	95.0516	181.641	94.4968	181.641	94.9319	181.641	94.5804	181.641	94.8068	181.641	94.6864
190.43	95.0787	190.43	95.0542	190.43	95.1037	190.43	95.028	190.43	95.131	190.43	94.998	190.43	95.1618	190.43	94.9622	190.43	95.1969	190.43	94.919	190.43	95.236	190.43	94.8676	190.43	95.2778	190.43	94.8081	190.43	95.3196	190.43	94.7422	190.43	95.3574	190.43	94.6728	190.43	95.386	190.43	94.6045	190.43	95.3998	190.43	94.543	190.43	95.393	190.43	94.4946	190.43	95.3614	190.43	94.466	190.43	95.3028	190.43	94.4628	190.43	95.218	190.43	94.4888	190.43	95.1111	190.43	94.5454	190.43	94.9891	190.43	94.6304	190.43	94.8614	190.43	94.7385
196.289	95.0998	196.289	95.0786	196.289	95.1208	196.289	95.0552	196.289	95.1434	196.289	95.0273	196.289	95.1693	196.289	94.9932	196.289	95.1994	196.289	94.9513	196.289	95.234	196.289	94.9009	196.289	95.2721	196.289	94.8423	196.289	95.3115	196.289	94.7771	196.289	95.3483	196.289	94.7084	196.289	95.3776	196.289	94.6405	196.289	95.3933	196.289	94.5791	196.289	95.3898	196.289	94.5306	196.289	95.3622	196.289	94.5014	196.289	95.308	196.289	94.4971	196.289	95.2277	196.289	94.5216	196.289	95.1251	196.289	94.5761	196.289	95.0072	196.289	94.6586	196.289	94.8832	196.289	94.7637
202.148	95.0516	202.148	95.0308	202.148	95.0707	202.148	95.0063	202.148	95.0901	202.148	94.9761	202.148	95.1113	202.148	94.9386	202.148	95.1356	202.148	94.8923	202.148	95.1636	202.148	94.8369	202.148	95.1949	202.148	94.7729	202.148	95.228	202.148	94.7023	202.148	95.2595	202.148	94.6284	202.148	95.2849	202.148	94.556	202.148	95.2985	202.148	94.4911	202.148	95.2945	202.148	94.4403	202.148	95.2679	202.148	94.41	202.148	95.2156	202.148	94.4058	202.148	95.1376	202.148	94.4313	202.148	95.0371	202.148	94.4872	202.148	94.9206	202.148	94.5712	202.148	94.7973	202.148	94.6774
210.938	94.9684	210.938	94.9464	210.938	94.9877	210.938	94.9202	210.938	95.0056	210.938	94.8887	210.938	95.0235	210.938	94.8504	210.938	95.0427	210.938	94.8047	210.938	95.0641	210.938	94.7512	210.938	95.088	210.938	94.6907	210.938	95.1136	210.938	94.625	210.938	95.1388	210.938	94.5573	210.938	95.1601	210.938	94.4922	210.938	95.1725	210.938	94.4349	210.938	95.1707	210.938	94.3915	210.938	95.1496	210.938	94.3676	210.938	95.1061	210.938	94.3679	210.938	95.0392	210.938	94.3952	210.938	94.9512	210.938	94.4498	210.938	94.8477	210.938	94.5291	210.938	94.7367	210.938	94.6273
216.797	94.9639	216.797	94.942	216.797	94.9837	216.797	94.9166	216.797	95.0028	216.797	94.8862	216.797	95.0226	216.797	94.8493	216.797	95.0442	216.797	94.805	216.797	95.0686	216.797	94.7529	216.797	95.0959	216.797	94.6935	216.797	95.1252	216.797	94.6285	216.797	95.1542	216.797	94.5613	216.797	95.1789	216.797	94.4963	216.797	95.1942	216.797	94.4389	216.797	95.1944	216.797	94.3953	216.797	95.1742	216.797	94.3713	216.797	95.1303	216.797	94.3719	216.797	95.0618	216.797	94.3999	216.797	94.9714	216.797	94.4558	216.797	94.8649	216.797	94.5371	216.797	94.7505	216.797	94.638
225.586	94.8439	225.586	94.8184	225.586	94.8633	225.586	94.7857	225.586	94.8782	225.586	94.745	225.586	94.8901	225.586	94.6956	225.586	94.9013	225.586	94.6375	225.586	94.9137	225.586	94.5715	225.586	94.929	225.586	94.4991	225.586	94.9475	225.586	94.4232	225.586	94.9683	225.586	94.3481	225.586	94.9883	225.586	94.2787	225.586	95.0026	225.586	94.2212	225.586	95.0052	225.586	94.1814	225.586	94.9901	225.586	94.1646	225.586	94.9528	225.586	94.1746	225.586	94.8911	225.586	94.213	225.586	94.8064	225.586	94.279	225.586	94.7034	225.586	94.3685	225.586	94.5899	225.586	94.475
234.375	94.9065	234.375	94.8815	234.375	94.9233	234.375	94.8472	234.375	94.933	234.375	94.8031	234.375	94.9374	234.375	94.7488	234.375	94.9384	234.375	94.6842	234.375	94.9383	234.375	94.6102	234.375	94.9396	234.375	94.5289	234.375	94.9437	234.375	94.4435	234.375	94.9509	234.375	94.3587	234.375	94.9594	234.375	94.2805	234.375	94.9652	234.375	94.2153	234.375	94.9629	234.375	94.1695	234.375	94.9465	234.375	94.1486	234.375	94.9108	234.375	94.1563	234.375	94.8528	234.375	94.1937	234.375	94.7727	234.375	94.2591	234.375	94.6745	234.375	94.3478	234.375	94.5648	234.375	94.4528
240.234	94.714	240.234	94.6892	240.234	94.7311	240.234	94.6557	240.234	94.7415	240.234	94.6128	240.234	94.7468	240.234	94.5597	240.234	94.7489	240.234	94.4963	240.234	94.75	240.234	94.4231	240.234	94.7522	240.234	94.3417	240.234	94.7569	240.234	94.2552	240.234	94.7641	240.234	94.1681	240.234	94.7718	240.234	94.0865	240.234	94.776	240.234	94.017	240.234	94.7709	240.234	93.9664	240.234	94.7507	240.234	93.9406	240.234	94.7102	240.234	93.9436	240.234	94.647	240.234	93.977	240.234	94.5619	240.234	94.0396	240.234	94.4591	240.234	94.1269	240.234	94.346	240.234	94.232
249.023	94.6928	249.023	94.6583	249.023	94.7158	249.023	94.6121	249.023	94.7281	249.023	94.5539	249.023	94.7306	249.023	94.4837	249.023	94.7252	249.023	94.4021	249.023	94.7142	249.023	94.3099	249.023	94.7004	249.023	94.2097	249.023	94.6861	249.023	94.1052	249.023	94.6727	249.023	94.0018	249.023	94.6596	249.023	93.9059	249.023	94.6442	249.023	93.8249	249.023	94.6219	249.023	93.7658	249.023	94.5873	249.023	93.7345	249.023	94.5354	249.023	93.7348	249.023	94.4633	249.023	93.7677	249.023	94.3714	249.023	93.8312	249.023	94.2633	249.023	93.9207	249.023	94.1461	249.023	94.0286
257.813	94.5996	257.813	94.5642	257.813	94.6256	257.813	94.5196	257.813	94.6424	257.813	94.4659	257.813	94.6511	257.813	94.4029	257.813	94.6533	257.813	94.3307	257.813	94.6517	257.813	94.2501	257.813	94.6493	257.813	94.1624	257.813	94.6488	257.813	94.0709	257.813	94.6513	257.813	93.98	257.813	94.6558	257.813	93.8959	257.813	94.6587	257.813	93.8256	257.813	94.6539	257.813	93.7762	257.813	94.6347	257.813	93.7537	257.813	94.5947	257.813	93.7623	257.813	94.5305	257.813	93.8034	257.813	94.4419	257.813	93.8752	257.813	94.3332	257.813	93.9728	257.813	94.212	257.813	94.0883
266.602	94.4161	266.602	94.3641	266.602	94.4551	266.602	94.3001	266.602	94.4806	266.602	94.2248	266.602	94.4931	266.602	94.1388	266.602	94.494	266.602	94.0431	266.602	94.4857	266.602	93.9387	266.602	94.4718	266.602	93.8282	266.602	94.4556	266.602	93.7153	266.602	94.4397	266.602	93.6057	266.602	94.4245	266.602	93.5067	266.602	94.4078	266.602	93.426	266.602	94.385	266.602	93.3716	266.602	94.3498	266.602	93.3494	266.602	94.2961	266.602	93.3632	266.602	94.2199	266.602	93.4132	266.602	94.1205	266.602	93.4962	266.602	94.0012	266.602	93.606	266.602	93.8691	266.602	93.7338
278.32	94.3421	278.32	94.2895	278.32	94.374	278.32	94.2184	278.32	94.3846	278.32	94.1325	278.32	94.3757	278.32	94.0367	278.32	94.3513	278.32	93.9364	278.32	94.3173	278.32	93.8372	278.32	94.2807	278.32	93.7449	278.32	94.249	278.32	93.6648	278.32	94.2281	278.32	93.6021	278.32	94.2209	278.32	93.5606	278.32	94.2268	278.32	93.5434	278.32	94.2407	278.32	93.5519	278.32	94.2548	278.32	93.5855	278.32	94.2603	278.32	93.6421	278.32	94.2495	278.32	93.7178	278.32	94.2175	278.32	93.8072	278.32	94.1632	278.32	93.9038	278.32	94.089	278.32	94.0002
287.109	94.5454	287.109	94.5171	287.109	94.5486	287.109	94.4626	287.109	94.5288	287.109	94.3821	287.109	94.4896	287.109	94.2772	287.109	94.4363	287.109	94.151	287.109	94.3752	287.109	94.0088	287.109	94.3136	287.109	93.8576	287.109	94.2583	287.109	93.707	287.109	94.2145	287.109	93.5674	287.109	94.1842	287.109	93.4499	287.109	94.1652	287.109	93.3638	287.109	94.1518	287.109	93.3153	287.109	94.1355	287.109	93.3068	287.109	94.108	287.109	93.3361	287.109	94.0626	287.109	93.3979	287.109	93.9964	287.109	93.4846	287.109	93.9104	287.109	93.5878	287.109	93.8089	287.109	93.6987
295.898	94.3769	295.898	94.3534	295.898	94.3744	295.898	94.303	295.898	94.3476	295.898	94.2254	295.898	94.2999	295.898	94.121	295.898	94.2362	295.898	93.991	295.898	94.164	295.898	93.8388	295.898	94.0921	295.898	93.67	295.898	94.0298	295.898	93.4932	295.898	93.9849	295.898	93.32	295.898	93.9606	295.898	93.1638	295.898	93.9544	295.898	93.0383	295.898	93.9577	295.898	92.9553	295.898	93.9575	295.898	92.9225	295.898	93.94	295.898	92.9421	295.898	93.8941	295.898	93.0104	295.898	93.8141	295.898	93.1193	295.898	93.7011	295.898	93.257	295.898	93.5624	295.898	93.4096
307.617	94.1857	307.617	94.1303	307.617	94.223	307.617	94.0609	307.617	94.2386	307.617	93.9808	307.617	94.2307	307.617	93.8925	307.617	94.1995	307.617	93.7972	307.617	94.1489	307.617	93.6959	307.617	94.0855	307.617	93.5898	307.617	94.0183	307.617	93.4817	307.617	93.9568	307.617	93.3763	307.617	93.909	307.617	93.28	307.617	93.8782	307.617	93.2007	307.617	93.8618	307.617	93.1463	307.617	93.852	307.617	93.123	307.617	93.8375	307.617	93.1345	307.617	93.8074	307.617	93.1807	307.617	93.7543	307.617	93.2573	307.617	93.6764	307.617	93.3563	307.617	93.5777	307.617	93.4672
319.336	93.9706	319.336	93.9033	319.336	94.0108	319.336	93.8141	319.336	94.0212	319.336	93.7086	319.336	94.0012	319.336	93.5928	319.336	93.9538	319.336	93.4727	319.336	93.8853	319.336	93.3537	319.336	93.805	319.336	93.241	319.336	93.7243	319.336	93.1402	319.336	93.6545	319.336	93.0567	319.336	93.6044	319.336	92.996	319.336	93.5779	319.336	92.9622	319.336	93.5726	319.336	92.9578	319.336	93.5802	319.336	92.9825	319.336	93.5892	319.336	93.0337	319.336	93.5878	319.336	93.1062	319.336	93.5677	319.336	93.1932	319.336	93.5249	319.336	93.2867	319.336	93.4602	319.336	93.3784
331.055	94.0748	331.055	93.9982	331.055	94.115	331.055	93.8894	331.055	94.1163	331.055	93.7541	331.055	94.079	331.055	93.5984	331.055	94.0065	331.055	93.4292	331.055	93.906	331.055	93.2543	331.055	93.7883	331.055	93.0823	331.055	93.6674	331.055	92.923	331.055	93.558	331.055	92.7869	331.055	93.4732	331.055	92.6839	331.055	93.4205	331.055	92.6219	331.055	93.3989	331.055	92.605	331.055	93.3996	331.055	92.6328	331.055	93.4078	331.055	92.6997	331.055	93.4074	331.055	92.7969	331.055	93.3859	331.055	92.9131	331.055	93.3361	331.055	93.0362	331.055	93.2574	331.055	93.1546
342.773	94.0496	342.773	93.9774	342.773	94.084	342.773	93.8711	342.773	94.0785	342.773	93.7353	342.773	94.0335	342.773	93.5754	342.773	93.9525	342.773	93.3973	342.773	93.8427	342.773	93.2082	342.773	93.7153	342.773	93.0171	342.773	93.5845	342.773	92.835	342.773	93.4654	342.773	92.6745	342.773	93.3716	342.773	92.5481	342.773	93.3109	342.773	92.4665	342.773	93.2828	342.773	92.436	342.773	93.2783	342.773	92.4568	342.773	93.2823	342.773	92.5233	342.773	93.2784	342.773	92.6248	342.773	93.2531	342.773	92.7482	342.773	93.199	342.773	92.8795	342.773	93.115	342.773	93.0056
354.492	93.9467	354.492	93.8774	354.492	93.9756	354.492	93.7719	354.492	93.9618	354.492	93.635	354.492	93.9054	354.492	93.472	354.492	93.8097	354.492	93.2884	354.492	93.6819	354.492	93.0908	354.492	93.5334	354.492	92.8871	354.492	93.3788	354.492	92.6874	354.492	93.2347	354.492	92.5038	354.492	93.1158	354.492	92.3494	354.492	93.0316	354.492	92.2364	354.492	92.9825	354.492	92.1731	354.492	92.9596	354.492	92.1625	354.492	92.9475	354.492	92.2009	354.492	92.9295	354.492	92.2796	354.492	92.8921	354.492	92.386	354.492	92.8285	354.492	92.5067	354.492	92.7387	354.492	92.6282
366.211	93.8616	366.211	93.7941	366.211	93.8911	366.211	93.6939	366.211	93.8786	366.211	93.5665	366.211	93.8224	366.211	93.417	366.211	93.7246	366.211	93.25	366.211	93.5917	366.211	93.0705	366.211	93.4349	366.211	92.8847	366.211	93.2702	366.211	92.7009	366.211	93.1157	366.211	92.5296	366.211	92.9885	366.211	92.3824	366.211	92.8999	366.211	92.2706	366.211	92.8514	366.211	92.2022	366.211	92.8337	366.211	92.1808	366.211	92.8301	366.211	92.2042	366.211	92.8221	366.211	92.2655	366.211	92.7951	366.211	92.3541	366.211	92.742	366.211	92.4582	366.211	92.6632	366.211	92.5652
377.93	93.864	377.93	93.7601	377.93	93.9241	377.93	93.6203	377.93	93.9347	377.93	93.4535	377.93	93.8931	377.93	93.2685	377.93	93.8015	377.93	93.0734	377.93	93.6673	377.93	92.8764	377.93	93.5038	377.93	92.6859	377.93	93.3298	377.93	92.5117	377.93	93.168	377.93	92.3645	377.93	93.0399	377.93	92.2546	377.93	92.9604	377.93	92.1904	377.93	92.932	377.93	92.1761	377.93	92.9432	377.93	92.2102	377.93	92.9725	377.93	92.2862	377.93	92.9956	377.93	92.3936	377.93	92.9933	377.93	92.5197	377.93	92.9554	377.93	92.6516	377.93	92.8809	377.93	92.7761
392.578	93.6389	392.578	93.5148	392.578	93.7123	392.578	93.3483	392.578	93.73	392.578	93.1492	392.578	93.6904	392.578	92.9284	392.578	93.5968	392.578	92.6966	392.578	93.4577	392.578	92.4649	392.578	93.2881	392.578	92.2449	392.578	93.1086	392.578	92.0487	392.578	92.9438	392.578	91.889	392.578	92.8176	392.578	91.7775	392.578	92.7461	392.578	91.723	392.578	92.7311	392.578	91.729	392.578	92.7585	392.578	91.7925	392.578	92.8026	392.578	91.9047	392.578	92.8351	392.578	92.0524	392.578	92.8333	392.578	92.2206	392.578	92.7852	392.578	92.3934	392.578	92.6898	392.578	92.5549
407.227	93.5862	407.227	93.4837	407.227	93.6286	407.227	93.3289	407.227	93.6063	407.227	93.1321	407.227	93.5187	407.227	92.9048	407.227	93.3702	407.227	92.66	407.227	93.1715	407.227	92.4117	407.227	92.9408	407.227	92.175	407.227	92.7045	407.227	91.9661	407.227	92.4953	407.227	91.8013	407.227	92.3467	407.227	91.6947	407.227	92.283	407.227	91.6555	407.227	92.3087	407.227	91.6856	407.227	92.4047	407.227	91.7787	407.227	92.5342	407.227	91.9216	407.227	92.6563	407.227	92.0963	407.227	92.7376	407.227	92.2827	407.227	92.7586	407.227	92.4605	407.227	92.714	407.227	92.6101
421.875	93.714	421.875	93.5926	421.875	93.7718	421.875	93.4161	421.875	93.7605	421.875	93.1951	421.875	93.6776	421.875	92.9419	421.875	93.5251	421.875	92.6705	421.875	93.3104	421.875	92.3964	421.875	93.048	421.875	92.1368	421.875	92.7612	421.875	91.9097	421.875	92.4825	421.875	91.7328	421.875	92.2503	421.875	91.6206	421.875	92.0998	421.875	91.5814	421.875	92.0504	421.875	91.6143	421.875	92.0953	421.875	91.7095	421.875	92.2034	421.875	91.8496	421.875	92.3312	421.875	92.0136	421.875	92.4386	421.875	92.1794	421.875	92.4982	421.875	92.3266	421.875	92.4977	421.875	92.4375
436.523	93.6218	436.523	93.5001	436.523	93.6745	436.523	93.3175	436.523	93.6525	436.523	93.0841	436.523	93.5533	436.523	92.8122	436.523	93.3782	436.523	92.517	436.523	93.1347	436.523	92.2171	436.523	92.8384	436.523	91.9351	436.523	92.5156	436.523	91.6961	436.523	92.2052	436.523	91.5246	436.523	91.9551	436.523	91.4392	436.523	91.8102	436.523	91.4467	436.523	91.7949	436.523	91.54	436.523	91.8984	436.523	91.6997	436.523	92.0785	436.523	91.8987	436.523	92.2797	436.523	92.1087	436.523	92.4529	436.523	92.3037	436.523	92.5658	436.523	92.4623	436.523	92.604	436.523	92.5668
451.172	93.8526	451.172	93.6925	451.172	93.9406	451.172	93.4682	451.172	93.9502	451.172	93.1883	451.172	93.877	451.172	92.8632	451.172	93.719	451.172	92.5054	451.172	93.4786	451.172	92.1319	451.172	93.1644	451.172	91.7648	451.172	92.7947	451.172	91.4328	451.172	92.4	451.172	91.1675	451.172	92.025	451.172	90.9977	451.172	91.7228	451.172	90.9401	451.172	91.5405	451.172	90.9929	451.172	91.4978	451.172	91.1353	451.172	91.5747	451.172	91.3339	451.172	91.7202	451.172	91.5516	451.172	91.8752	451.172	91.7547	451.172	91.992	451.172	91.9162	451.172	92.0424	451.172	92.0162
465.82	93.7502	465.82	93.6077	465.82	93.8208	465.82	93.4002	465.82	93.8147	465.82	93.1351	465.82	93.7291	465.82	92.8214	465.82	93.5648	465.82	92.4709	465.82	93.3275	465.82	92.1002	465.82	93.0292	465.82	91.7333	465.82	92.6908	465.82	91.4018	465.82	92.3439	465.82	91.1422	465.82	92.0302	465.82	90.9871	465.82	91.7953	465.82	90.9548	465.82	91.6748	465.82	91.0409	465.82	91.6779	465.82	91.2193	465.82	91.7803	465.82	91.4511	465.82	91.9338	465.82	91.6957	465.82	92.086	465.82	91.9184	465.82	92.1954	465.82	92.0933	465.82	92.2375	465.82	92.2029
483.398	93.7387	483.398	93.6086	483.398	93.8	483.398	93.4113	483.398	93.7904	483.398	93.1487	483.398	93.7087	483.398	92.8235	483.398	93.555	483.398	92.4413	483.398	93.3323	483.398	92.0137	483.398	93.0488	483.398	91.5625	483.398	92.7201	483.398	91.1221	483.398	92.3716	483.398	90.739	483.398	92.0391	483.398	90.4647	483.398	91.7656	483.398	90.339	483.398	91.5898	483.398	90.3735	483.398	91.5296	483.398	90.545	483.398	91.571	483.398	90.8054	483.398	91.6719	483.398	91.0997	483.398	91.78	483.398	91.3801	483.398	91.8498	483.398	91.6118	483.398	91.8518	483.398	91.7726
500.977	93.7022	500.977	93.5943	500.977	93.7424	500.977	93.4228	500.977	93.7097	500.977	93.1893	500.977	93.5998	500.977	92.893	500.977	93.4119	500.977	92.534	500.977	93.1505	500.977	92.1168	500.977	92.8285	500.977	91.6564	500.977	92.4695	500.977	91.1834	500.977	92.1096	500.977	90.7459	500.977	91.7956	500.977	90.4042	500.977	91.5762	500.977	90.2147	500.977	91.4839	500.977	90.2062	500.977	91.5171	500.977	90.365	500.977	91.6375	500.977	90.6419	500.977	91.7863	500.977	90.9737	500.977	91.9074	500.977	91.3032	500.977	91.9613	500.977	91.5882	500.977	91.9278	500.977	91.8015
518.555	93.696	518.555	93.5828	518.555	93.7438	518.555	93.4133	518.555	93.7164	518.555	93.1931	518.555	93.6063	518.555	92.9228	518.555	93.4103	518.555	92.5999	518.555	93.1316	518.555	92.2231	518.555	92.7811	518.555	91.798	518.555	92.3814	518.555	91.3431	518.555	91.9698	518.555	90.8937	518.555	91.5996	518.555	90.501	518.555	91.3314	518.555	90.2226	518.555	91.2105	518.555	90.1029	518.555	91.2395	518.555	90.1533	518.555	91.3714	518.555	90.3459	518.555	91.5321	518.555	90.6272	518.555	91.6531	518.555	90.939	518.555	91.691	518.555	91.2324	518.555	91.6292	518.555	91.4709
536.133	93.6622	536.133	93.4954	536.133	93.7454	536.133	93.2655	536.133	93.7279	536.133	92.9918	536.133	93.5996	536.133	92.6876	536.133	93.359	536.133	92.3575	536.133	93.0144	536.133	91.9995	536.133	92.5863	536.133	91.6115	536.133	92.1109	536.133	91.2001	536.133	91.643	536.133	90.7888	536.133	91.2526	536.133	90.4229	536.133	91.0085	536.133	90.1637	536.133	90.9484	536.133	90.068	536.133	91.0555	536.133	90.1587	536.133	91.2654	536.133	90.4076	536.133	91.4975	536.133	90.7487	536.133	91.6846	536.133	91.107	536.133	91.7838	536.133	91.4212	536.133	91.7742	536.133	91.6508
553.711	93.9235	553.711	93.6987	553.711	94.0591	553.711	93.4064	553.711	94.0869	553.711	93.0682	553.711	93.994	553.711	92.7005	553.711	93.7751	553.711	92.3126	553.711	93.433	553.711	91.9071	553.711	92.9814	553.711	91.4856	553.711	92.4484	553.711	91.0567	553.711	91.8825	553.711	90.6444	553.711	91.3568	553.711	90.2923	553.711	90.9601	553.711	90.0576	553.711	90.7654	553.711	89.9897	553.711	90.7866	553.711	90.1026	553.711	90.966	553.711	90.3612	553.711	91.2084	553.711	90.6974	553.711	91.4273	553.711	91.0373	553.711	91.5668	553.711	91.3227	553.711	91.5993	553.711	91.5163
574.219	93.8887	574.219	93.6597	574.219	94.0296	574.219	93.3647	574.219	94.0649	574.219	93.0258	574.219	93.9841	574.219	92.6589	574.219	93.7839	574.219	92.2693	574.219	93.468	574.219	91.8525	574.219	93.0471	574.219	91.4008	574.219	92.5423	574.219	90.9142	574.219	91.9905	574.219	90.4124	574.219	91.4499	574.219	89.9444	574.219	90.9993	574.219	89.5872	574.219	90.7177	574.219	89.4222	574.219	90.6439	574.219	89.4907	574.219	90.7473	574.219	89.7616	574.219	90.9424	574.219	90.148	574.219	91.1348	574.219	90.5521	574.219	91.2541	574.219	90.8985	574.219	91.2614	574.219	91.1418
594.727	93.8996	594.727	93.6339	594.727	94.0633	594.727	93.2957	594.727	94.1035	594.727	92.9178	594.727	94.0079	594.727	92.5283	594.727	93.7732	594.727	92.1417	594.727	93.4054	594.727	91.7541	594.727	92.9217	594.727	91.3475	594.727	92.3556	594.727	90.9028	594.727	91.7608	594.727	90.416	594.727	91.2116	594.727	89.9153	594.727	90.7873	594.727	89.4705	594.727	90.5416	594.727	89.1811	594.727	90.4735	594.727	89.1292	594.727	90.5308	594.727	89.3197	594.727	90.6418	594.727	89.6704	594.727	90.7457	594.727	90.0644	594.727	90.8002	594.727	90.4074	594.727	90.7755	594.727	90.6485
615.234	94.0496	615.234	93.7994	615.234	94.19	615.234	93.4661	615.234	94.2022	615.234	93.0812	615.234	94.0759	615.234	92.6743	615.234	93.8091	615.234	92.2633	615.234	93.4079	615.234	91.8492	615.234	92.8902	615.234	91.4184	615.234	92.2906	615.234	90.9539	615.234	91.6664	615.234	90.4524	615.234	91.0963	615.234	89.9404	615.234	90.6637	615.234	89.485	615.234	90.4221	615.234	89.1836	615.234	90.3664	615.234	89.1192	615.234	90.4391	615.234	89.3004	615.234	90.5663	615.234	89.6475	615.234	90.6868	615.234	90.0427	615.234	90.7574	615.234	90.3873	615.234	90.7458	615.234	90.6265
638.672	93.9479	638.672	93.6935	638.672	94.1064	638.672	93.3719	638.672	94.1486	638.672	93.016	638.672	94.063	638.672	92.6528	638.672	93.8454	638.672	92.2924	638.672	93.4988	638.672	91.9232	638.672	93.0337	638.672	91.5177	638.672	92.4726	638.672	91.048	638.672	91.8551	638.672	90.5055	638.672	91.2423	638.672	89.9207	638.672	90.7145	638.672	89.3807	638.672	90.3515	638.672	89.0208	638.672	90.1984	638.672	88.9601	638.672	90.239	638.672	89.2079	638.672	90.4047	638.672	89.6472	638.672	90.6078	638.672	90.1203	638.672	90.7696	638.672	90.5077	638.672	90.8301	638.672	90.7488
659.18	94.1138	659.18	93.8214	659.18	94.2848	659.18	93.4422	659.18	94.3129	659.18	93.0211	659.18	94.1889	659.18	92.6035	659.18	93.9148	659.18	92.2184	659.18	93.5035	659.18	91.8643	659.18	92.9805	659.18	91.5087	659.18	92.387	659.18	91.1028	659.18	91.7797	659.18	90.6046	659.18	91.223	659.18	90.0042	659.18	90.7701	659.18	89.3533	659.18	90.444	659.18	88.7878	659.18	90.2367	659.18	88.4977	659.18	90.129	659.18	88.5952	659.18	90.107	659.18	88.9979	659.18	90.1547	659.18	89.4999	659.18	90.2314	659.18	89.923	659.18	90.2658	659.18	90.1801
682.617	94.1252	682.617	93.7493	682.617	94.3561	682.617	93.2651	682.617	94.4197	682.617	92.7238	682.617	94.3056	682.617	92.1853	682.617	94.0141	682.617	91.7029	682.617	93.5563	682.617	91.3021	682.617	92.959	682.617	90.9689	682.617	92.2729	682.617	90.6583	682.617	91.5816	682.617	90.3208	682.617	90.9941	682.617	89.9314	682.617	90.6032	682.617	89.5123	682.617	90.4276	682.617	89.1427	682.617	90.401	682.617	88.9366	682.617	90.4288	682.617	88.9753	682.617	90.4491	682.617	89.2373	682.617	90.4468	682.617	89.6083	682.617	90.4228	682.617	89.9604	682.617	90.3591	682.617	90.2154
706.055	93.9716	706.055	93.5979	706.055	94.2072	706.055	93.126	706.055	94.2786	706.055	92.6075	706.055	94.174	706.055	92.0973	706.055	93.8948	706.055	91.6375	706.055	93.457	706.055	91.239	706.055	92.8941	706.055	90.8743	706.055	92.2613	706.055	90.4898	706.055	91.6344	706.055	90.0323	706.055	91.0925	706.055	89.481	706.055	90.6826	706.055	88.8812	706.055	90.3958	706.055	88.3689	706.055	90.1908	706.055	88.1379	706.055	90.0442	706.055	88.3021	706.055	89.9729	706.055	88.7736	706.055	89.999	706.055	89.3371	706.055	90.0903	706.055	89.8039	706.055	90.1521	706.055	90.078
732.422	94.0672	732.422	93.6088	732.422	94.3637	732.422	93.0308	732.422	94.4734	732.422	92.396	732.422	94.3857	732.422	91.7837	732.422	94.1018	732.422	91.2717	732.422	93.6335	732.422	90.9008	732.422	93.007	732.422	90.6464	732.422	92.2752	732.422	90.427	732.422	91.5336	732.422	90.1448	732.422	90.9137	732.422	89.7306	732.422	90.5215	732.422	89.1811	732.422	90.3555	732.422	88.5967	732.422	90.3114	732.422	88.1943	732.422	90.2785	732.422	88.1961	732.422	90.2195	732.422	88.6089	732.422	90.1687	732.422	89.2003	732.422	90.1596	732.422	89.7177	732.422	90.1499	732.422	90.0331
758.789	94.241	758.789	93.7953	758.789	94.5142	758.789	93.2067	758.789	94.5961	758.789	92.5182	758.789	94.4756	758.789	91.791	758.789	94.1476	758.789	91.1042	758.789	93.6169	758.789	90.5417	758.789	92.9092	758.789	90.1563	758.789	92.0928	758.789	89.9321	758.789	91.2991	758.789	89.785	758.789	90.7018	758.789	89.6092	758.789	90.4155	758.789	89.3339	758.789	90.3939	758.789	88.968	758.789	90.4769	758.789	88.6248	758.789	90.5298	758.789	88.4903	758.789	90.5141	758.789	88.6854	758.789	90.4615	758.789	89.1366	758.789	90.3963	758.789	89.6439	758.789	90.2817	758.789	90.0439
785.156	93.8137	785.156	93.3161	785.156	94.1792	785.156	92.7335	785.156	94.3706	785.156	92.1156	785.156	94.3521	785.156	91.5121	785.156	94.0955	785.156	90.9666	785.156	93.5851	785.156	90.5104	785.156	92.8278	785.156	90.1541	785.156	91.878	785.156	89.8832	785.156	90.881	785.156	89.6617	785.156	90.0886	785.156	89.4471	785.156	89.7227	785.156	89.211	785.156	89.7391	785.156	88.9639	785.156	89.8675	785.156	88.7693	785.156	89.8873	785.156	88.7237	785.156	89.771	785.156	88.8828	785.156	89.6444	785.156	89.1889	785.156	89.6274	785.156	89.4958	785.156	89.6842	785.156	89.6714
811.523	93.6792	811.523	93.2369	811.523	94.0291	811.523	92.7314	811.523	94.2511	811.523	92.187	811.523	94.305	811.523	91.6245	811.523	94.1477	811.523	91.0638	811.523	93.7393	811.523	90.5268	811.523	93.0517	811.523	90.0382	811.523	92.0906	811.523	89.6185	811.523	90.9475	811.523	89.2696	811.523	89.8796	811.523	88.9698	811.523	89.2711	811.523	88.6931	811.523	89.2675	811.523	88.4471	811.523	89.5644	811.523	88.2976	811.523	89.7881	811.523	88.3374	811.523	89.8005	811.523	88.595	811.523	89.6838	811.523	88.9747	811.523	89.591	811.523	89.3174	811.523	89.5671	811.523	89.5127
840.82	93.6448	840.82	93.2702	840.82	93.9246	840.82	92.8477	840.82	94.0697	840.82	92.4185	840.82	94.0524	840.82	92.0046	840.82	93.8559	840.82	91.6027	840.82	93.4687	840.82	91.1909	840.82	92.8823	840.82	90.7451	840.82	92.098	840.82	90.2554	840.82	91.1539	840.82	89.7337	840.82	90.1681	840.82	89.2113	840.82	89.3571	840.82	88.7325	840.82	88.9239	840.82	88.3531	840.82	88.8625	840.82	88.14	840.82	88.974	840.82	88.1491	840.82	89.0841	840.82	88.3731	840.82	89.1525	840.82	88.7136	840.82	89.2111	840.82	89.0284	840.82	89.2544	840.82	89.2139
870.117	93.3795	870.117	93.0404	870.117	93.6381	870.117	92.6516	870.117	93.7962	870.117	92.2541	870.117	93.8342	870.117	91.8843	870.117	93.721	870.117	91.5558	870.117	93.4101	870.117	91.2505	870.117	92.8506	870.117	90.9282	870.117	92.0158	870.117	90.5465	870.117	90.9592	870.117	90.0786	870.117	89.899	870.117	89.5234	870.117	89.207	870.117	88.9211	870.117	89.0715	870.117	88.3819	870.117	89.2345	870.117	88.0918	870.117	89.346	870.117	88.2083	870.117	89.3154	870.117	88.6832	870.117	89.2969	870.117	89.2669	870.117	89.4501	870.117	89.7004	870.117	89.7069	870.117	89.8438
902.344	93.5517	902.344	93.1458	902.344	93.8252	902.344	92.6499	902.344	93.9378	902.344	92.1193	902.344	93.8726	902.344	91.6126	902.344	93.6195	902.344	91.1719	902.344	93.1709	902.344	90.8029	902.344	92.5194	902.344	90.4715	902.344	91.666	902.344	90.1265	902.344	90.6566	902.344	89.7272	902.344	89.6516	902.344	89.2568	902.344	88.9529	902.344	88.7267	902.344	88.7923	902.344	88.1899	902.344	89.0389	902.344	87.7689	902.344	89.3577	902.344	87.6431	902.344	89.555	902.344	87.9177	902.344	89.6435	902.344	88.4809	902.344	89.6943	902.344	89.0773	902.344	89.6829	902.344	89.4996
931.641	93.9367	931.641	93.5838	931.641	94.1528	931.641	93.1233	931.641	94.2035	931.641	92.5776	931.641	94.0676	931.641	91.9681	931.641	93.7323	931.641	91.3318	931.641	93.1869	931.641	90.7359	931.641	92.4189	931.641	90.2635	931.641	91.4252	931.641	89.9632	931.641	90.2599	931.641	89.7948	931.641	89.1289	931.641	89.6351	931.641	88.4184	931.641	89.3422	931.641	88.3796	931.641	88.8344	931.641	88.7833	931.641	88.1718	931.641	89.2314	931.641	87.6337	931.641	89.5406	931.641	87.6133	931.641	89.7337	931.641	88.1791	931.641	89.8551	931.641	88.9537	931.641	89.8389	931.641	89.5553
966.797	94.0024	966.797	93.7488	966.797	94.104	966.797	93.3614	966.797	94.0676	966.797	92.8934	966.797	93.9165	966.797	92.4088	966.797	93.653	966.797	91.9423	966.797	93.2426	966.797	91.4734	966.797	92.6263	966.797	90.9466	966.797	91.7523	966.797	90.3279	966.797	90.6187	966.797	89.6567	966.797	89.3321	966.797	89.0509	966.797	88.1659	966.797	88.6344	966.797	87.4654	966.797	88.4306	966.797	87.3292	966.797	88.3568	966.797	87.5633	966.797	88.3393	966.797	87.9925	966.797	88.3984	966.797	88.519	966.797	88.5966	966.797	88.9908	966.797	88.9077	966.797	89.2334	966.797	89.1788
999.023	93.5876	999.023	93.3891	999.023	93.6574	999.023	93.0508	999.023	93.6179	999.023	92.593	999.023	93.4789	999.023	92.0831	999.023	93.2281	999.023	91.6062	999.023	92.8294	999.023	91.1872	999.023	92.2294	999.023	90.7602	999.023	91.3704	999.023	90.241	999.023	90.23	999.023	89.6095	999.023	88.9191	999.023	88.9299	999.023	87.7945	999.023	88.326	999.023	87.2728	999.023	87.9285	999.023	87.3094	999.023	87.8132	999.023	87.5323	999.023	87.9768	999.023	87.8073	999.023	88.3565	999.023	88.2434	999.023	88.8379	999.023	88.8189	999.023	89.2581	999.023	89.289	999.023	89.4453
1,034.18	93.4452	1,034.18	93.2124	1,034.18	93.464	1,034.18	92.7505	1,034.18	93.3117	1,034.18	92.0949	1,034.18	93.0414	1,034.18	91.3574	1,034.18	92.692	1,034.18	90.7007	1,034.18	92.2597	1,034.18	90.223	1,034.18	91.6872	1,034.18	89.8783	1,034.18	90.8822	1,034.18	89.5658	1,034.18	89.7752	1,034.18	89.248	1,034.18	88.4403	1,034.18	88.9535	1,034.18	87.238	1,034.18	88.7033	1,034.18	86.61	1,034.18	88.4753	1,034.18	86.476	1,034.18	88.2637	1,034.18	86.4514	1,034.18	88.1554	1,034.18	86.5726	1,034.18	88.2848	1,034.18	87.1779	1,034.18	88.6558	1,034.18	88.135	1,034.18	89.0621	1,034.18	88.9151	1,034.18	89.2179
1,072.27	93.3557	1,072.27	93.261	1,072.27	93.267	1,072.27	92.9071	1,072.27	93.0646	1,072.27	92.245	1,072.27	92.7945	1,072.27	91.319	1,072.27	92.4656	1,072.27	90.343	1,072.27	92.0443	1,072.27	89.6348	1,072.27	91.4632	1,072.27	89.2886	1,072.27	90.6422	1,072.27	89.0364	1,072.27	89.5355	1,072.27	88.5669	1,072.27	88.2386	1,072.27	87.7964	1,072.27	87.1078	1,072.27	86.938	1,072.27	86.5406	1,072.27	86.4115	1,072.27	86.3984	1,072.27	86.4604	1,072.27	86.209	1,072.27	86.9094	1,072.27	85.9629	1,072.27	87.4872	1,072.27	86.2816	1,072.27	88.0585	1,072.27	87.2959	1,072.27	88.5116	1,072.27	88.2464	1,072.27	88.6465
1,110.35	93.2325	1,110.35	93.1546	1,110.35	93.101	1,110.35	92.813	1,110.35	92.7824	1,110.35	92.1373	1,110.35	92.2864	1,110.35	91.1056	1,110.35	91.6349	1,110.35	89.8364	1,110.35	90.8638	1,110.35	88.624	1,110.35	89.999	1,110.35	87.7515	1,110.35	89.0289	1,110.35	87.1977	1,110.35	87.9259	1,110.35	86.7282	1,110.35	86.7662	1,110.35	86.2174	1,110.35	85.8776	1,110.35	85.7628	1,110.35	85.6258	1,110.35	85.5831	1,110.35	85.8293	1,110.35	85.7958	1,110.35	85.9596	1,110.35	86.3132	1,110.35	85.9121	1,110.35	86.9864	1,110.35	86.2117	1,110.35	87.6879	1,110.35	87.114	1,110.35	88.2418	1,110.35	88.0197	1,110.35	88.4141
1,148.44	93.1952	1,148.44	93.2437	1,148.44	92.9704	1,148.44	93.0196	1,148.44	92.6206	1,148.44	92.4152	1,148.44	92.1488	1,148.44	91.3646	1,148.44	91.5363	1,148.44	89.9329	1,148.44	90.7692	1,148.44	88.4404	1,148.44	89.8261	1,148.44	87.4123	1,148.44	88.6442	1,148.44	87.042	1,148.44	87.147	1,148.44	86.9264	1,148.44	85.4493	1,148.44	86.5972	1,148.44	84.213	1,148.44	85.8906	1,148.44	84.2063	1,148.44	85.1266	1,148.44	84.8822	1,148.44	85.0796	1,148.44	85.2539	1,148.44	85.9203	1,148.44	85.1692	1,148.44	86.9308	1,148.44	85.2983	1,148.44	87.6238	1,148.44	86.1255	1,148.44	87.9004	1,148.44	87.1221	1,148.44	87.7469
1,189.45	93.694	1,189.45	93.488	1,189.45	93.45	1,189.45	92.8716	1,189.45	92.8179	1,189.45	91.9406	1,189.45	91.9618	1,189.45	90.7852	1,189.45	91.0619	1,189.45	89.4586	1,189.45	90.1764	1,189.45	88.0452	1,189.45	89.1976	1,189.45	86.8216	1,189.45	87.9449	1,189.45	86.2485	1,189.45	86.3049	1,189.45	86.3987	1,189.45	84.4636	1,189.45	86.6714	1,189.45	83.2243	1,189.45	86.4232	1,189.45	83.2745	1,189.45	85.3257	1,189.45	83.8437	1,189.45	83.6276	1,189.45	84.014	1,189.45	83.1322	1,189.45	83.9306	1,189.45	84.8828	1,189.45	84.5091	1,189.45	86.7262	1,189.45	85.8214	1,189.45	87.6659	1,189.45	87.0462	1,189.45	87.7198
1,230.47	93.8651	1,230.47	93.6819	1,230.47	93.5776	1,230.47	93.0584	1,230.47	92.874	1,230.47	92.094	1,230.47	91.8974	1,230.47	90.9387	1,230.47	90.823	1,230.47	89.7203	1,230.47	89.7707	1,230.47	88.4688	1,230.47	88.7418	1,230.47	87.2213	1,230.47	87.5946	1,230.47	86.2927	1,230.47	86.0994	1,230.47	86.1488	1,230.47	84.132	1,230.47	86.5627	1,230.47	82.1928	1,230.47	86.7391	1,230.47	81.7049	1,230.47	86.138	1,230.47	82.4708	1,230.47	84.7497	1,230.47	82.8245	1,230.47	83.8098	1,230.47	82.6676	1,230.47	84.9841	1,230.47	83.4398	1,230.47	86.7697	1,230.47	85.2909	1,230.47	87.7534	1,230.47	86.9137	1,230.47	87.7712
1,274.41	94.158	1,274.41	94.0281	1,274.41	93.8655	1,274.41	93.4926	1,274.41	93.1815	1,274.41	92.6062	1,274.41	92.2072	1,274.41	91.4896	1,274.41	91.0663	1,274.41	90.3016	1,274.41	89.8276	1,274.41	89.1039	1,274.41	88.4918	1,274.41	87.8306	1,274.41	87.0034	1,274.41	86.5952	1,274.41	85.2607	1,274.41	86.0703	1,274.41	83.282	1,274.41	86.6596	1,274.41	81.7613	1,274.41	87.491	1,274.41	81.9655	1,274.41	87.6355	1,274.41	83.1668	1,274.41	86.6706	1,274.41	83.7555	1,274.41	84.7746	1,274.41	83.4439	1,274.41	83.9262	1,274.41	83.3785	1,274.41	85.4747	1,274.41	84.7279	1,274.41	86.9519	1,274.41	86.4022	1,274.41	87.2609
1,318.36	94.3141	1,318.36	94.4419	1,318.36	93.8824	1,318.36	94.1724	1,318.36	93.2193	1,318.36	93.4581	1,318.36	92.3667	1,318.36	92.391	1,318.36	91.2851	1,318.36	91.1749	1,318.36	89.8675	1,318.36	89.9241	1,318.36	88.1246	1,318.36	88.5359	1,318.36	86.2575	1,318.36	86.9878	1,318.36	84.4414	1,318.36	85.9697	1,318.36	82.6676	1,318.36	86.4133	1,318.36	81.1224	1,318.36	87.5766	1,318.36	80.837	1,318.36	88.2256	1,318.36	82.1134	1,318.36	87.7841	1,318.36	83.2865	1,318.36	86.1982	1,318.36	83.5325	1,318.36	84.6762	1,318.36	83.5967	1,318.36	85.3051	1,318.36	84.7202	1,318.36	86.6568	1,318.36	86.2731	1,318.36	87.0554
1,365.23	93.9912	1,365.23	94.2972	1,365.23	93.4377	1,365.23	94.1639	1,365.23	92.7526	1,365.23	93.4724	1,365.23	91.8951	1,365.23	92.3056	1,365.23	90.7195	1,365.23	90.9858	1,365.23	89.1736	1,365.23	89.8787	1,365.23	87.4603	1,365.23	88.9573	1,365.23	85.8471	1,365.23	87.7977	1,365.23	84.24	1,365.23	86.2734	1,365.23	82.2319	1,365.23	85.4231	1,365.23	79.8451	1,365.23	86.3408	1,365.23	78.9643	1,365.23	87.6668	1,365.23	80.2463	1,365.23	88.0317	1,365.23	81.2126	1,365.23	87.07	1,365.23	81.7097	1,365.23	85.3434	1,365.23	82.9886	1,365.23	84.9077	1,365.23	84.9591	1,365.23	86.0858	1,365.23	86.4566	1,365.23	86.856
1,415.04	93.7424	1,415.04	94.1614	1,415.04	92.9947	1,415.04	94.0491	1,415.04	92.085	1,415.04	93.2947	1,415.04	91.0135	1,415.04	91.98	1,415.04	89.6427	1,415.04	90.4615	1,415.04	87.9612	1,415.04	89.2439	1,415.04	86.341	1,415.04	88.3832	1,415.04	85.231	1,415.04	87.2711	1,415.04	84.4408	1,415.04	85.4679	1,415.04	83.3037	1,415.04	83.7794	1,415.04	81.2033	1,415.04	84.3409	1,415.04	78.2408	1,415.04	86.16	1,415.04	77.5017	1,415.04	87.118	1,415.04	79.292	1,415.04	86.8293	1,415.04	80.2817	1,415.04	85.8773	1,415.04	81.318	1,415.04	85.5027	1,415.04	83.6838	1,415.04	86.1	1,415.04	85.7549	1,415.04	86.5008
1,464.84	93.7159	1,464.84	94.0633	1,464.84	92.8658	1,464.84	93.8512	1,464.84	91.649	1,464.84	93.1185	1,464.84	90.1712	1,464.84	91.9523	1,464.84	88.4336	1,464.84	90.488	1,464.84	86.4939	1,464.84	89.0273	1,464.84	84.7829	1,464.84	87.9532	1,464.84	83.7847	1,464.84	87.1362	1,464.84	83.0874	1,464.84	85.9881	1,464.84	81.7914	1,464.84	84.2703	1,464.84	79.116	1,464.84	83.1175	1,464.84	75.3758	1,464.84	84.0506	1,464.84	76.1221	1,464.84	85.4543	1,464.84	78.0111	1,464.84	86.0106	1,464.84	77.4742	1,464.84	85.8191	1,464.84	78.3384	1,464.84	85.6278	1,464.84	82.1955	1,464.84	85.8642	1,464.84	84.8507	1,464.84	85.8856
1,514.65	94.0457	1,514.65	94.3581	1,514.65	93.0964	1,514.65	94.0504	1,514.65	91.6033	1,514.65	93.2545	1,514.65	89.6604	1,514.65	92.0982	1,514.65	87.3098	1,514.65	90.6023	1,514.65	84.7589	1,514.65	88.863	1,514.65	82.7372	1,514.65	87.3742	1,514.65	81.8003	1,514.65	86.4136	1,514.65	81.3576	1,514.65	85.3208	1,514.65	80.7315	1,514.65	83.502	1,514.65	79.5424	1,514.65	81.6081	1,514.65	77.6451	1,514.65	81.9919	1,514.65	76.0197	1,514.65	83.8525	1,514.65	75.6146	1,514.65	84.9401	1,514.65	74.449	1,514.65	85.1544	1,514.65	75.0319	1,514.65	85.3851	1,514.65	80.4636	1,514.65	85.9162	1,514.65	84.247	1,514.65	85.847
1,570.31	94.1533	1,570.31	94.4775	1,570.31	93.0684	1,570.31	94.1269	1,570.31	91.2417	1,570.31	93.3084	1,570.31	88.7686	1,570.31	92.2384	1,570.31	85.7499	1,570.31	90.9286	1,570.31	82.2127	1,570.31	89.2039	1,570.31	79.0015	1,570.31	87.1904	1,570.31	78.4388	1,570.31	85.6805	1,570.31	79.5567	1,570.31	85.0376	1,570.31	80.2165	1,570.31	84.2698	1,570.31	79.7423	1,570.31	82.476	1,570.31	77.5422	1,570.31	80.7121	1,570.31	72.25	1,570.31	81.8986	1,570.31	70.2472	1,570.31	83.7952	1,570.31	74.1815	1,570.31	84.8369	1,570.31	73.6747	1,570.31	85.6936	1,570.31	78.4147	1,570.31	86.5848	1,570.31	84.0648	1,570.31	86.4475
1,623.05	93.5048	1,623.05	94.1789	1,623.05	92.2392	1,623.05	94.1606	1,623.05	90.4169	1,623.05	93.4481	1,623.05	87.8969	1,623.05	92.21	1,623.05	84.1707	1,623.05	90.6292	1,623.05	78.1499	1,623.05	88.7243	1,623.05	73.9893	1,623.05	86.6447	1,623.05	78.6889	1,623.05	85.2659	1,623.05	81.1534	1,623.05	85.2202	1,623.05	81.5772	1,623.05	85.3561	1,623.05	80.3887	1,623.05	84.433	1,623.05	77.7952	1,623.05	82.2513	1,623.05	73.4279	1,623.05	80.9975	1,623.05	65.1633	1,623.05	82.7246	1,623.05	66.5842	1,623.05	84.328	1,623.05	69.4889	1,623.05	85.1881	1,623.05	77.2275	1,623.05	85.9141	1,623.05	83.3163	1,623.05	85.7663
1,681.64	92.6578	1,681.64	93.7641	1,681.64	91.0644	1,681.64	94.0573	1,681.64	89.1755	1,681.64	93.5367	1,681.64	86.4998	1,681.64	92.4457	1,681.64	81.813	1,681.64	90.8942	1,681.64	71.1471	1,681.64	88.6952	1,681.64	72.5117	1,681.64	85.8176	1,681.64	79.324	1,681.64	83.4461	1,681.64	82.0354	1,681.64	83.592	1,681.64	83.2135	1,681.64	84.8391	1,681.64	83.1223	1,681.64	85.2809	1,681.64	81.5892	1,681.64	84.3389	1,681.64	78.3364	1,681.64	82.2498	1,681.64	72.3846	1,681.64	81.4233	1,681.64	65.049	1,681.64	82.8264	1,681.64	54.301	1,681.64	84.2289	1,681.64	75.0025	1,681.64	85.1217	1,681.64	82.3832	1,681.64	84.9502
1,740.23	92.6279	1,740.23	93.7913	1,740.23	90.5356	1,740.23	93.821	1,740.23	88.1203	1,740.23	93.0331	1,740.23	85.2184	1,740.23	91.9096	1,740.23	80.4375	1,740.23	90.5904	1,740.23	72.4834	1,740.23	88.7679	1,740.23	74.8583	1,740.23	86.1615	1,740.23	79.2542	1,740.23	83.0236	1,740.23	81.8464	1,740.23	81.7336	1,740.23	83.2378	1,740.23	83.9802	1,740.23	83.5596	1,740.23	85.8257	1,740.23	83.2113	1,740.23	85.8982	1,740.23	82.1492	1,740.23	84.4145	1,740.23	79.6114	1,740.23	82.5144	1,740.23	75.6845	1,740.23	82.2451	1,740.23	68.8147	1,740.23	83.4778	1,740.23	73.2485	1,740.23	84.5673	1,740.23	81.6669	1,740.23	84.398
1,801.76	92.9892	1,801.76	94.1252	1,801.76	90.3969	1,801.76	93.9077	1,801.76	87.1137	1,801.76	92.9161	1,801.76	84.2174	1,801.76	91.6383	1,801.76	81.3397	1,801.76	90.1759	1,801.76	79.9207	1,801.76	88.5868	1,801.76	81.393	1,801.76	86.9596	1,801.76	82.7142	1,801.76	85.077	1,801.76	83.6345	1,801.76	82.8196	1,801.76	84.143	1,801.76	82.5209	1,801.76	83.9004	1,801.76	84.5764	1,801.76	83.3707	1,801.76	85.8595	1,801.76	82.8417	1,801.76	85.5534	1,801.76	81.5789	1,801.76	84.0405	1,801.76	79.6732	1,801.76	83.0692	1,801.76	76.0566	1,801.76	83.8941	1,801.76	74.2933	1,801.76	84.8659	1,801.76	81.7003	1,801.76	84.5728
1,866.21	92.5904	1,866.21	93.6725	1,866.21	90.097	1,866.21	93.7504	1,866.21	86.6482	1,866.21	93.3453	1,866.21	83.9333	1,866.21	92.3743	1,866.21	82.9889	1,866.21	90.7904	1,866.21	83.5721	1,866.21	89.2179	1,866.21	84.5315	1,866.21	88.1053	1,866.21	84.9727	1,866.21	86.8302	1,866.21	85.1724	1,866.21	84.6095	1,866.21	85.0973	1,866.21	82.4489	1,866.21	84.4597	1,866.21	83.6998	1,866.21	83.9883	1,866.21	85.9314	1,866.21	83.7076	1,866.21	86.4855	1,866.21	82.2879	1,866.21	85.002	1,866.21	80.4886	1,866.21	82.8274	1,866.21	78.7287	1,866.21	83.3685	1,866.21	75.7442	1,866.21	84.7562	1,866.21	81.3441	1,866.21	84.4789
1,930.66	91.4364	1,930.66	92.913	1,930.66	88.9361	1,930.66	93.7921	1,930.66	86.2095	1,930.66	94.1607	1,930.66	85.2735	1,930.66	93.4344	1,930.66	85.8058	1,930.66	91.5164	1,930.66	86.5612	1,930.66	89.4493	1,930.66	86.8342	1,930.66	88.3453	1,930.66	86.741	1,930.66	87.62	1,930.66	86.8861	1,930.66	85.9771	1,930.66	86.7587	1,930.66	82.7042	1,930.66	85.457	1,930.66	80.0329	1,930.66	84.351	1,930.66	83.2362	1,930.66	84.9352	1,930.66	85.468	1,930.66	84.5249	1,930.66	85.118	1,930.66	82.4367	1,930.66	83.5238	1,930.66	80.8242	1,930.66	83.577	1,930.66	77.0479	1,930.66	84.4376	1,930.66	78.1111	1,930.66	83.1285
2,000.98	91.4614	2,000.98	92.8909	2,000.98	89.1115	2,000.98	94.1059	2,000.98	86.5316	2,000.98	94.7888	2,000.98	86.9731	2,000.98	94.2457	2,000.98	88.2421	2,000.98	92.5462	2,000.98	88.7177	2,000.98	90.4272	2,000.98	88.725	2,000.98	88.3649	2,000.98	88.4048	2,000.98	87.5257	2,000.98	88.136	2,000.98	87.5562	2,000.98	88.1176	2,000.98	86.2701	2,000.98	87.3457	2,000.98	82.7086	2,000.98	85.7106	2,000.98	80.9387	2,000.98	84.9419	2,000.98	83.7635	2,000.98	84.7945	2,000.98	83.9662	2,000.98	83.7574	2,000.98	82.7058	2,000.98	82.3543	2,000.98	84.1241	2,000.98	77.736	2,000.98	85.9251	2,000.98	79.0972	2,000.98	84.7418
2,071.29	91.8443	2,071.29	93.8801	2,071.29	89.2793	2,071.29	95.4088	2,071.29	86.3406	2,071.29	95.3243	2,071.29	86.938	2,071.29	93.7763	2,071.29	89.357	2,071.29	92.4828	2,071.29	91.2348	2,071.29	91.9246	2,071.29	91.765	2,071.29	89.9281	2,071.29	90.4621	2,071.29	85.5577	2,071.29	88.3485	2,071.29	83.2766	2,071.29	88.15	2,071.29	84.898	2,071.29	87.9244	2,071.29	85.0868	2,071.29	85.8035	2,071.29	83.4765	2,071.29	85.6393	2,071.29	84.5046	2,071.29	85.5711	2,071.29	85.8389	2,071.29	82.814	2,071.29	83.9238	2,071.29	82.8785	2,071.29	82.8677	2,071.29	80.1057	2,071.29	86.0996	2,071.29	79.9931	2,071.29	85.9583
2,144.53	90.7422	2,144.53	93.7551	2,144.53	89.4736	2,144.53	95.431	2,144.53	89.4709	2,144.53	95.1954	2,144.53	89.2078	2,144.53	94.0115	2,144.53	89.9816	2,144.53	92.9918	2,144.53	90.9908	2,144.53	91.9314	2,144.53	91.4495	2,144.53	89.6045	2,144.53	91.3254	2,144.53	84.925	2,144.53	90.2911	2,144.53	80.5332	2,144.53	87.8271	2,144.53	81.818	2,144.53	86.977	2,144.53	83.4674	2,144.53	87.3039	2,144.53	83.6667	2,144.53	85.7688	2,144.53	85.9577	2,144.53	83.8155	2,144.53	87.7818	2,144.53	81.48	2,144.53	85.9951	2,144.53	80.6499	2,144.53	83.2798	2,144.53	79.6726	2,144.53	86.4132	2,144.53	75.335	2,144.53	85.5601
2,217.77	91.3344	2,217.77	93.8061	2,217.77	89.1432	2,217.77	94.6497	2,217.77	90.5145	2,217.77	94.7492	2,217.77	91.092	2,217.77	94.4961	2,217.77	90.5415	2,217.77	93.3253	2,217.77	90.4208	2,217.77	90.523	2,217.77	91.4363	2,217.77	87.1124	2,217.77	92.594	2,217.77	84.3141	2,217.77	92.474	2,217.77	80.7943	2,217.77	90.1678	2,217.77	78.9611	2,217.77	87.1592	2,217.77	84.8543	2,217.77	88.0018	2,217.77	86.3963	2,217.77	88.0619	2,217.77	85.7393	2,217.77	83.7978	2,217.77	88.1916	2,217.77	81.425	2,217.77	87.8467	2,217.77	80.9724	2,217.77	83.6469	2,217.77	70.3777	2,217.77	85.0771	2,217.77	78.1958	2,217.77	84.7267
2,296.88	90.6812	2,296.88	94.739	2,296.88	88.2927	2,296.88	95.9066	2,296.88	90.5401	2,296.88	95.6805	2,296.88	92.3722	2,296.88	95.56	2,296.88	93.4758	2,296.88	94.3749	2,296.88	93.6988	2,296.88	90.7255	2,296.88	93.479	2,296.88	87.2507	2,296.88	93.3547	2,296.88	87.1255	2,296.88	92.9841	2,296.88	86.6744	2,296.88	91.1159	2,296.88	83.1921	2,296.88	87.6469	2,296.88	83.398	2,296.88	88.8263	2,296.88	88.1091	2,296.88	91.8576	2,296.88	88.7084	2,296.88	90.4988	2,296.88	87.5422	2,296.88	83.7827	2,296.88	85.3196	2,296.88	81.0453	2,296.88	81.5523	2,296.88	82.7105	2,296.88	82.8363	2,296.88	83.3964	2,296.88	85.5762
2,378.91	90.874	2,378.91	95.5382	2,378.91	87.3174	2,378.91	96.8712	2,378.91	92.6797	2,378.91	97.2282	2,378.91	94.3112	2,378.91	96.6128	2,378.91	94.171	2,378.91	93.9047	2,378.91	93.7887	2,378.91	90.9122	2,378.91	92.8443	2,378.91	90.6154	2,378.91	92.0952	2,378.91	90.5951	2,378.91	92.0947	2,378.91	89.641	2,378.91	90.6312	2,378.91	87.1736	2,378.91	87.2885	2,378.91	83.588	2,378.91	86.8826	2,378.91	82.4396	2,378.91	89.7813	2,378.91	84.9681	2,378.91	89.8808	2,378.91	87.3571	2,378.91	87.8106	2,378.91	87.2079	2,378.91	85.7787	2,378.91	84.4367	2,378.91	83.3463	2,378.91	84.7807	2,378.91	78.647	2,378.91	85.8107
2,460.94	92.2913	2,460.94	95.7723	2,460.94	87.409	2,460.94	97.6953	2,460.94	93.1856	2,460.94	97.3381	2,460.94	95.7013	2,460.94	94.2849	2,460.94	94.8421	2,460.94	93.012	2,460.94	93.7377	2,460.94	93.22	2,460.94	93.2153	2,460.94	90.1604	2,460.94	91.3133	2,460.94	85.7026	2,460.94	89.1731	2,460.94	84.5289	2,460.94	88.7731	2,460.94	84.481	2,460.94	86.2545	2,460.94	83.5524	2,460.94	85.7252	2,460.94	82.3901	2,460.94	90.1134	2,460.94	82.6871	2,460.94	89.8569	2,460.94	85.6688	2,460.94	86.5555	2,460.94	87.1943	2,460.94	85.5476	2,460.94	85.8996	2,460.94	79.413	2,460.94	84.5521	2,460.94	82.1045	2,460.94	85.5417
2,548.83	92.6505	2,548.83	96.1845	2,548.83	87.9759	2,548.83	97.6363	2,548.83	92.8919	2,548.83	96.6317	2,548.83	96.2452	2,548.83	95.2927	2,548.83	96.0336	2,548.83	94.7693	2,548.83	94.3029	2,548.83	92.9777	2,548.83	93.8791	2,548.83	91.0111	2,548.83	93.4185	2,548.83	88.571	2,548.83	90.9997	2,548.83	83.7648	2,548.83	89.8976	2,548.83	82.467	2,548.83	88.3223	2,548.83	85.2335	2,548.83	82.1192	2,548.83	84.556	2,548.83	87.7274	2,548.83	81.3193	2,548.83	90.6955	2,548.83	85.298	2,548.83	87.6313	2,548.83	87.3092	2,548.83	86.7333	2,548.83	85.3009	2,548.83	85.775	2,548.83	82.4949	2,548.83	83.9195	2,548.83	83.6635
2,639.65	93.4323	2,639.65	96.2929	2,639.65	88.6771	2,639.65	96.9713	2,639.65	92.4923	2,639.65	96.8421	2,639.65	96.5536	2,639.65	96.4232	2,639.65	97.3014	2,639.65	94.4468	2,639.65	95.7813	2,639.65	91.1041	2,639.65	94.1179	2,639.65	87.6412	2,639.65	92.9419	2,639.65	85.124	2,639.65	89.5904	2,639.65	86.2466	2,639.65	85.8429	2,639.65	84.3616	2,639.65	86.1729	2,639.65	85.587	2,639.65	86.147	2,639.65	86.3511	2,639.65	85.9319	2,639.65	82.8716	2,639.65	89.2655	2,639.65	83.0466	2,639.65	86.6919	2,639.65	87.0529	2,639.65	85.839	2,639.65	85.5707	2,639.65	86.2048	2,639.65	82.9674	2,639.65	77.9084	2,639.65	82.7103
2,733.4	93.4204	2,733.4	96.2499	2,733.4	90.1455	2,733.4	97.5245	2,733.4	92.4482	2,733.4	97.2955	2,733.4	96.1924	2,733.4	96.2111	2,733.4	97.4182	2,733.4	94.3423	2,733.4	96.5739	2,733.4	91.1321	2,733.4	94.5095	2,733.4	88.898	2,733.4	91.772	2,733.4	89.5661	2,733.4	87.473	2,733.4	89.3525	2,733.4	83.9096	2,733.4	85.8873	2,733.4	86.788	2,733.4	82.3313	2,733.4	87.7176	2,733.4	83.5724	2,733.4	86.8145	2,733.4	83.0385	2,733.4	89.077	2,733.4	83.0732	2,733.4	88.1654	2,733.4	87.1332	2,733.4	83.9261	2,733.4	86.6786	2,733.4	81.1513	2,733.4	81.2257	2,733.4	73.2335	2,733.4	82.4748
2,827.15	93.7288	2,827.15	96.6794	2,827.15	91.0427	2,827.15	97.6569	2,827.15	93.5551	2,827.15	96.9778	2,827.15	96.4907	2,827.15	95.8304	2,827.15	97.3428	2,827.15	93.9892	2,827.15	96.5293	2,827.15	90.8235	2,827.15	94.922	2,827.15	89.137	2,827.15	92.5401	2,827.15	88.0182	2,827.15	87.9709	2,827.15	85.6062	2,827.15	83.1848	2,827.15	80.4474	2,827.15	86.9237	2,827.15	80.1579	2,827.15	88.4634	2,827.15	82.1176	2,827.15	85.5124	2,827.15	80.7664	2,827.15	88.0096	2,827.15	80.6507	2,827.15	89.3899	2,827.15	86.8963	2,827.15	87.2027	2,827.15	88.0526	2,827.15	80.6873	2,827.15	85.2864	2,827.15	78.0203	2,827.15	83.2674
2,926.76	94.2225	2,926.76	96.8117	2,926.76	91.4719	2,926.76	97.1818	2,926.76	94.2695	2,926.76	96.925	2,926.76	96.8799	2,926.76	96.0708	2,926.76	97.498	2,926.76	92.7532	2,926.76	96.5637	2,926.76	90.5542	2,926.76	95.0031	2,926.76	89.0424	2,926.76	92.8329	2,926.76	79.9683	2,926.76	89.5698	2,926.76	75.5715	2,926.76	86.6559	2,926.76	82.7471	2,926.76	86.6878	2,926.76	83.5823	2,926.76	88.928	2,926.76	84.3953	2,926.76	87.7406	2,926.76	83.5533	2,926.76	87.5142	2,926.76	79.3799	2,926.76	88.3271	2,926.76	85.3533	2,926.76	87.1486	2,926.76	86.9998	2,926.76	81.8771	2,926.76	85.3988	2,926.76	81.7851	2,926.76	85.8871
3,032.23	94.7581	3,032.23	96.0036	3,032.23	91.8482	3,032.23	96.5966	3,032.23	94.0318	3,032.23	97.0118	3,032.23	97.1601	3,032.23	94.9143	3,032.23	97.6567	3,032.23	91.8838	3,032.23	96.3118	3,032.23	91.0341	3,032.23	94.458	3,032.23	86.064	3,032.23	92.3968	3,032.23	85.78	3,032.23	90.2883	3,032.23	86.7121	3,032.23	87.4256	3,032.23	84.6323	3,032.23	85.5387	3,032.23	81.9686	3,032.23	86.8281	3,032.23	82.5268	3,032.23	87.9793	3,032.23	83.2122	3,032.23	88.7848	3,032.23	78.4256	3,032.23	87.3379	3,032.23	82.9845	3,032.23	85.8791	3,032.23	86.0027	3,032.23	82.3488	3,032.23	84.913	3,032.23	81.42	3,032.23	85.8458
3,137.7	94.9951	3,137.7	95.8824	3,137.7	93.5069	3,137.7	96.9714	3,137.7	93.7783	3,137.7	96.027	3,137.7	96.8695	3,137.7	93.3384	3,137.7	98.1041	3,137.7	92.0117	3,137.7	97.1836	3,137.7	87.9718	3,137.7	94.9482	3,137.7	86.9167	3,137.7	92.2293	3,137.7	89.6292	3,137.7	90.4953	3,137.7	86.4071	3,137.7	87.4198	3,137.7	79.8943	3,137.7	84.6069	3,137.7	79.7744	3,137.7	86.4068	3,137.7	82.7906	3,137.7	86.8496	3,137.7	84.0693	3,137.7	87.1001	3,137.7	79.4314	3,137.7	86.8324	3,137.7	81.1654	3,137.7	85.0503	3,137.7	85.6794	3,137.7	78.4964	3,137.7	83.3988	3,137.7	83.371	3,137.7	86.7535
3,249.02	94.1157	3,249.02	95.7699	3,249.02	94.2778	3,249.02	96.8659	3,249.02	94.819	3,249.02	95.6114	3,249.02	96.3277	3,249.02	93.8969	3,249.02	97.3437	3,249.02	91.4655	3,249.02	96.8952	3,249.02	89.7718	3,249.02	95.1494	3,249.02	91.0415	3,249.02	93.16	3,249.02	88.3195	3,249.02	91.6968	3,249.02	82.7728	3,249.02	87.8675	3,249.02	83.8772	3,249.02	85.2851	3,249.02	82.5036	3,249.02	86.0516	3,249.02	81.4136	3,249.02	86.1974	3,249.02	84.2654	3,249.02	87.2454	3,249.02	82.4983	3,249.02	87.4593	3,249.02	78.9454	3,249.02	85.5203	3,249.02	85.6047	3,249.02	78.6226	3,249.02	83.0897	3,249.02	85.474	3,249.02	84.5233
3,363.28	93.8402	3,363.28	95.6335	3,363.28	94.1169	3,363.28	96.315	3,363.28	95.3827	3,363.28	95.224	3,363.28	96.811	3,363.28	94.027	3,363.28	97.3538	3,363.28	92.338	3,363.28	96.3844	3,363.28	92.3072	3,363.28	94.8563	3,363.28	90.4744	3,363.28	93.7217	3,363.28	85.5294	3,363.28	92.0633	3,363.28	86.6199	3,363.28	87.3629	3,363.28	85.5415	3,363.28	84.8628	3,363.28	81.3517	3,363.28	84.5574	3,363.28	80.5505	3,363.28	85.7044	3,363.28	84.6444	3,363.28	87.02	3,363.28	83.9061	3,363.28	85.8491	3,363.28	78.0932	3,363.28	83.6586	3,363.28	84.3517	3,363.28	81.4175	3,363.28	83.1749	3,363.28	85.7701	3,363.28	83.0218
3,483.4	94.4228	3,483.4	96.1114	3,483.4	94.6079	3,483.4	95.7717	3,483.4	95.3682	3,483.4	95.1159	3,483.4	96.6069	3,483.4	94.7498	3,483.4	97.3543	3,483.4	93.6365	3,483.4	95.88	3,483.4	92.5593	3,483.4	93.4377	3,483.4	88.9106	3,483.4	92.1072	3,483.4	89.2795	3,483.4	90.0162	3,483.4	88.0854	3,483.4	82.4194	3,483.4	84.0572	3,483.4	79.7034	3,483.4	83.4627	3,483.4	80.2597	3,483.4	81.0244	3,483.4	84.7529	3,483.4	82.6522	3,483.4	86.068	3,483.4	84.6578	3,483.4	82.692	3,483.4	80.3512	3,483.4	80.6379	3,483.4	83.6073	3,483.4	81.632	3,483.4	84.1146	3,483.4	85.2633	3,483.4	82.2086
3,606.45	94.9092	3,606.45	95.8508	3,606.45	94.8273	3,606.45	95.5268	3,606.45	95.9229	3,606.45	95.6022	3,606.45	96.0799	3,606.45	94.807	3,606.45	96.1872	3,606.45	94.249	3,606.45	95.5064	3,606.45	91.8701	3,606.45	93.0449	3,606.45	90.6902	3,606.45	90.3029	3,606.45	89.6291	3,606.45	87.6089	3,606.45	84.5173	3,606.45	77.3127	3,606.45	84.0467	3,606.45	71.3959	3,606.45	83.6327	3,606.45	78.6459	3,606.45	80.9842	3,606.45	84.044	3,606.45	82.8602	3,606.45	87.0159	3,606.45	84.643	3,606.45	83.4648	3,606.45	81.1536	3,606.45	79.8916	3,606.45	82.7126	3,606.45	82.2167	3,606.45	84.1898	3,606.45	83.8649	3,606.45	81.3945
3,732.42	94.8562	3,732.42	95.2237	3,732.42	94.8088	3,732.42	95.8184	3,732.42	95.9438	3,732.42	95.6823	3,732.42	96.2053	3,732.42	95.2938	3,732.42	95.7834	3,732.42	94.546	3,732.42	95.2291	3,732.42	92.5926	3,732.42	92.9249	3,732.42	91.366	3,732.42	88.3759	3,732.42	86.3388	3,732.42	83.6522	3,732.42	84.0998	3,732.42	77.1945	3,732.42	83.5897	3,732.42	73.6632	3,732.42	81.8807	3,732.42	80.3765	3,732.42	81.2836	3,732.42	82.0561	3,732.42	80.5695	3,732.42	86.8943	3,732.42	83.7431	3,732.42	85.1782	3,732.42	81.9184	3,732.42	79.8104	3,732.42	81.6456	3,732.42	80.0072	3,732.42	84.2081	3,732.42	82.8765	3,732.42	81.2904
3,864.26	94.7925	3,864.26	95.5028	3,864.26	95.5452	3,864.26	95.6649	3,864.26	95.8558	3,864.26	96.3661	3,864.26	95.4455	3,864.26	96.1633	3,864.26	95.2031	3,864.26	93.5158	3,864.26	94.3819	3,864.26	91.6364	3,864.26	92.0006	3,864.26	87.1052	3,864.26	88.1758	3,864.26	85.49	3,864.26	84.9662	3,864.26	86.5308	3,864.26	82.4624	3,864.26	83.4336	3,864.26	82.7906	3,864.26	82.4702	3,864.26	82.7045	3,864.26	81.5068	3,864.26	83.0319	3,864.26	79.1064	3,864.26	86.6483	3,864.26	83.2327	3,864.26	84.9595	3,864.26	82.7853	3,864.26	78.1	3,864.26	80.689	3,864.26	77.5853	3,864.26	84.9306	3,864.26	83.2877	3,864.26	83.3087
3,999.02	94.9913	3,999.02	95.4548	3,999.02	95.662	3,999.02	96.4023	3,999.02	96.5643	3,999.02	97.4494	3,999.02	95.4022	3,999.02	95.6761	3,999.02	94.3392	3,999.02	93.5927	3,999.02	94.2915	3,999.02	90.8468	3,999.02	92.5253	3,999.02	89.0705	3,999.02	89.4063	3,999.02	88.6692	3,999.02	85.8273	3,999.02	84.2644	3,999.02	79.2457	3,999.02	82.1213	3,999.02	82.9225	3,999.02	82.3013	3,999.02	85.6101	3,999.02	81.6554	3,999.02	82.9714	3,999.02	78.9184	3,999.02	86.7033	3,999.02	81.4506	3,999.02	83.9245	3,999.02	83.4107	3,999.02	72.4699	3,999.02	80.7189	3,999.02	77.2467	3,999.02	84.1646	3,999.02	83.7296	3,999.02	83.2535
4,139.65	95.2019	4,139.65	94.5271	4,139.65	95.6645	4,139.65	96.939	4,139.65	96.6995	4,139.65	97.5137	4,139.65	96.1241	4,139.65	95.3304	4,139.65	94.3355	4,139.65	92.5688	4,139.65	93.8209	4,139.65	89.0864	4,139.65	92.545	4,139.65	90.6206	4,139.65	89.0005	4,139.65	85.1661	4,139.65	81.2662	4,139.65	83.4173	4,139.65	82.3073	4,139.65	83.1304	4,139.65	82.5748	4,139.65	80.506	4,139.65	84.1175	4,139.65	81.4153	4,139.65	83.527	4,139.65	79.2687	4,139.65	88.1235	4,139.65	78.7409	4,139.65	84.4647	4,139.65	82.5294	4,139.65	67.7188	4,139.65	81.2493	4,139.65	80.1151	4,139.65	83.5999	4,139.65	84.2471	4,139.65	83.6478
4,286.13	95.1387	4,286.13	94.2799	4,286.13	96.549	4,286.13	97.423	4,286.13	96.4282	4,286.13	97.5764	4,286.13	95.7886	4,286.13	95.1612	4,286.13	94.1909	4,286.13	91.1434	4,286.13	92.9624	4,286.13	91.615	4,286.13	92.145	4,286.13	87.9522	4,286.13	88.0733	4,286.13	89.1323	4,286.13	84.8183	4,286.13	88.8215	4,286.13	87.7784	4,286.13	81.4967	4,286.13	87.1697	4,286.13	81.8808	4,286.13	81.7199	4,286.13	82.1846	4,286.13	79.9381	4,286.13	80.5393	4,286.13	87.9173	4,286.13	80.2448	4,286.13	83.6358	4,286.13	82.5129	4,286.13	63.0415	4,286.13	81.564	4,286.13	81.9459	4,286.13	82.8155	4,286.13	85.4294	4,286.13	82.9238
4,438.48	94.4036	4,438.48	94.3536	4,438.48	97.0643	4,438.48	98.4786	4,438.48	96.6926	4,438.48	97.9274	4,438.48	94.5221	4,438.48	93.9381	4,438.48	92.3167	4,438.48	92.418	4,438.48	91.9695	4,438.48	89.9243	4,438.48	91.9329	4,438.48	90.0836	4,438.48	89.3422	4,438.48	89.9685	4,438.48	90.049	4,438.48	84.2779	4,438.48	89.4578	4,438.48	85.584	4,438.48	87.4275	4,438.48	80.8912	4,438.48	83.2203	4,438.48	80.6684	4,438.48	73.2222	4,438.48	82.6577	4,438.48	86.0753	4,438.48	79.2319	4,438.48	82.7113	4,438.48	82.4782	4,438.48	76.8995	4,438.48	82.695	4,438.48	81.3744	4,438.48	85.0907	4,438.48	86.0079	4,438.48	84.8458
4,593.75	93.524	4,593.75	94.8402	4,593.75	97.5027	4,593.75	98.9327	4,593.75	97.3279	4,593.75	97.1134	4,593.75	94.6694	4,593.75	94.2393	4,593.75	91.9757	4,593.75	92.0511	4,593.75	91.6618	4,593.75	91.6116	4,593.75	92.3427	4,593.75	91.4074	4,593.75	92.3714	4,593.75	83.7574	4,593.75	92.7034	4,593.75	85.8653	4,593.75	88.7125	4,593.75	85.2047	4,593.75	87.0363	4,593.75	80.616	4,593.75	88.0313	4,593.75	77.6636	4,593.75	78.1854	4,593.75	81.6583	4,593.75	83.976	4,593.75	79.4284	4,593.75	82.7287	4,593.75	81.4939	4,593.75	80.0972	4,593.75	82.1442	4,593.75	80.7284	4,593.75	84.4424	4,593.75	82.6945	4,593.75	83.856
4,757.81	90.9443	4,757.81	96.6448	4,757.81	97.8463	4,757.81	98.6663	4,757.81	98.5362	4,757.81	95.802	4,757.81	96.2616	4,757.81	94.7036	4,757.81	93.3145	4,757.81	93.0817	4,757.81	91.7096	4,757.81	92.3218	4,757.81	91.3921	4,757.81	85.8317	4,757.81	92.1062	4,757.81	88.8777	4,757.81	92.3395	4,757.81	84.4351	4,757.81	87.4039	4,757.81	82.4433	4,757.81	87.0562	4,757.81	83.0504	4,757.81	88.0941	4,757.81	76.518	4,757.81	81.2596	4,757.81	78.9817	4,757.81	83.1461	4,757.81	78.3729	4,757.81	84.0414	4,757.81	78.8266	4,757.81	78.9295	4,757.81	81.0882	4,757.81	82.954	4,757.81	80.4501	4,757.81	82.9674	4,757.81	82.0229
4,924.8	90.6063	4,924.8	97.1493	4,924.8	96.6887	4,924.8	97.8649	4,924.8	98.5059	4,924.8	96.2775	4,924.8	95.6222	4,924.8	94.5581	4,924.8	92.3613	4,924.8	93.1294	4,924.8	93.13	4,924.8	89.1235	4,924.8	92.2445	4,924.8	89.5259	4,924.8	93.8799	4,924.8	87.4714	4,924.8	91.9782	4,924.8	83.0748	4,924.8	87.7465	4,924.8	83.465	4,924.8	89.2924	4,924.8	82.5481	4,924.8	87.7279	4,924.8	82.1138	4,924.8	82.5775	4,924.8	78.6641	4,924.8	83.7581	4,924.8	78.4174	4,924.8	86.6862	4,924.8	80.3701	4,924.8	76.3518	4,924.8	82.6023	4,924.8	81.4979	4,924.8	83.1268	4,924.8	84.8509	4,924.8	84.3355
5,097.66	91.121	5,097.66	96.798	5,097.66	95.8391	5,097.66	97.4278	5,097.66	97.9451	5,097.66	95.5946	5,097.66	95.3323	5,097.66	95.2822	5,097.66	91.6831	5,097.66	91.7089	5,097.66	92.0604	5,097.66	89.362	5,097.66	93.8739	5,097.66	87.6911	5,097.66	95.4616	5,097.66	86.764	5,097.66	91.6577	5,097.66	87.4029	5,097.66	87.5012	5,097.66	82.4105	5,097.66	85.1003	5,097.66	81.8856	5,097.66	83.9044	5,097.66	77.5914	5,097.66	81.2439	5,097.66	79.6296	5,097.66	79.7449	5,097.66	80.0391	5,097.66	83.3151	5,097.66	76.8631	5,097.66	66.8976	5,097.66	80.5705	5,097.66	75.0432	5,097.66	82.4589	5,097.66	82.8651	5,097.66	83.8839
5,279.3	90.2275	5,279.3	96.6976	5,279.3	95.6471	5,279.3	96.0084	5,279.3	97.901	5,279.3	96.3608	5,279.3	95.6925	5,279.3	94.9944	5,279.3	91.6755	5,279.3	91.2526	5,279.3	92.4488	5,279.3	89.4723	5,279.3	95.8985	5,279.3	89.6268	5,279.3	95.1992	5,279.3	90.5573	5,279.3	90.6186	5,279.3	85.2652	5,279.3	87.6639	5,279.3	84.341	5,279.3	84.9938	5,279.3	83.8237	5,279.3	85.3151	5,279.3	81.0999	5,279.3	84.0605	5,279.3	79.012	5,279.3	81.4101	5,279.3	79.7021	5,279.3	79.0286	5,279.3	78.4509	5,279.3	65.3493	5,279.3	80.8934	5,279.3	77.4712	5,279.3	82.4703	5,279.3	83.4876	5,279.3	84.0253
5,463.87	91.953	5,463.87	95.9995	5,463.87	93.504	5,463.87	95.6739	5,463.87	97.9905	5,463.87	97.0615	5,463.87	96.327	5,463.87	93.3213	5,463.87	91.4069	5,463.87	91.7315	5,463.87	95.0951	5,463.87	89.8768	5,463.87	96.7842	5,463.87	90.3651	5,463.87	92.3392	5,463.87	85.8139	5,463.87	87.8883	5,463.87	87.4785	5,463.87	84.2571	5,463.87	83.1096	5,463.87	80.3142	5,463.87	82.8512	5,463.87	84.6451	5,463.87	78.9847	5,463.87	81.6641	5,463.87	76.8918	5,463.87	82.4919	5,463.87	79.6902	5,463.87	75.572	5,463.87	79.2274	5,463.87	71.5212	5,463.87	80.978	5,463.87	75.5719	5,463.87	81.5863	5,463.87	81.8723	5,463.87	81.6792
5,657.23	92.3883	5,657.23	94.6284	5,657.23	92.2753	5,657.23	96.2233	5,657.23	97.1606	5,657.23	96.5057	5,657.23	96.1864	5,657.23	92.7273	5,657.23	92.5093	5,657.23	91.4618	5,657.23	95.8795	5,657.23	91.4967	5,657.23	96.7595	5,657.23	89.3735	5,657.23	91.2177	5,657.23	89.7742	5,657.23	89.2674	5,657.23	86.2308	5,657.23	87.2154	5,657.23	83.1258	5,657.23	83.1127	5,657.23	83.6661	5,657.23	84.1397	5,657.23	80.4738	5,657.23	78.9745	5,657.23	78.8383	5,657.23	83.0166	5,657.23	77.6312	5,657.23	79.8704	5,657.23	77.2075	5,657.23	66.4798	5,657.23	80.5684	5,657.23	80.2449	5,657.23	82.1072	5,657.23	80.221	5,657.23	80.1643
5,856.45	92.4067	5,856.45	94.2574	5,856.45	92.2109	5,856.45	96.784	5,856.45	95.4557	5,856.45	96.003	5,856.45	95.4313	5,856.45	91.2718	5,856.45	92.5287	5,856.45	91.7362	5,856.45	94.7741	5,856.45	90.3801	5,856.45	95.5414	5,856.45	89.781	5,856.45	92.8483	5,856.45	84.2037	5,856.45	91.9334	5,856.45	85.2185	5,856.45	85.5325	5,856.45	83.1617	5,856.45	82.6042	5,856.45	82.1216	5,856.45	79.7899	5,856.45	81.3455	5,856.45	81.8473	5,856.45	78.5297	5,856.45	83.8084	5,856.45	79.0819	5,856.45	82.6628	5,856.45	76.4921	5,856.45	70.2042	5,856.45	79.7126	5,856.45	80.5637	5,856.45	81.6473	5,856.45	80.9735	5,856.45	81.1933
6,061.52	91.5231	6,061.52	94.5525	6,061.52	93.2829	6,061.52	97.545	6,061.52	95.6775	6,061.52	95.14	6,061.52	94.4648	6,061.52	91.3878	6,061.52	90.142	6,061.52	91.1484	6,061.52	92.152	6,061.52	91.2965	6,061.52	93.4986	6,061.52	88.1814	6,061.52	93.5367	6,061.52	89.5278	6,061.52	91.6516	6,061.52	85.8315	6,061.52	85.3855	6,061.52	82.1003	6,061.52	86.2772	6,061.52	82.1868	6,061.52	80.208	6,061.52	81.6726	6,061.52	79.3305	6,061.52	78.3344	6,061.52	80.8882	6,061.52	77.4154	6,061.52	76.0292	6,061.52	76.2672	6,061.52	76.1112	6,061.52	80.3122	6,061.52	81.6855	6,061.52	80.0725	6,061.52	82.1232	6,061.52	81.3262
6,275.39	90.9231	6,275.39	95.4871	6,275.39	93.5287	6,275.39	97.1723	6,275.39	95.6903	6,275.39	93.8804	6,275.39	93.7199	6,275.39	91.002	6,275.39	89.9739	6,275.39	91.6171	6,275.39	91.3642	6,275.39	91.8267	6,275.39	93.2272	6,275.39	90.7669	6,275.39	92.3093	6,275.39	87.3784	6,275.39	88.1413	6,275.39	85.7317	6,275.39	85.6647	6,275.39	83.5656	6,275.39	85.3489	6,275.39	79.8879	6,275.39	78.8524	6,275.39	80.5722	6,275.39	79.0719	6,275.39	78.1601	6,275.39	83.2566	6,275.39	81.453	6,275.39	70.7813	6,275.39	76.3587	6,275.39	77.5384	6,275.39	80.2992	6,275.39	80.302	6,275.39	81.015	6,275.39	78.992	6,275.39	81.9224
6,498.05	90.0651	6,498.05	95.4917	6,498.05	93.2723	6,498.05	97.0143	6,498.05	95.5977	6,498.05	93.0743	6,498.05	94.0986	6,498.05	91.2723	6,498.05	91.9675	6,498.05	91.639	6,498.05	94.0892	6,498.05	92.1889	6,498.05	93.8373	6,498.05	90.309	6,498.05	90.5044	6,498.05	89.1034	6,498.05	82.6188	6,498.05	85.1678	6,498.05	86.8597	6,498.05	82.402	6,498.05	81.487	6,498.05	79.4074	6,498.05	76.0411	6,498.05	80.2234	6,498.05	76.7733	6,498.05	77.6081	6,498.05	83.1362	6,498.05	80.1848	6,498.05	72.8507	6,498.05	79.5488	6,498.05	75.9347	6,498.05	76.692	6,498.05	76.0534	6,498.05	81.977	6,498.05	75.6942	6,498.05	82.1958
6,726.56	90.6333	6,726.56	95.6885	6,726.56	93.681	6,726.56	96.2741	6,726.56	95.9873	6,726.56	91.7833	6,726.56	93.3867	6,726.56	91.8645	6,726.56	90.7719	6,726.56	92.5033	6,726.56	94.4304	6,726.56	91.9779	6,726.56	93.988	6,726.56	90.3452	6,726.56	89.2169	6,726.56	87.2766	6,726.56	83.2931	6,726.56	83.9978	6,726.56	85.787	6,726.56	81.5997	6,726.56	73.2559	6,726.56	79.4955	6,726.56	76.8908	6,726.56	79.4875	6,726.56	71.3142	6,726.56	77.2338	6,726.56	80.267	6,726.56	78.7799	6,726.56	72.3914	6,726.56	79.2839	6,726.56	72.0572	6,726.56	76.5049	6,726.56	73.333	6,726.56	80.5213	6,726.56	76.4486	6,726.56	81.8974
6,963.87	91.2234	6,963.87	95.4752	6,963.87	93.5945	6,963.87	95.0344	6,963.87	96.0936	6,963.87	91.3767	6,963.87	92.8684	6,963.87	92.3186	6,963.87	90.3534	6,963.87	93.0682	6,963.87	93.9631	6,963.87	91.8292	6,963.87	93.1822	6,963.87	89.151	6,963.87	87.1056	6,963.87	86.8133	6,963.87	87.0075	6,963.87	83.0628	6,963.87	84.1271	6,963.87	79.8781	6,963.87	75.2306	6,963.87	77.8655	6,963.87	77.5851	6,963.87	76.0855	6,963.87	73.1821	6,963.87	75.5471	6,963.87	76.6536	6,963.87	77.8359	6,963.87	76.2638	6,963.87	77.3305	6,963.87	74.6133	6,963.87	76.501	6,963.87	66.1898	6,963.87	79.1389	6,963.87	76.005	6,963.87	79.9473
7,209.96	91.2082	7,209.96	95.3325	7,209.96	93.2827	7,209.96	94.301	7,209.96	95.5492	7,209.96	90.9937	7,209.96	92.8874	7,209.96	92.2197	7,209.96	90.5177	7,209.96	92.9276	7,209.96	92.8246	7,209.96	90.5417	7,209.96	91.4805	7,209.96	86.6809	7,209.96	89.4981	7,209.96	81.5483	7,209.96	89.4757	7,209.96	81.3683	7,209.96	78.1147	7,209.96	78.2045	7,209.96	80.0551	7,209.96	75.7869	7,209.96	81.5128	7,209.96	73.0919	7,209.96	77.1986	7,209.96	68.5915	7,209.96	68.7179	7,209.96	75.6516	7,209.96	75.8979	7,209.96	74.607	7,209.96	73.0208	7,209.96	73.0913	7,209.96	73.6665	7,209.96	77.6467	7,209.96	76.0147	7,209.96	78.2838
7,464.84	91.8535	7,464.84	95.2424	7,464.84	93.0931	7,464.84	93.2417	7,464.84	95.4753	7,464.84	91.0455	7,464.84	92.8223	7,464.84	93.0177	7,464.84	89.6217	7,464.84	92.6093	7,464.84	92.0816	7,464.84	87.4193	7,464.84	89.8132	7,464.84	85.116	7,464.84	91.6846	7,464.84	81.3113	7,464.84	89.0418	7,464.84	79.4533	7,464.84	79.3342	7,464.84	76.6291	7,464.84	82.8494	7,464.84	76.2997	7,464.84	81.0449	7,464.84	74.2729	7,464.84	72.9634	7,464.84	71.065	7,464.84	63.3171	7,464.84	72.2825	7,464.84	68.9325	7,464.84	75.3231	7,464.84	73.0408	7,464.84	66.8413	7,464.84	75.0637	7,464.84	76.5197	7,464.84	73.8895	7,464.84	75.7663
7,728.52	92.4043	7,728.52	95.1129	7,728.52	92.5345	7,728.52	92.4498	7,728.52	95.043	7,728.52	91.6811	7,728.52	92.2437	7,728.52	93.3771	7,728.52	89.1126	7,728.52	91.1917	7,728.52	90.4103	7,728.52	86.3385	7,728.52	88.9566	7,728.52	84.0264	7,728.52	91.4422	7,728.52	82.4067	7,728.52	86.5566	7,728.52	81.5186	7,728.52	80.7946	7,728.52	77.9967	7,728.52	81.5669	7,728.52	75.424	7,728.52	80.7435	7,728.52	74.2519	7,728.52	72.2718	7,728.52	72.1723	7,728.52	75.1448	7,728.52	69.7123	7,728.52	66.4663	7,728.52	74.9675	7,728.52	69.7156	7,728.52	71.8236	7,728.52	74.9586	7,728.52	72.8062	7,728.52	73.5961	7,728.52	75.6119
8,000.98	93.3649	8,000.98	95.1055	8,000.98	93.1439	8,000.98	92.274	8,000.98	94.5356	8,000.98	92.6921	8,000.98	92.237	8,000.98	92.7193	8,000.98	89.9258	8,000.98	89.7548	8,000.98	89.6047	8,000.98	85.887	8,000.98	89.5048	8,000.98	85.1143	8,000.98	89.5619	8,000.98	80.8596	8,000.98	81.9578	8,000.98	80.335	8,000.98	80.4687	8,000.98	77.7037	8,000.98	79.9407	8,000.98	75.0809	8,000.98	79.9904	8,000.98	73.8747	8,000.98	68.0935	8,000.98	73.364	8,000.98	74.2699	8,000.98	68.1635	8,000.98	65.95	8,000.98	73.4355	8,000.98	71.1308	8,000.98	71.6189	8,000.98	69.8889	8,000.98	73.6496	8,000.98	72.1483	8,000.98	75.6405
8,282.23	93.8776	8,282.23	94.977	8,282.23	93.6895	8,282.23	91.98	8,282.23	94.731	8,282.23	92.6581	8,282.23	92.1097	8,282.23	91.8641	8,282.23	89.7313	8,282.23	89.0658	8,282.23	89.5687	8,282.23	86.0382	8,282.23	88.7598	8,282.23	84.2924	8,282.23	82.7753	8,282.23	81.955	8,282.23	69.4675	8,282.23	78.8194	8,282.23	79.3186	8,282.23	76.807	8,282.23	79.5658	8,282.23	73.1117	8,282.23	76.7098	8,282.23	71.8564	8,282.23	64.8037	8,282.23	72.7658	8,282.23	74.3658	8,282.23	69.3544	8,282.23	65.85	8,282.23	71.6868	8,282.23	69.7724	8,282.23	71.7246	8,282.23	65.0306	8,282.23	74.0683	8,282.23	72.3903	8,282.23	76.1499
8,575.2	94.1971	8,575.2	94.5099	8,575.2	93.8686	8,575.2	91.8925	8,575.2	94.2852	8,575.2	92.5328	8,575.2	91.5989	8,575.2	90.9995	8,575.2	89.3653	8,575.2	88.4582	8,575.2	89.7428	8,575.2	85.6592	8,575.2	86.8842	8,575.2	83.8811	8,575.2	77.8559	8,575.2	81.8395	8,575.2	82.1462	8,575.2	78.8455	8,575.2	79.6632	8,575.2	75.6055	8,575.2	77.3732	8,575.2	73.8119	8,575.2	73.4874	8,575.2	72.0383	8,575.2	68.8296	8,575.2	70.8842	8,575.2	73.167	8,575.2	70.3457	8,575.2	71.5516	8,575.2	70.8051	8,575.2	70.9154	8,575.2	68.0973	8,575.2	65.4051	8,575.2	73.2104	8,575.2	71.6214	8,575.2	75.6582
8,876.95	93.944	8,876.95	93.8835	8,876.95	94.1778	8,876.95	91.9891	8,876.95	93.8034	8,876.95	92.2136	8,876.95	91.048	8,876.95	90.4025	8,876.95	88.957	8,876.95	87.2923	8,876.95	87.8047	8,876.95	85.3669	8,876.95	84.9396	8,876.95	83.2576	8,876.95	82.5017	8,876.95	80.5899	8,876.95	85.4228	8,876.95	78.1437	8,876.95	80.4965	8,876.95	75.7033	8,876.95	79.348	8,876.95	72.0822	8,876.95	66.7223	8,876.95	72.1666	8,876.95	71.1402	8,876.95	71.0908	8,876.95	70.5242	8,876.95	69.3243	8,876.95	68.6068	8,876.95	70.5422	8,876.95	68.677	8,876.95	67.5306	8,876.95	66.062	8,876.95	71.4608	8,876.95	70.296	8,876.95	75.1027
9,190.43	93.4096	9,190.43	93.4685	9,190.43	93.9106	9,190.43	91.771	9,190.43	93.5425	9,190.43	92.129	9,190.43	90.9988	9,190.43	89.8652	9,190.43	88.792	9,190.43	87.1095	9,190.43	87.4389	9,190.43	85.0107	9,190.43	84.9983	9,190.43	83.5434	9,190.43	84.5869	9,190.43	80.7706	9,190.43	85.6352	9,190.43	77.562	9,190.43	81.6829	9,190.43	75.9737	9,190.43	81.1404	9,190.43	70.8797	9,190.43	70.8757	9,190.43	71.2181	9,190.43	71.7817	9,190.43	71.6584	9,190.43	60.8157	9,190.43	69.6854	9,190.43	67.2664	9,190.43	71.7988	9,190.43	70.8087	9,190.43	68.5076	9,190.43	62.2934	9,190.43	65.2935	9,190.43	68.5738	9,190.43	72.4341
9,512.7	93.3567	9,512.7	93.3371	9,512.7	93.9535	9,512.7	91.8674	9,512.7	92.6768	9,512.7	91.5669	9,512.7	90.0392	9,512.7	89.254	9,512.7	88.8498	9,512.7	87.1881	9,512.7	88.3231	9,512.7	84.8327	9,512.7	84.8601	9,512.7	84.0279	9,512.7	84.7635	9,512.7	81.9896	9,512.7	83.7027	9,512.7	77.9287	9,512.7	79.4562	9,512.7	74.8227	9,512.7	77.5548	9,512.7	69.9931	9,512.7	66.5589	9,512.7	68.819	9,512.7	73.8236	9,512.7	68.3848	9,512.7	51.2069	9,512.7	69.7878	9,512.7	67.6044	9,512.7	70.3146	9,512.7	70.7935	9,512.7	70.585	9,512.7	58.9355	9,512.7	61.2763	9,512.7	69.0538	9,512.7	71.9417
9,849.61	92.9441	9,849.61	93.719	9,849.61	93.8075	9,849.61	91.532	9,849.61	92.9283	9,849.61	90.6753	9,849.61	89.8864	9,849.61	88.5375	9,849.61	88.681	9,849.61	87.1947	9,849.61	87.3819	9,849.61	85.506	9,849.61	85.6898	9,849.61	83.4711	9,849.61	81.5484	9,849.61	79.7023	9,849.61	81.7062	9,849.61	76.808	9,849.61	72.3336	9,849.61	73.9895	9,849.61	76.4208	9,849.61	64.1844	9,849.61	65.1058	9,849.61	66.6447	9,849.61	73.396	9,849.61	66.6402	9,849.61	68.1213	9,849.61	67.5758	9,849.61	66.0153	9,849.61	67.1379	9,849.61	66.0774	9,849.61	69.2959	9,849.61	58.5098	9,849.61	66.2311	9,849.61	67.6869	9,849.61	71.4078
10,195.3	93.1413	10,195.3	94.1516	10,195.3	93.5911	10,195.3	90.8264	10,195.3	92.4381	10,195.3	90.62	10,195.3	89.4867	10,195.3	87.2682	10,195.3	88.2768	10,195.3	87.3816	10,195.3	88.1254	10,195.3	84.9977	10,195.3	83.8008	10,195.3	81.5057	10,195.3	81.0171	10,195.3	77.2182	10,195.3	80.5812	10,195.3	74.4347	10,195.3	76.8738	10,195.3	73.8471	10,195.3	80.255	10,195.3	62.4001	10,195.3	66.6257	10,195.3	66.8209	10,195.3	72.6469	10,195.3	67.2294	10,195.3	69.496	10,195.3	66.5005	10,195.3	67.0549	10,195.3	67.9915	10,195.3	69.7142	10,195.3	59.2938	10,195.3	62.7307	10,195.3	67.6691	10,195.3	65.8759	10,195.3	71.2379
10,555.7	93.2461	10,555.7	93.9611	10,555.7	93.4697	10,555.7	90.5292	10,555.7	92.1636	10,555.7	90.613	10,555.7	89.57	10,555.7	85.9651	10,555.7	87.7785	10,555.7	87.7902	10,555.7	88.0047	10,555.7	83.2505	10,555.7	82.079	10,555.7	79.3387	10,555.7	80.7188	10,555.7	78.1002	10,555.7	79.1388	10,555.7	73.434	10,555.7	78.9823	10,555.7	73.5404	10,555.7	80.1513	10,555.7	68.0332	10,555.7	67.2178	10,555.7	66.5834	10,555.7	69.9988	10,555.7	67.1416	10,555.7	69.0816	10,555.7	67.1943	10,555.7	64.5703	10,555.7	68.4793	10,555.7	70.2421	10,555.7	60.1022	10,555.7	64.4657	10,555.7	69.2035	10,555.7	66.193	10,555.7	70.29
10,927.7	93.2825	10,927.7	93.5912	10,927.7	93.152	10,927.7	90.3774	10,927.7	91.9177	10,927.7	90.6754	10,927.7	89.0337	10,927.7	86.1567	10,927.7	86.8535	10,927.7	87.4842	10,927.7	87.6791	10,927.7	82.2542	10,927.7	82.5291	10,927.7	78.6421	10,927.7	79.9743	10,927.7	77.3352	10,927.7	77.4393	10,927.7	70.4067	10,927.7	75.5647	10,927.7	72.3905	10,927.7	80.8514	10,927.7	67.5145	10,927.7	70.7329	10,927.7	66.242	10,927.7	65.1428	10,927.7	65.637	10,927.7	67.5756	10,927.7	64.4093	10,927.7	68.1648	10,927.7	66.9047	10,927.7	68.4585	10,927.7	67.2803	10,927.7	67.0438	10,927.7	65.8801	10,927.7	63.0382	10,927.7	70.3226
11,314.5	93.4684	11,314.5	93.3389	11,314.5	92.9692	11,314.5	90.6035	11,314.5	91.8841	11,314.5	90.5533	11,314.5	88.2214	11,314.5	87.2046	11,314.5	85.3669	11,314.5	86.6125	11,314.5	86.7978	11,314.5	82.1198	11,314.5	82.3556	11,314.5	75.1635	11,314.5	77.4974	11,314.5	77.3493	11,314.5	74.2449	11,314.5	71.1019	11,314.5	69.4424	11,314.5	70.0078	11,314.5	80.6521	11,314.5	68.6821	11,314.5	69.9869	11,314.5	64.0512	11,314.5	63.4925	11,314.5	66.6338	11,314.5	70.0886	11,314.5	63.8837	11,314.5	69.5196	11,314.5	62.4729	11,314.5	63.9237	11,314.5	68.4402	11,314.5	67.4493	11,314.5	66.024	11,314.5	55.8659	11,314.5	68.2727
11,712.9	93.5941	11,712.9	93.1944	11,712.9	92.576	11,712.9	90.6732	11,712.9	91.7967	11,712.9	90.167	11,712.9	88.3793	11,712.9	87.7884	11,712.9	85.479	11,712.9	85.3351	11,712.9	86.1786	11,712.9	81.398	11,712.9	80.2842	11,712.9	76.0566	11,712.9	79.3057	11,712.9	77.1253	11,712.9	75.1788	11,712.9	72.9682	11,712.9	68.0251	11,712.9	68.0735	11,712.9	80.6072	11,712.9	69.4396	11,712.9	71.5837	11,712.9	62.6621	11,712.9	63.5692	11,712.9	65.3638	11,712.9	69.9916	11,712.9	64.385	11,712.9	68.0214	11,712.9	57.2097	11,712.9	47.4393	11,712.9	68.0744	11,712.9	66.1219	11,712.9	66.0913	11,712.9	52.356	11,712.9	67.409
12,126	93.7923	12,126	92.8041	12,126	92.0857	12,126	90.5973	12,126	91.0511	12,126	89.5472	12,126	87.7144	12,126	88.0271	12,126	85.0075	12,126	82.7066	12,126	84.5664	12,126	81.9632	12,126	79.211	12,126	78.134	12,126	81.7004	12,126	75.0364	12,126	77.2423	12,126	73.4368	12,126	65.0995	12,126	64.3615	12,126	78.9078	12,126	68.0858	12,126	70.7463	12,126	61.65	12,126	67.7262	12,126	64.2192	12,126	66.0439	12,126	60.2867	12,126	65.2042	12,126	62.4039	12,126	45.9807	12,126	64.9135	12,126	67.5412	12,126	66.1344	12,126	59.3935	12,126	62.5453
12,553.7	93.8178	12,553.7	92.0461	12,553.7	92.2914	12,553.7	90.6387	12,553.7	90.7107	12,553.7	88.8101	12,553.7	88.168	12,553.7	87.5295	12,553.7	84.9408	12,553.7	79.8271	12,553.7	84.2496	12,553.7	82.5706	12,553.7	79.4432	12,553.7	78.1654	12,553.7	80.8693	12,553.7	71.3239	12,553.7	75.268	12,553.7	72.198	12,553.7	68.9596	12,553.7	64.5785	12,553.7	73.7386	12,553.7	63.4898	12,553.7	67.4823	12,553.7	56.8138	12,553.7	73.4823	12,553.7	63.9446	12,553.7	53.5976	12,553.7	63.8231	12,553.7	61.4532	12,553.7	66.5623	12,553.7	62.7594	12,553.7	60.6943	12,553.7	64.5413	12,553.7	60.8005	12,553.7	61.8073	12,553.7	60.6872
12,996.1	93.3848	12,996.1	91.288	12,996.1	92.2048	12,996.1	90.4623	12,996.1	90.0533	12,996.1	88.11	12,996.1	87.8048	12,996.1	85.9866	12,996.1	84.9903	12,996.1	81.2725	12,996.1	83.209	12,996.1	80.8037	12,996.1	77.9348	12,996.1	76.9604	12,996.1	78.5854	12,996.1	67.6462	12,996.1	74.8182	12,996.1	68.4609	12,996.1	69.7763	12,996.1	65.8696	12,996.1	70.6815	12,996.1	50.5137	12,996.1	68.7848	12,996.1	55.861	12,996.1	74.838	12,996.1	61.3514	12,996.1	54.4786	12,996.1	63.6389	12,996.1	59.9196	12,996.1	66.3141	12,996.1	65.5027	12,996.1	31.2622	12,996.1	62.139	12,996.1	52.1395	12,996.1	63.3091	12,996.1	60.3451
13,453.1	93.0366	13,453.1	91.1064	13,453.1	91.7636	13,453.1	90.109	13,453.1	89.3847	13,453.1	87.2302	13,453.1	86.9834	13,453.1	84.596	13,453.1	84.8424	13,453.1	82.1868	13,453.1	83.3626	13,453.1	78.6372	13,453.1	78.0223	13,453.1	75.2941	13,453.1	75.9546	13,453.1	68.6743	13,453.1	71.0446	13,453.1	65.8802	13,453.1	71.127	13,453.1	66.1284	13,453.1	69.8742	13,453.1	59.7437	13,453.1	67.3633	13,453.1	61.269	13,453.1	74.1939	13,453.1	62.0529	13,453.1	43.0117	13,453.1	62.3334	13,453.1	62.8317	13,453.1	66.2615	13,453.1	65.3463	13,453.1	53.9999	13,453.1	57.8073	13,453.1	54.242	13,453.1	62.4163	13,453.1	64.0577
13,927.7	92.1827	13,927.7	90.7744	13,927.7	91.1667	13,927.7	89.5931	13,927.7	88.9693	13,927.7	86.7756	13,927.7	86.1795	13,927.7	83.6234	13,927.7	84.4565	13,927.7	82.7636	13,927.7	82.273	13,927.7	77.0722	13,927.7	76.8077	13,927.7	74.0242	13,927.7	76.4839	13,927.7	71.7965	13,927.7	70.8357	13,927.7	66.8617	13,927.7	69.3475	13,927.7	64.2623	13,927.7	63.5031	13,927.7	61.4762	13,927.7	67.5284	13,927.7	61.1124	13,927.7	73.2213	13,927.7	60.7835	13,927.7	43.8508	13,927.7	60.2708	13,927.7	61.9354	13,927.7	65.5778	13,927.7	66.0894	13,927.7	60.7166	13,927.7	47.1894	13,927.7	57.9594	13,927.7	59.647	13,927.7	63.1498
14,419.9	91.2675	14,419.9	90.2177	14,419.9	90.6664	14,419.9	89.0866	14,419.9	88.4778	14,419.9	86.5186	14,419.9	85.6628	14,419.9	83.4923	14,419.9	83.9253	14,419.9	82.6862	14,419.9	82.5048	14,419.9	76.1581	14,419.9	77.3908	14,419.9	73.7578	14,419.9	75.389	14,419.9	72.053	14,419.9	71.5588	14,419.9	67.8132	14,419.9	66.1493	14,419.9	61.7202	14,419.9	63.2757	14,419.9	63.2571	14,419.9	62.6416	14,419.9	59.0001	14,419.9	69.811	14,419.9	60.9677	14,419.9	55.2643	14,419.9	56.0084	14,419.9	55.0323	14,419.9	64.0051	14,419.9	62.3488	14,419.9	63.352	14,419.9	52.7942	14,419.9	54.1305	14,419.9	56.9483	14,419.9	63.3731
14,929.7	90.8097	14,929.7	90.0121	14,929.7	90.3763	14,929.7	88.6943	14,929.7	88.2776	14,929.7	85.7088	14,929.7	85.5895	14,929.7	84.1955	14,929.7	83.2335	14,929.7	80.6416	14,929.7	81.4641	14,929.7	77.8508	14,929.7	77.4353	14,929.7	74.7154	14,929.7	74.2633	14,929.7	71.5609	14,929.7	71.9706	14,929.7	68.5726	14,929.7	66.0903	14,929.7	60.601	14,929.7	61.8683	14,929.7	62.6992	14,929.7	55.1935	14,929.7	60.6797	14,929.7	68.7954	14,929.7	59.6863	14,929.7	55.5577	14,929.7	60.3616	14,929.7	51.1698	14,929.7	62.4217	14,929.7	58.7437	14,929.7	65.0232	14,929.7	58.5268	14,929.7	42.6985	14,929.7	56.8922	14,929.7	62.4597
15,454.1	90.7027	15,454.1	90.1129	15,454.1	90.4108	15,454.1	88.6106	15,454.1	88.2791	15,454.1	85.6419	15,454.1	85.8152	15,454.1	83.992	15,454.1	82.5402	15,454.1	79.4916	15,454.1	82.0475	15,454.1	78.1863	15,454.1	77.3846	15,454.1	74.6744	15,454.1	72.8955	15,454.1	69.9371	15,454.1	70.7152	15,454.1	67.5542	15,454.1	66.9053	15,454.1	57.5665	15,454.1	62.5785	15,454.1	60.4719	15,454.1	57.3991	15,454.1	60.6259	15,454.1	68.1935	15,454.1	56.0358	15,454.1	58.7217	15,454.1	61.3611	15,454.1	55.2903	15,454.1	61.1482	15,454.1	56.2556	15,454.1	65.5374	15,454.1	56.2348	15,454.1	49.1003	15,454.1	54.6218	15,454.1	60.5077
15,999	90.6867	15,999	90.3115	15,999	90.4005	15,999	88.6559	15,999	88.3798	15,999	85.9389	15,999	86.1924	15,999	83.4693	15,999	82.5499	15,999	78.8763	15,999	81.0532	15,999	77.5751	15,999	76.2066	15,999	73.8927	15,999	69.6287	15,999	68.586	15,999	70.0099	15,999	66.2781	15,999	67.2804	15,999	58.8891	15,999	60.6605	15,999	56.8282	15,999	63.0701	15,999	59.5321	15,999	66.681	15,999	44.9273	15,999	53.4504	15,999	61.6232	15,999	56.8324	15,999	55.0096	15,999	52.5615	15,999	64.6408	15,999	57.9074	15,999	44.9127	15,999	58.4898	15,999	55.1968
16,564.5	90.8615	16,564.5	90.5535	16,564.5	90.3127	16,564.5	88.8571	16,564.5	88.4648	16,564.5	86.4608	16,564.5	86.7294	16,564.5	82.8285	16,564.5	82.774	16,564.5	79.407	16,564.5	80.6552	16,564.5	77.0631	16,564.5	75.6299	16,564.5	72.218	16,564.5	68.0564	16,564.5	66.5455	16,564.5	70.0868	16,564.5	64.0829	16,564.5	68.0266	16,564.5	59.0523	16,564.5	65.1374	16,564.5	53.5958	16,564.5	61.6786	16,564.5	56.141	16,564.5	66.5651	16,564.5	36.9597	16,564.5	55.0659	16,564.5	61.3773	16,564.5	55.5246	16,564.5	51.8231	16,564.5	51.728	16,564.5	63.6366	16,564.5	56.347	16,564.5	42.3016	16,564.5	59.6833	16,564.5	55.9409
17,147.5	91.3539	17,147.5	90.802	17,147.5	90.516	17,147.5	89.0667	17,147.5	88.6862	17,147.5	86.7635	17,147.5	86.8562	17,147.5	82.2516	17,147.5	82.1344	17,147.5	80.3819	17,147.5	80.5063	17,147.5	75.0059	17,147.5	74.0918	17,147.5	70.4793	17,147.5	70.0526	17,147.5	65.8677	17,147.5	69.0769	17,147.5	63.3791	17,147.5	67.1342	17,147.5	57.6097	17,147.5	66.872	17,147.5	49.1149	17,147.5	62.2221	17,147.5	55.6734	17,147.5	68.703	17,147.5	50.124	17,147.5	58.255	17,147.5	59.7593	17,147.5	51.845	17,147.5	53.8851	17,147.5	52.7876	17,147.5	61.8796	17,147.5	55.6139	17,147.5	48.9126	17,147.5	55.5557	17,147.5	55.4624
17,753.9	91.6635	17,753.9	90.9568	17,753.9	90.5388	17,753.9	89.0862	17,753.9	88.9038	17,753.9	86.4405	17,753.9	86.7376	17,753.9	82.0996	17,753.9	82.0879	17,753.9	79.3076	17,753.9	79.4892	17,753.9	73.9796	17,753.9	72.7025	17,753.9	68.5081	17,753.9	67.1668	17,753.9	64.6189	17,753.9	66.0078	17,753.9	60.827	17,753.9	65.8667	17,753.9	55.6581	17,753.9	67.1736	17,753.9	47.4554	17,753.9	60.6688	17,753.9	55.5307	17,753.9	67.4324	17,753.9	52.3704	17,753.9	56.0625	17,753.9	59.214	17,753.9	56.4516	17,753.9	52.8158	17,753.9	56.9389	17,753.9	53.5843	17,753.9	58.23	17,753.9	51.0001	17,753.9	45.6182	17,753.9	57.174
18,377.9	91.393	18,377.9	90.7221	18,377.9	90.0979	18,377.9	89.0074	18,377.9	88.8587	18,377.9	85.7665	18,377.9	86.46	18,377.9	81.8966	18,377.9	81.9566	18,377.9	77.3289	18,377.9	77.0576	18,377.9	72.4212	18,377.9	71.9877	18,377.9	65.878	18,377.9	65.2636	18,377.9	62.9315	18,377.9	65.2485	18,377.9	59.8961	18,377.9	63.5557	18,377.9	57.3911	18,377.9	66.9455	18,377.9	48.3338	18,377.9	62.9189	18,377.9	54.5047	18,377.9	67.2437	18,377.9	53.0692	18,377.9	51.4991	18,377.9	56.6373	18,377.9	56.2187	18,377.9	53.9616	18,377.9	55.977	18,377.9	55.9942	18,377.9	56.5849	18,377.9	45.8981	18,377.9	50.457	18,377.9	58.481
19,028.3	90.8629	19,028.3	90.1354	19,028.3	89.579	19,028.3	88.5281	19,028.3	88.3382	19,028.3	84.9554	19,028.3	85.6416	19,028.3	80.8331	19,028.3	80.6662	19,028.3	75.7346	19,028.3	76.0811	19,028.3	70.5897	19,028.3	68.9912	19,028.3	65.4796	19,028.3	63.2833	19,028.3	60.188	19,028.3	64.3804	19,028.3	56.0915	19,028.3	61.013	19,028.3	56.1241	19,028.3	63.2459	19,028.3	48.812	19,028.3	63.1736	19,028.3	55.0217	19,028.3	67.0688	19,028.3	55.02	19,028.3	49.7766	19,028.3	57.6483	19,028.3	57.5448	19,028.3	47.8536	19,028.3	58.4942	19,028.3	60.2061	19,028.3	57.9297	19,028.3	40.4183	19,028.3	55.7078	19,028.3	58.3591
19,699.2	90.3284	19,699.2	89.3411	19,699.2	89.4172	19,699.2	87.5333	19,699.2	87.8067	19,699.2	83.7199	19,699.2	84.3406	19,699.2	79.0264	19,699.2	78.8422	19,699.2	73.5204	19,699.2	73.788	19,699.2	68.3166	19,699.2	65.9402	19,699.2	63.3227	19,699.2	61.7996	19,699.2	55.6562	19,699.2	61.4219	19,699.2	53.1479	19,699.2	58.0563	19,699.2	56.478	19,699.2	61.7888	19,699.2	49.4219	19,699.2	63.0737	19,699.2	53.8287	19,699.2	66.8641	19,699.2	57.9821	19,699.2	47.3596	19,699.2	56.234	19,699.2	58.2181	19,699.2	41.0627	19,699.2	59.797	19,699.2	61.8084	19,699.2	58.0663	19,699.2	42.8982	19,699.2	58.4903	19,699.2	56.325
19,998	90.2076	19,998	88.8858	19,998	89.6005	19,998	86.8902	19,998	87.6454	19,998	82.9845	19,998	83.4822	19,998	78.0672	19,998	77.9176	19,998	72.3029	19,998	72.926	19,998	67.6744	19,998	64.3329	19,998	62.3448	19,998	63.023	19,998	54.1474	19,998	62.4278	19,998	54.8435	19,998	58.736	19,998	55.243	19,998	62.3011	19,998	49.9155	19,998	62.5664	19,998	53.3333	19,998	66.957	19,998	57.6583	19,998	44.2817	19,998	51.5719	19,998	60.1123	19,998	50.3957	19,998	55.7502	19,998	61.8341	19,998	61.7819	19,998	37.6961	19,998	55.2651	19,998	55.7914
