"SPL Vertical"																																																																							
"On-Axis"		"10°"		"-10°"		"20°"		"-20°"		"30°"		"-30°"		"40°"		"-40°"		"50°"		"-50°"		"60°"		"-60°"		"70°"		"-70°"		"80°"		"-80°"		"90°"		"-90°"		"100°"		"-100°"		"110°"		"-110°"		"120°"		"-120°"		"130°"		"-130°"		"140°"		"-140°"		"150°"		"-150°"		"160°"		"-160°"		"170°"		"-170°"		"180°"	
"Frequency [Hz]"	"Sound Pessure Level [dB]  / [2.83V 1m] "	"Frequency [Hz]"	"Sound Pessure Level [dB]  / [2.83V 1m] "	"Frequency [Hz]"	"Sound Pessure Level [dB]  / [2.83V 1m] "	"Frequency [Hz]"	"Sound Pessure Level [dB]  / [2.83V 1m] "	"Frequency [Hz]"	"Sound Pessure Level [dB]  / [2.83V 1m] "	"Frequency [Hz]"	"Sound Pessure Level [dB]  / [2.83V 1m] "	"Frequency [Hz]"	"Sound Pessure Level [dB]  / [2.83V 1m] "	"Frequency [Hz]"	"Sound Pessure Level [dB]  / [2.83V 1m] "	"Frequency [Hz]"	"Sound Pessure Level [dB]  / [2.83V 1m] "	"Frequency [Hz]"	"Sound Pessure Level [dB]  / [2.83V 1m] "	"Frequency [Hz]"	"Sound Pessure Level [dB]  / [2.83V 1m] "	"Frequency [Hz]"	"Sound Pessure Level [dB]  / [2.83V 1m] "	"Frequency [Hz]"	"Sound Pessure Level [dB]  / [2.83V 1m] "	"Frequency [Hz]"	"Sound Pessure Level [dB]  / [2.83V 1m] "	"Frequency [Hz]"	"Sound Pessure Level [dB]  / [2.83V 1m] "	"Frequency [Hz]"	"Sound Pessure Level [dB]  / [2.83V 1m] "	"Frequency [Hz]"	"Sound Pessure Level [dB]  / [2.83V 1m] "	"Frequency [Hz]"	"Sound Pessure Level [dB]  / [2.83V 1m] "	"Frequency [Hz]"	"Sound Pessure Level [dB]  / [2.83V 1m] "	"Frequency [Hz]"	"Sound Pessure Level [dB]  / [2.83V 1m] "	"Frequency [Hz]"	"Sound Pessure Level [dB]  / [2.83V 1m] "	"Frequency [Hz]"	"Sound Pessure Level [dB]  / [2.83V 1m] "	"Frequency [Hz]"	"Sound Pessure Level [dB]  / [2.83V 1m] "	"Frequency [Hz]"	"Sound Pessure Level [dB]  / [2.83V 1m] "	"Frequency [Hz]"	"Sound Pessure Level [dB]  / [2.83V 1m] "	"Frequency [Hz]"	"Sound Pessure Level [dB]  / [2.83V 1m] "	"Frequency [Hz]"	"Sound Pessure Level [dB]  / [2.83V 1m] "	"Frequency [Hz]"	"Sound Pessure Level [dB]  / [2.83V 1m] "	"Frequency [Hz]"	"Sound Pessure Level [dB]  / [2.83V 1m] "	"Frequency [Hz]"	"Sound Pessure Level [dB]  / [2.83V 1m] "	"Frequency [Hz]"	"Sound Pessure Level [dB]  / [2.83V 1m] "	"Frequency [Hz]"	"Sound Pessure Level [dB]  / [2.83V 1m] "	"Frequency [Hz]"	"Sound Pessure Level [dB]  / [2.83V 1m] "	"Frequency [Hz]"	"Sound Pessure Level [dB]  / [2.83V 1m] "	"Frequency [Hz]"	"Sound Pessure Level [dB]  / [2.83V 1m] "	"Frequency [Hz]"	"Sound Pessure Level [dB]  / [2.83V 1m] "
20.5078	58.5396	20.5078	58.4386	20.5078	58.6362	20.5078	58.3372	20.5078	58.7246	20.5078	58.2395	20.5078	58.8014	20.5078	58.1495	20.5078	58.8639	20.5078	58.0708	20.5078	58.91	20.5078	58.0064	20.5078	58.9384	20.5078	57.9588	20.5078	58.9488	20.5078	57.9295	20.5078	58.9422	20.5078	57.9194	20.5078	58.9207	20.5078	57.9284	20.5078	58.8871	20.5078	57.9557	20.5078	58.8448	20.5078	57.9996	20.5078	58.7969	20.5078	58.0575	20.5078	58.7454	20.5078	58.1263	20.5078	58.6913	20.5078	58.2022	20.5078	58.6344	20.5078	58.2815	20.5078	58.5736	20.5078	58.3606	20.5078	58.5078	20.5078	58.4366
21.9727	60.5796	21.9727	60.4835	21.9727	60.665	21.9727	60.38	21.9727	60.7368	21.9727	60.273	21.9727	60.7931	21.9727	60.1664	21.9727	60.8323	21.9727	60.0641	21.9727	60.8538	21.9727	59.9694	21.9727	60.8576	21.9727	59.8856	21.9727	60.8441	21.9727	59.8149	21.9727	60.814	21.9727	59.7594	21.9727	60.7685	21.9727	59.7204	21.9727	60.7093	21.9727	59.6986	21.9727	60.6382	21.9727	59.6942	21.9727	60.5572	21.9727	59.7072	21.9727	60.4685	21.9727	59.7368	21.9727	60.3745	21.9727	59.7821	21.9727	60.2776	21.9727	59.8416	21.9727	60.1804	21.9727	59.9136	21.9727	60.0855	21.9727	59.9957
23.4375	60.824	23.4375	60.7411	23.4375	60.8985	23.4375	60.6524	23.4375	60.9623	23.4375	60.5613	23.4375	61.0138	23.4375	60.4714	23.4375	61.0517	23.4375	60.3862	23.4375	61.0753	23.4375	60.3093	23.4375	61.0843	23.4375	60.2434	23.4375	61.0787	23.4375	60.1912	23.4375	61.0591	23.4375	60.1544	23.4375	61.027	23.4375	60.1339	23.4375	60.9841	23.4375	60.13	23.4375	60.9325	23.4375	60.1424	23.4375	60.8745	23.4375	60.17	23.4375	60.8119	23.4375	60.211	23.4375	60.7459	23.4375	60.2633	23.4375	60.6773	23.4375	60.3244	23.4375	60.6066	23.4375	60.3916	23.4375	60.5346	23.4375	60.4624
24.9023	60.1417	24.9023	60.0541	24.9023	60.2283	24.9023	59.9679	24.9023	60.3111	24.9023	59.8851	24.9023	60.3871	24.9023	59.8077	24.9023	60.453	24.9023	59.7373	24.9023	60.5052	24.9023	59.6756	24.9023	60.5409	24.9023	59.6239	24.9023	60.5578	24.9023	59.5837	24.9023	60.5548	24.9023	59.5561	24.9023	60.5324	24.9023	59.5418	24.9023	60.4922	24.9023	59.5415	24.9023	60.4369	24.9023	59.5551	24.9023	60.3698	24.9023	59.5824	24.9023	60.2943	24.9023	59.6225	24.9023	60.2136	24.9023	59.6742	24.9023	60.13	24.9023	59.7359	24.9023	60.0458	24.9023	59.8058	24.9023	59.9625	24.9023	59.882
26.3672	61.7745	26.3672	61.6709	26.3672	61.8755	26.3672	61.5686	26.3672	61.9699	26.3672	61.4705	26.3672	62.0536	26.3672	61.3795	26.3672	62.1226	26.3672	61.2976	26.3672	62.1732	26.3672	61.2266	26.3672	62.203	26.3672	61.1678	26.3672	62.2103	26.3672	61.1223	26.3672	62.1952	26.3672	61.0909	26.3672	62.1587	26.3672	61.0739	26.3672	62.1035	26.3672	61.0716	26.3672	62.033	26.3672	61.0836	26.3672	61.9512	26.3672	61.1096	26.3672	61.862	26.3672	61.1485	26.3672	61.7689	26.3672	61.1993	26.3672	61.675	26.3672	61.2606	26.3672	61.5825	26.3672	61.331	26.3672	61.4934	26.3672	61.4091
27.832	62.6038	27.832	62.4999	27.832	62.7029	27.832	62.395	27.832	62.7934	27.832	62.2923	27.832	62.8715	27.832	62.1946	27.832	62.9335	27.832	62.1046	27.832	62.9764	27.832	62.0242	27.832	62.9977	27.832	61.9551	27.832	62.9964	27.832	61.8987	27.832	62.9723	27.832	61.8561	27.832	62.9269	27.832	61.828	27.832	62.8626	27.832	61.8148	27.832	62.7829	27.832	61.8166	27.832	62.6919	27.832	61.8332	27.832	62.5936	27.832	61.8641	27.832	62.492	27.832	61.9085	27.832	62.3904	27.832	61.9653	27.832	62.2917	27.832	62.0334	27.832	62.1981	27.832	62.1115
29.2969	63.1778	29.2969	63.0775	29.2969	63.2713	29.2969	62.9734	29.2969	63.3546	29.2969	62.8687	29.2969	63.4245	29.2969	62.7662	29.2969	63.4778	29.2969	62.6685	29.2969	63.5119	29.2969	62.578	29.2969	63.5246	29.2969	62.4968	29.2969	63.5147	29.2969	62.427	29.2969	63.4821	29.2969	62.3699	29.2969	63.428	29.2969	62.327	29.2969	63.3548	29.2969	62.2993	29.2969	63.2659	29.2969	62.2872	29.2969	63.1654	29.2969	62.2914	29.2969	63.0577	29.2969	62.3116	29.2969	62.9469	29.2969	62.3476	29.2969	62.8369	29.2969	62.3988	29.2969	62.731	29.2969	62.4642	29.2969	62.6321	29.2969	62.5425
30.7617	64.1978	30.7617	64.0854	30.7617	64.3018	30.7617	63.9687	30.7617	64.3932	30.7617	63.8515	30.7617	64.4681	30.7617	63.7376	30.7617	64.5231	30.7617	63.63	30.7617	64.5557	30.7617	63.5316	30.7617	64.564	30.7617	63.4446	30.7617	64.5476	30.7617	63.3709	30.7617	64.5072	30.7617	63.3118	30.7617	64.4445	30.7617	63.2684	30.7617	64.3626	30.7617	63.2413	30.7617	64.2653	30.7617	63.2309	30.7617	64.1569	30.7617	63.2371	30.7617	64.0419	30.7617	63.2598	30.7617	63.9247	30.7617	63.2985	30.7617	63.8091	30.7617	63.3524	30.7617	63.6984	30.7617	63.4207	30.7617	63.5953	30.7617	63.5022
32.2266	64.8631	32.2266	64.7571	32.2266	64.9611	32.2266	64.6468	32.2266	65.0476	32.2266	64.5359	32.2266	65.1191	32.2266	64.4277	32.2266	65.1728	32.2266	64.3255	32.2266	65.2065	32.2266	64.2321	32.2266	65.2186	32.2266	64.1499	32.2266	65.2088	32.2266	64.0811	32.2266	65.1776	32.2266	64.0271	32.2266	65.1266	32.2266	63.9893	32.2266	65.0582	32.2266	63.9682	32.2266	64.9754	32.2266	63.9643	32.2266	64.8816	32.2266	63.9774	32.2266	64.7802	32.2266	64.0071	32.2266	64.6747	32.2266	64.0525	32.2266	64.568	32.2266	64.1125	32.2266	64.4632	32.2266	64.1854	32.2266	64.3629	32.2266	64.2696
33.6914	65.215	33.6914	65.1103	33.6914	65.3143	33.6914	65.0038	33.6914	65.4048	33.6914	64.8986	33.6914	65.4829	33.6914	64.7976	33.6914	65.5452	33.6914	64.7034	33.6914	65.589	33.6914	64.6183	33.6914	65.6119	33.6914	64.5444	33.6914	65.6128	33.6914	64.4833	33.6914	65.5916	33.6914	64.4365	33.6914	65.5492	33.6914	64.4049	33.6914	65.488	33.6914	64.3894	33.6914	65.4108	33.6914	64.3902	33.6914	65.3212	33.6914	64.4074	33.6914	65.2227	33.6914	64.4407	33.6914	65.119	33.6914	64.4891	33.6914	65.0132	33.6914	64.5517	33.6914	64.9085	33.6914	64.627	33.6914	64.8076	33.6914	64.713
35.1562	66.0123	35.1562	65.9053	35.1562	66.1113	35.1562	65.7939	35.1562	66.1987	35.1562	65.6816	35.1562	66.2712	35.1562	65.5716	35.1562	66.3256	35.1562	65.467	35.1562	66.3595	35.1562	65.3705	35.1562	66.3709	35.1562	65.2846	35.1562	66.3593	35.1562	65.2114	35.1562	66.3248	35.1562	65.1526	35.1562	66.269	35.1562	65.1096	35.1562	66.1944	35.1562	65.0833	35.1562	66.1046	35.1562	65.0744	35.1562	66.0034	35.1562	65.083	35.1562	65.8949	35.1562	65.1088	35.1562	65.7829	35.1562	65.1511	35.1562	65.671	35.1562	65.2088	35.1562	65.5623	35.1562	65.2806	35.1562	65.4594	35.1562	65.3648
36.6211	66.6386	36.6211	66.5299	36.6211	66.7419	36.6211	66.4192	36.6211	66.836	36.6211	66.3096	36.6211	66.9172	36.6211	66.2042	36.6211	66.982	36.6211	66.1056	36.6211	67.0273	36.6211	66.016	36.6211	67.0507	36.6211	65.9375	36.6211	67.0509	36.6211	65.8719	36.6211	67.0277	36.6211	65.8206	36.6211	66.982	36.6211	65.7847	36.6211	66.916	36.6211	65.7651	36.6211	66.8327	36.6211	65.7623	36.6211	66.7357	36.6211	65.7764	36.6211	66.629	36.6211	65.8073	36.6211	66.5166	36.6211	65.8545	36.6211	66.4023	36.6211	65.917	36.6211	66.2898	36.6211	65.9937	36.6211	66.1823	36.6211	66.0828
38.0859	67.3568	38.0859	67.2462	38.0859	67.4619	38.0859	67.1337	38.0859	67.5577	38.0859	67.0229	38.0859	67.6402	38.0859	66.9169	38.0859	67.7057	38.0859	66.8183	38.0859	67.7513	38.0859	66.7295	38.0859	67.7745	38.0859	66.6525	38.0859	67.774	38.0859	66.589	38.0859	67.7498	38.0859	66.5402	38.0859	67.703	38.0859	66.5071	38.0859	67.6361	38.0859	66.4902	38.0859	67.5523	38.0859	66.4899	38.0859	67.4553	38.0859	66.5061	38.0859	67.3493	38.0859	66.5385	38.0859	67.2383	38.0859	66.5864	38.0859	67.1259	38.0859	66.649	38.0859	67.0156	38.0859	66.7249	38.0859	66.9103	38.0859	66.8127
39.5508	68.161	39.5508	68.0628	39.5508	68.2515	39.5508	67.96	39.5508	68.3312	39.5508	67.8558	39.5508	68.3971	39.5508	67.7531	39.5508	68.4462	39.5508	67.655	39.5508	68.4758	39.5508	67.564	39.5508	68.4841	39.5508	67.4825	39.5508	68.4698	39.5508	67.4125	39.5508	68.433	39.5508	67.3555	39.5508	68.3751	39.5508	67.3124	39.5508	68.2987	39.5508	67.2841	39.5508	68.2072	39.5508	67.2709	39.5508	68.1049	39.5508	67.2726	39.5508	67.9964	39.5508	67.2893	39.5508	67.886	39.5508	67.3206	39.5508	67.7778	39.5508	67.3661	39.5508	67.6752	39.5508	67.4251	39.5508	67.581	39.5508	67.4971
41.0156	68.1301	41.0156	68.0102	41.0156	68.2405	41.0156	67.8848	41.0156	68.338	41.0156	67.7578	41.0156	68.419	41.0156	67.6332	41.0156	68.4805	41.0156	67.5152	41.0156	68.5206	41.0156	67.4081	41.0156	68.5382	41.0156	67.3159	41.0156	68.5338	41.0156	67.2425	41.0156	68.5089	41.0156	67.1908	41.0156	68.4664	41.0156	67.1631	41.0156	68.4097	41.0156	67.1605	41.0156	68.3421	41.0156	67.1829	41.0156	68.2663	41.0156	67.2288	41.0156	68.1842	41.0156	67.2958	41.0156	68.0965	41.0156	67.3801	41.0156	68.003	41.0156	67.4774	41.0156	67.9038	41.0156	67.5827	41.0156	67.7994	41.0156	67.6914
42.4805	69.0635	42.4805	68.9431	42.4805	69.1755	42.4805	68.8183	42.4805	69.2752	42.4805	68.6927	42.4805	69.3584	42.4805	68.5697	42.4805	69.4215	42.4805	68.4521	42.4805	69.4614	42.4805	68.3427	42.4805	69.4761	42.4805	68.2439	42.4805	69.4645	42.4805	68.158	42.4805	69.4271	42.4805	68.087	42.4805	69.3654	42.4805	68.0327	42.4805	69.2821	42.4805	67.9967	42.4805	69.1805	42.4805	67.9803	42.4805	69.0648	42.4805	67.9842	42.4805	68.9389	42.4805	68.009	42.4805	68.8073	42.4805	68.0544	42.4805	68.6739	42.4805	68.1199	42.4805	68.5431	42.4805	68.204	42.4805	68.4186	42.4805	68.3045
43.9453	69.5539	43.9453	69.4339	43.9453	69.6665	43.9453	69.3104	43.9453	69.7675	43.9453	69.1872	43.9453	69.853	43.9453	69.0675	43.9453	69.9192	43.9453	68.9547	43.9453	69.963	43.9453	68.8515	43.9453	69.982	43.9453	68.7604	43.9453	69.975	43.9453	68.6834	43.9453	69.9423	43.9453	68.6222	43.9453	69.8852	43.9453	68.5783	43.9453	69.8065	43.9453	68.5524	43.9453	69.7097	43.9453	68.5452	43.9453	69.5989	43.9453	68.5568	43.9453	69.4785	43.9453	68.587	43.9453	69.353	43.9453	68.6354	43.9453	69.2265	43.9453	68.7009	43.9453	69.1029	43.9453	68.7823	43.9453	68.9857	43.9453	68.878
45.4102	70.2588	45.4102	70.1275	45.4102	70.3841	45.4102	69.9951	45.4102	70.4985	45.4102	69.866	45.4102	70.597	45.4102	69.7441	45.4102	70.6754	45.4102	69.6326	45.4102	70.7301	45.4102	69.534	45.4102	70.759	45.4102	69.4505	45.4102	70.7614	45.4102	69.3836	45.4102	70.7376	45.4102	69.3345	45.4102	70.6895	45.4102	69.304	45.4102	70.6196	45.4102	69.2927	45.4102	70.5314	45.4102	69.3005	45.4102	70.4284	45.4102	69.3272	45.4102	70.3146	45.4102	69.3722	45.4102	70.1935	45.4102	69.4344	45.4102	70.0691	45.4102	69.5127	45.4102	69.9447	45.4102	69.6052	45.4102	69.8239	45.4102	69.7097
46.875	70.6321	46.875	70.5282	46.875	70.7352	46.875	70.4264	46.875	70.8342	46.875	70.3295	46.875	70.9253	46.875	70.2399	46.875	71.0048	46.875	70.1597	46.875	71.0691	46.875	70.0911	46.875	71.1158	46.875	70.0363	46.875	71.1434	46.875	69.9972	46.875	71.1516	46.875	69.9753	46.875	71.1418	46.875	69.972	46.875	71.1157	46.875	69.9878	46.875	71.0758	46.875	70.0227	46.875	71.0241	46.875	70.0758	46.875	70.962	46.875	70.1453	46.875	70.8903	46.875	70.2285	46.875	70.8097	46.875	70.3221	46.875	70.7207	46.875	70.422	46.875	70.6248	46.875	70.5242
48.3398	71.7039	48.3398	71.5964	48.3398	71.7913	48.3398	71.4724	48.3398	71.8554	48.3398	71.3362	48.3398	71.8941	48.3398	71.1922	48.3398	71.9061	48.3398	71.0454	48.3398	71.8911	48.3398	70.9003	48.3398	71.8497	48.3398	70.7617	48.3398	71.7835	48.3398	70.6339	48.3398	71.6954	48.3398	70.5209	48.3398	71.589	48.3398	70.4263	48.3398	71.4689	48.3398	70.3531	48.3398	71.34	48.3398	70.3032	48.3398	71.207	48.3398	70.2781	48.3398	71.0739	48.3398	70.2778	48.3398	70.9439	48.3398	70.3015	48.3398	70.8192	48.3398	70.3476	48.3398	70.7017	48.3398	70.4136	48.3398	70.5934	48.3398	70.4965
51.2695	72.5684	51.2695	72.4405	51.2695	72.6842	51.2695	72.3045	51.2695	72.7839	51.2695	72.164	51.2695	72.863	51.2695	72.0222	51.2695	72.9175	51.2695	71.882	51.2695	72.9437	51.2695	71.7459	51.2695	72.9392	51.2695	71.6163	51.2695	72.9022	51.2695	71.4956	51.2695	72.8326	51.2695	71.3859	51.2695	72.7318	51.2695	71.2893	51.2695	72.6024	51.2695	71.208	51.2695	72.4486	51.2695	71.1444	51.2695	72.276	51.2695	71.1009	51.2695	72.0915	51.2695	71.0804	51.2695	71.9033	51.2695	71.0854	51.2695	71.7198	51.2695	71.1187	51.2695	71.5495	51.2695	71.1821	51.2695	71.3997	51.2695	71.2762
52.7344	72.9244	52.7344	72.81	52.7344	73.0345	52.7344	72.695	52.7344	73.1367	52.7344	72.5824	52.7344	73.2274	52.7344	72.4752	52.7344	73.3028	52.7344	72.3759	52.7344	73.3601	52.7344	72.2867	52.7344	73.3968	52.7344	72.2095	52.7344	73.4112	52.7344	72.1458	52.7344	73.4028	52.7344	72.0969	52.7344	73.3714	52.7344	72.0636	52.7344	73.3179	52.7344	72.0469	52.7344	73.2438	52.7344	72.0474	52.7344	73.1511	52.7344	72.0657	52.7344	73.0429	52.7344	72.1021	52.7344	72.923	52.7344	72.1567	52.7344	72.796	52.7344	72.2295	52.7344	72.6671	52.7344	72.3193	52.7344	72.5416	52.7344	72.4243
54.1992	73.2026	54.1992	73.098	54.1992	73.3021	54.1992	72.9919	54.1992	73.3931	54.1992	72.8878	54.1992	73.4726	54.1992	72.7893	54.1992	73.5382	54.1992	72.6998	54.1992	73.5882	54.1992	72.6224	54.1992	73.6215	54.1992	72.5594	54.1992	73.6378	54.1992	72.5131	54.1992	73.6376	54.1992	72.4849	54.1992	73.6217	54.1992	72.4757	54.1992	73.5914	54.1992	72.4856	54.1992	73.5482	54.1992	72.5142	54.1992	73.4931	54.1992	72.5604	54.1992	73.4274	54.1992	72.6227	54.1992	73.3518	54.1992	72.6986	54.1992	73.2673	54.1992	72.7854	54.1992	73.1755	54.1992	72.88	54.1992	73.0785	54.1992	72.9789
55.6641	73.7377	55.6641	73.6222	55.6641	73.8421	55.6641	73.4992	55.6641	73.9318	55.6641	73.3727	55.6641	74.0039	55.6641	73.2468	55.6641	74.056	55.6641	73.1255	55.6641	74.0862	55.6641	73.0128	55.6641	74.0937	55.6641	72.9123	55.6641	74.0784	55.6641	72.8274	55.6641	74.0415	55.6641	72.7608	55.6641	73.9849	55.6641	72.7147	55.6641	73.9115	55.6641	72.6903	55.6641	73.8246	55.6641	72.6883	55.6641	73.7274	55.6641	72.7083	55.6641	73.623	55.6641	72.7491	55.6641	73.5139	55.6641	72.8088	55.6641	73.4023	55.6641	72.8848	55.6641	73.2902	55.6641	72.9741	55.6641	73.1798	55.6641	73.0734
58.5938	75.0505	58.5938	74.9313	58.5938	75.1561	58.5938	74.8022	58.5938	75.2447	58.5938	74.6672	58.5938	75.3131	58.5938	74.5302	58.5938	75.359	58.5938	74.3953	58.5938	75.3805	58.5938	74.2661	58.5938	75.3766	58.5938	74.1463	58.5938	75.3472	58.5938	74.0391	58.5938	75.2928	58.5938	73.9474	58.5938	75.2152	58.5938	73.8737	58.5938	75.1166	58.5938	73.8198	58.5938	75.0002	58.5938	73.7874	58.5938	74.8698	58.5938	73.7773	58.5938	74.73	58.5938	73.7899	58.5938	74.5855	58.5938	73.8253	58.5938	74.4414	58.5938	73.8828	58.5938	74.3028	58.5938	73.9613	58.5938	74.174	58.5938	74.0592
60.0586	75.4231	60.0586	75.3039	60.0586	75.5297	60.0586	75.1758	60.0586	75.6202	60.0586	75.0425	60.0586	75.6918	60.0586	74.908	60.0586	75.7418	60.0586	74.7759	60.0586	75.7686	60.0586	74.6501	60.0586	75.7711	60.0586	74.5339	60.0586	75.7489	60.0586	74.4304	60.0586	75.7027	60.0586	74.3426	60.0586	75.6337	60.0586	74.2728	60.0586	75.544	60.0586	74.2231	60.0586	75.436	60.0586	74.1951	60.0586	75.3131	60.0586	74.1897	60.0586	75.179	60.0586	74.2077	60.0586	75.0379	60.0586	74.2489	60.0586	74.8947	60.0586	74.3126	60.0586	74.7544	60.0586	74.3976	60.0586	74.6219	60.0586	74.5017
62.9883	76.2858	62.9883	76.1664	62.9883	76.3927	62.9883	76.0383	62.9883	76.4836	62.9883	75.9054	62.9883	76.5555	62.9883	75.7719	62.9883	76.6059	62.9883	75.6418	62.9883	76.6331	62.9883	75.5187	62.9883	76.636	62.9883	75.4062	62.9883	76.6143	62.9883	75.3074	62.9883	76.5686	62.9883	75.2247	62.9883	76.5003	62.9883	75.1603	62.9883	76.4116	62.9883	75.1158	62.9883	76.3052	62.9883	75.0923	62.9883	76.1844	62.9883	75.0905	62.9883	76.0531	62.9883	75.1106	62.9883	75.9155	62.9883	75.1522	62.9883	75.7764	62.9883	75.2147	62.9883	75.6406	62.9883	75.297	62.9883	75.5129	62.9883	75.3972
64.4531	76.7551	64.4531	76.6316	64.4531	76.8675	64.4531	76.5006	64.4531	76.9651	64.4531	76.3661	64.4531	77.0448	64.4531	76.2322	64.4531	77.1037	64.4531	76.1028	64.4531	77.1397	64.4531	75.9814	64.4531	77.1513	64.4531	75.8714	64.4531	77.1379	64.4531	75.7759	64.4531	77.0996	64.4531	75.6974	64.4531	77.0377	64.4531	75.638	64.4531	76.9542	64.4531	75.5991	64.4531	76.8517	64.4531	75.5819	64.4531	76.7334	64.4531	75.5868	64.4531	76.6031	64.4531	75.614	64.4531	76.4649	64.4531	75.663	64.4531	76.3236	64.4531	75.733	64.4531	76.1841	64.4531	75.8225	64.4531	76.0513	64.4531	75.9296
67.3828	77.6286	67.3828	77.5006	67.3828	77.7448	67.3828	77.3646	67.3828	77.8453	67.3828	77.2248	67.3828	77.9266	67.3828	77.0849	67.3828	77.9857	67.3828	76.9491	67.3828	78.0204	67.3828	76.8208	67.3828	78.0293	67.3828	76.7038	67.3828	78.0123	67.3828	76.6012	67.3828	77.9702	67.3828	76.516	67.3828	77.9047	67.3828	76.4507	67.3828	77.8182	67.3828	76.4073	67.3828	77.7134	67.3828	76.3872	67.3828	77.5932	67.3828	76.3913	67.3828	77.4607	67.3828	76.42	67.3828	77.3196	67.3828	76.4727	67.3828	77.1742	67.3828	76.5483	67.3828	77.0291	67.3828	76.645	67.3828	76.8893	67.3828	76.7598
68.8477	77.9744	68.8477	77.8504	68.8477	78.0856	68.8477	77.7175	68.8477	78.1804	68.8477	77.5798	68.8477	78.2555	68.8477	77.4413	68.8477	78.3086	68.8477	77.3061	68.8477	78.3379	68.8477	77.178	68.8477	78.3428	68.8477	77.0608	68.8477	78.3237	68.8477	76.9578	68.8477	78.2816	68.8477	76.8721	68.8477	78.2182	68.8477	76.8063	68.8477	78.1358	68.8477	76.7625	68.8477	78.0367	68.8477	76.7423	68.8477	77.923	68.8477	76.7467	68.8477	77.7974	68.8477	76.7758	68.8477	77.6629	68.8477	76.8292	68.8477	77.5231	68.8477	76.9055	68.8477	77.3823	68.8477	77.0026	68.8477	77.2453	68.8477	77.1172
71.7773	78.818	71.7773	78.7061	71.7773	78.9165	71.7773	78.5844	71.7773	78.9984	71.7773	78.4567	71.7773	79.0612	71.7773	78.3271	71.7773	79.1031	71.7773	78.1995	71.7773	79.123	71.7773	78.0778	71.7773	79.1208	71.7773	77.9655	71.7773	79.0973	71.7773	77.8659	71.7773	79.0537	71.7773	77.7819	71.7773	78.9919	71.7773	77.716	71.7773	78.9135	71.7773	77.6702	71.7773	78.8204	71.7773	77.6461	71.7773	78.7146	71.7773	77.6448	71.7773	78.598	71.7773	77.6667	71.7773	78.4733	71.7773	77.7117	71.7773	78.3438	71.7773	77.7787	71.7773	78.2136	71.7773	77.8657	71.7773	78.0874	71.7773	77.9699
74.707	79.6676	74.707	79.5653	74.707	79.7562	74.707	79.4527	74.707	79.828	74.707	79.3337	74.707	79.8807	74.707	79.2123	74.707	79.9128	74.707	79.0922	74.707	79.9237	74.707	78.9774	74.707	79.9137	74.707	78.8711	74.707	79.8839	74.707	78.7764	74.707	79.8359	74.707	78.6959	74.707	79.7718	74.707	78.6318	74.707	79.6933	74.707	78.5858	74.707	79.6023	74.707	78.5592	74.707	79.5004	74.707	78.5528	74.707	79.3898	74.707	78.567	74.707	79.273	74.707	78.6019	74.707	79.1535	74.707	78.6566	74.707	79.0353	74.707	78.7299	74.707	78.9226	74.707	78.8195
77.6367	80.4182	77.6367	80.3253	77.6367	80.4968	77.6367	80.2217	77.6367	80.5579	77.6367	80.1114	77.6367	80.5992	77.6367	79.9983	77.6367	80.6193	77.6367	79.8863	77.6367	80.618	77.6367	79.7791	77.6367	80.596	77.6367	79.6799	77.6367	80.5555	77.6367	79.5914	77.6367	80.499	77.6367	79.5159	77.6367	80.4294	77.6367	79.455	77.6367	80.3495	77.6367	79.4102	77.6367	80.2612	77.6367	79.3822	77.6367	80.1663	77.6367	79.3717	77.6367	80.0663	77.6367	79.3788	77.6367	79.9631	77.6367	79.4036	77.6367	79.8592	77.6367	79.4457	77.6367	79.7579	77.6367	79.504	77.6367	79.6628	77.6367	79.5771
79.1016	80.8282	79.1016	80.7359	79.1016	80.904	79.1016	80.6311	79.1016	80.9599	79.1016	80.5181	79.1016	80.9935	79.1016	80.4011	79.1016	81.0032	79.1016	80.2844	79.1016	80.9889	79.1016	80.1717	79.1016	80.9518	79.1016	80.0667	79.1016	80.8946	79.1016	79.9722	79.1016	80.8209	79.1016	79.8906	79.1016	80.7347	79.1016	79.8236	79.1016	80.64	79.1016	79.7724	79.1016	80.5402	79.1016	79.738	79.1016	80.4377	79.1016	79.7205	79.1016	80.3346	79.1016	79.7201	79.1016	80.2326	79.1016	79.7366	79.1016	80.1339	79.1016	79.7694	79.1016	80.0406	79.1016	79.8177	79.1016	79.9552	79.1016	79.8802
82.0312	81.6745	82.0312	81.5789	82.0312	81.7507	82.0312	81.4686	82.0312	81.8037	82.0312	81.3478	82.0312	81.8301	82.0312	81.2212	82.0312	81.8275	82.0312	81.0927	82.0312	81.7947	82.0312	80.9659	82.0312	81.7323	82.0312	80.8439	82.0312	81.6425	82.0312	80.7293	82.0312	81.5287	82.0312	80.624	82.0312	81.3961	82.0312	80.5294	82.0312	81.2504	82.0312	80.4466	82.0312	81.098	82.0312	80.3769	82.0312	80.945	82.0312	80.3211	82.0312	80.7976	82.0312	80.2806	82.0312	80.6612	82.0312	80.2567	82.0312	80.5404	82.0312	80.251	82.0312	80.4387	82.0312	80.2651	82.0312	80.3585	82.0312	80.3006
84.9609	81.7594	84.9609	81.6817	84.9609	81.8317	84.9609	81.6024	84.9609	81.8956	84.9609	81.5252	84.9609	81.9489	84.9609	81.4537	84.9609	81.99	84.9609	81.3911	84.9609	82.019	84.9609	81.3402	84.9609	82.0365	84.9609	81.3027	84.9609	82.0441	84.9609	81.2794	84.9609	82.0434	84.9609	81.2705	84.9609	82.0356	84.9609	81.2751	84.9609	82.021	84.9609	81.2921	84.9609	81.999	84.9609	81.3198	84.9609	81.9688	84.9609	81.3566	84.9609	81.9295	84.9609	81.401	84.9609	81.8812	84.9609	81.4518	84.9609	81.825	84.9609	81.5079	84.9609	81.763	84.9609	81.5685	84.9609	81.6979	84.9609	81.6324
87.8906	82.2854	87.8906	82.193	87.8906	82.3735	87.8906	82.1016	87.8906	82.4534	87.8906	82.0167	87.8906	82.5221	87.8906	81.944	87.8906	82.5784	87.8906	81.8884	87.8906	82.6227	87.8906	81.8541	87.8906	82.657	87.8906	81.8438	87.8906	82.6845	87.8906	81.8587	87.8906	82.7085	87.8906	81.8981	87.8906	82.7324	87.8906	81.9597	87.8906	82.7577	87.8906	82.0401	87.8906	82.7842	87.8906	82.1346	87.8906	82.8095	87.8906	82.2382	87.8906	82.8296	87.8906	82.3457	87.8906	82.8397	87.8906	82.4517	87.8906	82.8357	87.8906	82.5516	87.8906	82.8146	87.8906	82.641	87.8906	82.7747	87.8906	82.7163
90.8203	83.1182	90.8203	83.0139	90.8203	83.2	90.8203	82.8924	90.8203	83.2562	90.8203	82.7604	90.8203	83.2858	90.8203	82.6261	90.8203	83.2904	90.8203	82.4979	90.8203	83.2739	90.8203	82.3843	90.8203	83.242	90.8203	82.2931	90.8203	83.2019	90.8203	82.2306	90.8203	83.161	90.8203	82.2009	90.8203	83.1258	90.8203	82.2057	90.8203	83.1007	90.8203	82.2437	90.8203	83.0868	90.8203	82.311	90.8203	83.082	90.8203	82.4014	90.8203	83.081	90.8203	82.5072	90.8203	83.0774	90.8203	82.6198	90.8203	83.0642	90.8203	82.7309	90.8203	83.0357	90.8203	82.833	90.8203	82.988	90.8203	82.92
95.2148	84.3561	95.2148	84.2821	95.2148	84.4024	95.2148	84.1835	95.2148	84.4189	95.2148	84.0642	95.2148	84.405	95.2148	83.929	95.2148	84.3612	95.2148	83.7831	95.2148	84.2901	95.2148	83.632	95.2148	84.1959	95.2148	83.4811	95.2148	84.085	95.2148	83.336	95.2148	83.9652	95.2148	83.2018	95.2148	83.8445	95.2148	83.0832	95.2148	83.7295	95.2148	82.9847	95.2148	83.6237	95.2148	82.9098	95.2148	83.5273	95.2148	82.8611	95.2148	83.4375	95.2148	82.8402	95.2148	83.3503	95.2148	82.8468	95.2148	83.2628	95.2148	82.879	95.2148	83.1743	95.2148	82.9333	95.2148	83.0867	95.2148	83.0045
98.1445	84.9361	98.1445	84.8328	98.1445	85.0155	98.1445	84.7116	98.1445	85.0651	98.1445	84.5785	98.1445	85.0797	98.1445	84.4389	98.1445	85.0554	98.1445	84.298	98.1445	84.9904	98.1445	84.1605	98.1445	84.8861	98.1445	84.0301	98.1445	84.7473	98.1445	83.9102	98.1445	84.5829	98.1445	83.8032	98.1445	84.4048	98.1445	83.7107	98.1445	84.2265	98.1445	83.6337	98.1445	84.0603	98.1445	83.5726	98.1445	83.9153	98.1445	83.5271	98.1445	83.7959	98.1445	83.4968	98.1445	83.7018	98.1445	83.4806	98.1445	83.6297	98.1445	83.4774	98.1445	83.5752	98.1445	83.4858	98.1445	83.5345	98.1445	83.505
101.074	85.2437	101.074	85.1219	101.074	85.3437	101.074	84.9847	101.074	85.4159	101.074	84.8388	101.074	85.4552	101.074	84.6909	101.074	85.4582	101.074	84.5473	101.074	85.4231	101.074	84.4136	101.074	85.3508	101.074	84.2943	101.074	85.2448	101.074	84.1929	101.074	85.1118	101.074	84.1113	101.074	84.9608	101.074	84.0499	101.074	84.8028	101.074	84.008	101.074	84.6486	101.074	83.9835	101.074	84.5074	101.074	83.9739	101.074	84.3854	101.074	83.976	101.074	84.2852	101.074	83.9873	101.074	84.2058	101.074	84.0056	101.074	84.1444	101.074	84.0296	101.074	84.0969	101.074	84.0595
105.469	85.538	105.469	85.4215	105.469	85.6355	105.469	85.2913	105.469	85.7094	105.469	85.1529	105.469	85.756	105.469	85.0122	105.469	85.7733	105.469	84.8751	105.469	85.7607	105.469	84.7472	105.469	85.7199	105.469	84.6339	105.469	85.6549	105.469	84.5396	105.469	85.5716	105.469	84.468	105.469	85.4773	105.469	84.4215	105.469	85.3797	105.469	84.4008	105.469	85.2852	105.469	84.4053	105.469	85.1978	105.469	84.4327	105.469	85.1186	105.469	84.4792	105.469	85.046	105.469	84.5403	105.469	84.9769	105.469	84.6109	105.469	84.908	105.469	84.6863	105.469	84.8368	105.469	84.7625
108.398	86.0315	108.398	85.9163	108.398	86.125	108.398	85.7848	108.398	86.1918	108.398	85.6432	108.398	86.2283	108.398	85.4976	108.398	86.2325	108.398	85.3541	108.398	86.204	108.398	85.2184	108.398	86.1451	108.398	85.0957	108.398	86.06	108.398	84.9903	108.398	85.9549	108.398	84.9054	108.398	85.8378	108.398	84.8432	108.398	85.7168	108.398	84.8043	108.398	85.5994	108.398	84.7883	108.398	85.4911	108.398	84.7935	108.398	85.3944	108.398	84.8173	108.398	85.309	108.398	84.8564	108.398	85.2324	108.398	84.907	108.398	85.1616	108.398	84.9654	108.398	85.094	108.398	85.0284
112.793	86.4369	112.793	86.3099	112.793	86.5351	112.793	86.16	112.793	86.5998	112.793	85.9938	112.793	86.6276	112.793	85.8189	112.793	86.6172	112.793	85.6433	112.793	86.5692	112.793	85.475	112.793	86.4869	112.793	85.3219	112.793	86.3762	112.793	85.1911	112.793	86.2458	112.793	85.0886	112.793	86.1065	112.793	85.0183	112.793	85.9693	112.793	84.9817	112.793	85.844	112.793	84.9777	112.793	85.7373	112.793	85.0029	112.793	85.6506	112.793	85.0517	112.793	85.5809	112.793	85.117	112.793	85.5217	112.793	85.1912	112.793	85.4655	112.793	85.2675	112.793	85.4062	112.793	85.3402
117.188	86.7841	117.188	86.6563	117.188	86.8817	117.188	86.5037	117.188	86.9451	117.188	86.3326	117.188	86.9722	117.188	86.1503	117.188	86.9626	117.188	85.9647	117.188	86.9178	117.188	85.7834	117.188	86.8412	117.188	85.6143	117.188	86.7378	117.188	85.4644	117.188	86.614	117.188	85.3397	117.188	86.477	117.188	85.2447	117.188	86.3344	117.188	85.1822	117.188	86.1935	117.188	85.1528	117.188	86.0602	117.188	85.1546	117.188	85.9382	117.188	85.1841	117.188	85.8285	117.188	85.2359	117.188	85.7294	117.188	85.3037	117.188	85.6377	117.188	85.3816	117.188	85.5502	117.188	85.4647
120.117	86.717	120.117	86.5855	120.117	86.8161	120.117	86.4274	120.117	86.8785	120.117	86.2499	120.117	86.9021	120.117	86.0609	120.117	86.8864	120.117	85.8688	120.117	86.8333	120.117	85.6819	120.117	86.7464	120.117	85.5081	120.117	86.6315	120.117	85.3544	120.117	86.4959	120.117	85.2268	120.117	86.3482	120.117	85.1295	120.117	86.1973	120.117	85.0651	120.117	86.0515	120.117	85.0342	120.117	85.9171	120.117	85.0349	120.117	85.7972	120.117	85.0636	120.117	85.6915	120.117	85.1148	120.117	85.5971	120.117	85.1823	120.117	85.5096	120.117	85.2596	120.117	85.4251	120.117	85.3416
124.512	86.9143	124.512	86.7853	124.512	87.0145	124.512	86.6328	124.512	87.0816	124.512	86.4629	124.512	87.1126	124.512	86.2818	124.512	87.1057	124.512	86.0964	124.512	87.0607	124.512	85.9133	124.512	86.9791	124.512	85.7392	124.512	86.8642	124.512	85.5801	124.512	86.7214	124.512	85.4419	124.512	86.5583	124.512	85.3292	124.512	86.3839	124.512	85.2456	124.512	86.2085	124.512	85.1928	124.512	86.0417	124.512	85.1705	124.512	85.8909	124.512	85.1763	124.512	85.7595	124.512	85.206	124.512	85.6471	124.512	85.2544	124.512	85.5503	124.512	85.316	124.512	85.4645	124.512	85.3867
128.906	87.0926	128.906	86.9718	128.906	87.1861	128.906	86.8276	128.906	87.2489	128.906	86.6644	128.906	87.2785	128.906	86.4867	128.906	87.2727	128.906	86.2994	128.906	87.2304	128.906	86.1077	128.906	87.1515	128.906	85.9165	128.906	87.037	128.906	85.7311	128.906	86.8893	128.906	85.5571	128.906	86.7129	128.906	85.3998	128.906	86.5143	128.906	85.265	128.906	86.3024	128.906	85.1575	128.906	86.0878	128.906	85.0812	128.906	85.8813	128.906	85.0381	128.906	85.6919	128.906	85.0281	128.906	85.5254	128.906	85.0489	128.906	85.3835	128.906	85.0974	128.906	85.2655	128.906	85.1702
133.301	86.6015	133.301	86.4743	133.301	86.7129	133.301	86.3368	133.301	86.8039	133.301	86.1952	133.301	86.8714	133.301	86.056	133.301	86.9137	133.301	85.925	133.301	86.931	133.301	85.8074	133.301	86.9246	133.301	85.7071	133.301	86.8965	133.301	85.6264	133.301	86.8487	133.301	85.5663	133.301	86.783	133.301	85.5266	133.301	86.7003	133.301	85.5061	133.301	86.6021	133.301	85.5036	133.301	86.4905	133.301	85.5174	133.301	86.3694	133.301	85.5463	133.301	86.2439	133.301	85.5895	133.301	86.1199	133.301	85.6462	133.301	86.0022	133.301	85.7161	133.301	85.8946	133.301	85.799
139.16	87.0269	139.16	86.9089	139.16	87.1204	139.16	86.7724	139.16	87.1846	139.16	86.6241	139.16	87.2168	139.16	86.4708	139.16	87.2166	139.16	86.3187	139.16	87.1859	139.16	86.1734	139.16	87.1287	139.16	86.0394	139.16	87.0502	139.16	85.92	139.16	86.956	139.16	85.818	139.16	86.8512	139.16	85.7352	139.16	86.7397	139.16	85.6733	139.16	86.6241	139.16	85.6335	139.16	86.5064	139.16	85.6165	139.16	86.3882	139.16	85.6226	139.16	86.2712	139.16	85.6511	139.16	86.1569	139.16	85.7003	139.16	86.0472	139.16	85.7676	139.16	85.9441	139.16	85.85
143.555	87.0366	143.555	86.9063	143.555	87.139	143.555	86.7549	143.555	87.2088	143.555	86.5899	143.555	87.2434	143.555	86.4196	143.555	87.2427	143.555	86.2521	143.555	87.2088	143.555	86.0946	143.555	87.1462	143.555	85.9531	143.555	87.0607	143.555	85.8322	143.555	86.9585	143.555	85.7346	143.555	86.8458	143.555	85.6619	143.555	86.728	143.555	85.6145	143.555	86.6092	143.555	85.592	143.555	86.492	143.555	85.5931	143.555	86.3782	143.555	85.6162	143.555	86.2686	143.555	85.659	143.555	86.1634	143.555	85.7186	143.555	86.0625	143.555	85.7917	143.555	85.9661	143.555	85.8752
147.949	86.9511	147.949	86.8099	147.949	87.0628	147.949	86.6457	147.949	87.1403	147.949	86.4667	147.949	87.1816	147.949	86.282	147.949	87.1869	147.949	86.1006	147.949	87.1588	147.949	85.931	147.949	87.1013	147.949	85.7798	147.949	87.0196	147.949	85.652	147.949	86.9187	147.949	85.5502	147.949	86.8033	147.949	85.4754	147.949	86.6773	147.949	85.427	147.949	86.5444	147.949	85.4035	147.949	86.408	147.949	85.4034	147.949	86.2715	147.949	85.4246	147.949	86.1385	147.949	85.4654	147.949	86.0117	147.949	85.5237	147.949	85.893	147.949	85.5975	147.949	85.7836	147.949	85.6847
153.809	86.6263	153.809	86.4981	153.809	86.7221	153.809	86.3439	153.809	86.7819	153.809	86.1723	153.809	86.805	153.809	85.9928	153.809	86.794	153.809	85.8155	153.809	86.7547	153.809	85.6502	153.809	86.6949	153.809	85.5052	153.809	86.6232	153.809	85.3874	153.809	86.5474	153.809	85.3011	153.809	86.4728	153.809	85.2484	153.809	86.4012	153.809	85.2288	153.809	86.3316	153.809	85.2399	153.809	86.261	153.809	85.2782	153.809	86.1863	153.809	85.339	153.809	86.1048	153.809	85.4175	153.809	86.0158	153.809	85.509	153.809	85.9195	153.809	85.609	153.809	85.8178	153.809	85.7132
159.668	86.7446	159.668	86.5957	159.668	86.862	159.668	86.4224	159.668	86.9428	159.668	86.2332	159.668	86.9839	159.668	86.0375	159.668	86.9853	159.668	85.8447	159.668	86.9496	159.668	85.6638	159.668	86.8817	159.668	85.5028	159.668	86.7888	159.668	85.368	159.668	86.6789	159.668	85.264	159.668	86.5599	159.668	85.1936	159.668	86.4385	159.668	85.1578	159.668	86.32	159.668	85.1557	159.668	86.2075	159.668	85.1847	159.668	86.1023	159.668	85.2408	159.668	86.0034	159.668	85.3182	159.668	85.9081	159.668	85.4106	159.668	85.8131	159.668	85.5113	159.668	85.7155	159.668	85.6143
165.527	86.7085	165.527	86.581	165.527	86.8027	165.527	86.4266	165.527	86.8593	165.527	86.2536	165.527	86.8769	165.527	86.0712	165.527	86.8577	165.527	85.8885	165.527	86.8067	165.527	85.7144	165.527	86.7314	165.527	85.5565	165.527	86.6404	165.527	85.4209	165.527	86.5414	165.527	85.3123	165.527	86.4403	165.527	85.2332	165.527	86.3401	165.527	85.185	165.527	86.2414	165.527	85.1676	165.527	86.1439	165.527	85.1796	165.527	86.0468	165.527	85.2183	165.527	85.9494	165.527	85.2799	165.527	85.8513	165.527	85.3595	165.527	85.7519	165.527	85.4513	165.527	85.6511	165.527	85.55
171.387	86.4192	171.387	86.2838	171.387	86.5176	171.387	86.1192	171.387	86.5739	171.387	85.9356	171.387	86.5866	171.387	85.7443	171.387	86.5584	171.387	85.5567	171.387	86.4957	171.387	85.3835	171.387	86.4081	171.387	85.2335	171.387	86.3071	171.387	85.1129	171.387	86.2032	171.387	85.0252	171.387	86.1049	171.387	84.9715	171.387	86.0165	171.387	84.9503	171.387	85.9389	171.387	84.9593	171.387	85.8694	171.387	84.9948	171.387	85.8039	171.387	85.0528	171.387	85.7379	171.387	85.1286	171.387	85.6672	171.387	85.2171	171.387	85.5891	171.387	85.3126	171.387	85.5027	171.387	85.4094
177.246	86.2683	177.246	86.1269	177.246	86.3662	177.246	85.949	177.246	86.4171	177.246	85.7447	177.246	86.4206	177.246	85.5262	177.246	86.3804	177.246	85.307	177.246	86.3031	177.246	85.1005	177.246	86.1974	177.246	84.9191	177.246	86.0735	177.246	84.7723	177.246	85.9413	177.246	84.6657	177.246	85.8093	177.246	84.6011	177.246	85.6839	177.246	84.5762	177.246	85.5693	177.246	84.5862	177.246	85.4679	177.246	84.6248	177.246	85.3799	177.246	84.6852	177.246	85.3031	177.246	84.7607	177.246	85.2333	177.246	84.8447	177.246	85.165	177.246	84.9312	177.246	85.0931	177.246	85.0151
183.105	86.0575	183.105	85.9223	183.105	86.1489	183.105	85.7486	183.105	86.1933	183.105	85.5442	183.105	86.191	183.105	85.3183	183.105	86.1454	183.105	85.0818	183.105	86.0638	183.105	84.8465	183.105	85.956	183.105	84.6247	183.105	85.8333	183.105	84.4288	183.105	85.7056	183.105	84.2701	183.105	85.5804	183.105	84.1573	183.105	85.4615	183.105	84.0955	183.105	85.3497	183.105	84.0849	183.105	85.2447	183.105	84.121	183.105	85.1454	183.105	84.195	183.105	85.0503	183.105	84.2957	183.105	84.9566	183.105	84.4115	183.105	84.8607	183.105	84.5318	183.105	84.7589	183.105	84.649
188.965	85.8423	188.965	85.7143	188.965	85.9277	188.965	85.5508	188.965	85.9663	188.965	85.3607	188.965	85.9578	188.965	85.1539	188.965	85.9064	188.965	84.9405	188.965	85.8205	188.965	84.7299	188.965	85.7118	188.965	84.5305	188.965	85.5931	188.965	84.3499	188.965	85.4754	188.965	84.1944	188.965	85.3657	188.965	84.0699	188.965	85.266	188.965	83.9817	188.965	85.1739	188.965	83.934	188.965	85.0848	188.965	83.9293	188.965	84.9938	188.965	83.967	188.965	84.8966	188.965	84.0429	188.965	84.7903	188.965	84.1492	188.965	84.673	188.965	84.2754	188.965	84.5454	188.965	84.4106
196.289	85.7634	196.289	85.6342	196.289	85.8447	196.289	85.4648	196.289	85.874	196.289	85.2662	196.289	85.8523	196.289	85.0511	196.289	85.7857	196.289	84.8328	196.289	85.6847	196.289	84.6238	196.289	85.5627	196.289	84.4348	196.289	85.4334	196.289	84.2739	196.289	85.3075	196.289	84.1457	196.289	85.1909	196.289	84.052	196.289	85.0852	196.289	83.9926	196.289	84.9891	196.289	83.9661	196.289	84.9002	196.289	83.9705	196.289	84.8157	196.289	84.004	196.289	84.7323	196.289	84.0637	196.289	84.646	196.289	84.1453	196.289	84.5533	196.289	84.2424	196.289	84.4531	196.289	84.3476
203.613	85.541	203.613	85.4011	203.613	85.6257	203.613	85.2148	203.613	85.6507	203.613	84.9942	203.613	85.6161	203.613	84.7538	203.613	85.5279	203.613	84.5093	203.613	85.3971	203.613	84.2767	203.613	85.2395	203.613	84.0707	203.613	85.0729	203.613	83.9035	203.613	84.9142	203.613	83.7827	203.613	84.7752	203.613	83.7111	203.613	84.6615	203.613	83.6858	203.613	84.5721	203.613	83.7003	203.613	84.5026	203.613	83.7457	203.613	84.4468	203.613	83.8131	203.613	84.398	203.613	83.8944	203.613	84.3494	203.613	83.9825	203.613	84.2951	203.613	84.0714	203.613	84.2308	203.613	84.1556
210.938	85.3087	210.938	85.1562	210.938	85.4043	210.938	84.9569	210.938	85.4368	210.938	84.7237	210.938	85.4048	210.938	84.4715	210.938	85.3132	210.938	84.215	210.938	85.1731	210.938	83.9684	210.938	85.0011	210.938	83.7442	210.938	84.8169	210.938	83.5524	210.938	84.6394	210.938	83.4006	210.938	84.4815	210.938	83.2932	210.938	84.3484	210.938	83.232	210.938	84.2383	210.938	83.2158	210.938	84.1459	210.938	83.2404	210.938	84.0655	210.938	83.2988	210.938	83.9923	210.938	83.382	210.938	83.9219	210.938	83.4798	210.938	83.8492	210.938	83.5819	210.938	83.7695	210.938	83.6801
218.262	85.0523	218.262	84.8887	218.262	85.1569	218.262	84.6768	218.262	85.1963	218.262	84.4306	218.262	85.1697	218.262	84.1664	218.262	85.082	218.262	83.9013	218.262	84.9446	218.262	83.6518	218.262	84.774	218.262	83.4323	218.262	84.5897	218.262	83.2538	218.262	84.4104	218.262	83.1231	218.262	84.2503	218.262	83.0429	218.262	84.1174	218.262	83.0119	218.262	84.0133	218.262	83.0257	218.262	83.9353	218.262	83.0774	218.262	83.8775	218.262	83.1588	218.262	83.8316	218.262	83.2604	218.262	83.7879	218.262	83.3718	218.262	83.7362	218.262	83.4827	218.262	83.6693	218.262	83.5841
225.586	84.8758	225.586	84.7048	225.586	84.9792	225.586	84.4775	225.586	85.0086	225.586	84.2089	225.586	84.9635	225.586	83.9163	225.586	84.8505	225.586	83.6188	225.586	84.6833	225.586	83.3348	225.586	84.4827	225.586	83.0813	225.586	84.2726	225.586	82.8716	225.586	84.0757	225.586	82.715	225.586	83.9077	225.586	82.616	225.586	83.7753	225.586	82.5751	225.586	83.6769	225.586	82.5886	225.586	83.6065	225.586	82.6499	225.586	83.5565	225.586	82.7492	225.586	83.5177	225.586	82.8743	225.586	83.4794	225.586	83.0111	225.586	83.43	225.586	83.1452	225.586	83.3598	225.586	83.2642
232.91	84.8879	232.91	84.7017	232.91	84.9979	232.91	84.4508	232.91	85.0248	232.91	84.1496	232.91	84.9673	232.91	83.8151	232.91	84.831	232.91	83.4656	232.91	84.6296	232.91	83.1199	232.91	84.3844	232.91	82.7965	232.91	84.1223	232.91	82.5127	232.91	83.8697	232.91	82.2831	232.91	83.6465	232.91	82.1184	232.91	83.4608	232.91	82.0244	232.91	83.3103	232.91	82.0006	232.91	83.1883	232.91	82.0405	232.91	83.0885	232.91	82.1319	232.91	83.0061	232.91	82.2587	232.91	82.9343	232.91	82.4024	232.91	82.8625	232.91	82.5452	232.91	82.7783	232.91	82.673
241.699	85.3287	241.699	85.1136	241.699	85.4685	241.699	84.8326	241.699	85.5279	241.699	84.4984	241.699	85.5055	241.699	84.1272	241.699	85.4046	241.699	83.737	241.699	85.2327	241.699	83.3463	241.699	85.0017	241.699	82.9724	241.699	84.7264	241.699	82.6296	241.699	84.423	241.699	82.329	241.699	84.1071	241.699	82.079	241.699	83.7928	241.699	81.8866	241.699	83.493	241.699	81.7578	241.699	83.2186	241.699	81.6965	241.699	82.9771	241.699	81.7021	241.699	82.7708	241.699	81.7662	241.699	82.5952	241.699	81.8741	241.699	82.4404	241.699	82.0076	241.699	82.2949	241.699	82.1507
250.488	85.2484	250.488	85.1061	250.488	85.3228	250.488	84.9051	250.488	85.3243	250.488	84.6573	250.488	85.2539	250.488	84.3758	250.488	85.1194	250.488	84.0742	250.488	84.9368	250.488	83.7651	250.488	84.7281	250.488	83.4603	250.488	84.5174	250.488	83.1708	250.488	84.3242	250.488	82.907	250.488	84.1586	250.488	82.68	250.488	84.0185	250.488	82.5011	250.488	83.8941	250.488	82.3807	250.488	83.7732	250.488	82.326	250.488	83.6466	250.488	82.3385	250.488	83.5097	250.488	82.4121	250.488	83.3612	250.488	82.5343	250.488	83.2017	250.488	82.6887	250.488	83.0329	250.488	82.8591
259.277	84.8541	259.277	84.7197	259.277	84.9214	259.277	84.5321	259.277	84.9144	259.277	84.3085	259.277	84.8336	259.277	84.0679	259.277	84.6893	259.277	83.8273	259.277	84.501	259.277	83.6006	259.277	84.2956	259.277	83.3961	259.277	84.102	259.277	83.2167	259.277	83.9441	259.277	83.0612	259.277	83.8328	259.277	82.9271	259.277	83.7635	259.277	82.8135	259.277	83.7194	259.277	82.7242	259.277	83.6796	259.277	82.667	259.277	83.6273	259.277	82.6521	259.277	83.5524	259.277	82.6862	259.277	83.4519	259.277	82.7685	259.277	83.3274	259.277	82.8898	259.277	83.1848	259.277	83.0342
268.066	84.7446	268.066	84.5425	268.066	84.8689	268.066	84.2779	268.066	84.9057	268.066	83.9713	268.066	84.8521	268.066	83.6468	268.066	84.7125	268.066	83.3301	268.066	84.4997	268.066	83.0456	268.066	84.2345	268.066	82.8118	268.066	83.9452	268.066	82.6387	268.066	83.6634	268.066	82.5266	268.066	83.4193	268.066	82.4682	268.066	83.236	268.066	82.4531	268.066	83.1232	268.066	82.4723	268.066	83.0754	268.066	82.52	268.066	83.0738	268.066	82.5929	268.066	83.0927	268.066	82.6866	268.066	83.1074	268.066	82.7929	268.066	83.1004	268.066	82.8998	268.066	83.0626	268.066	82.9935
276.855	84.931	276.855	84.7489	276.855	85.0305	276.855	84.4937	276.855	85.0426	276.855	84.1784	276.855	84.9697	276.855	83.8173	276.855	84.8224	276.855	83.4266	276.855	84.6196	276.855	83.025	276.855	84.3846	276.855	82.6349	276.855	84.1396	276.855	82.2825	276.855	83.8985	276.855	81.9936	276.855	83.6641	276.855	81.7868	276.855	83.4334	276.855	81.6673	276.855	83.208	276.855	81.6267	276.855	83.0001	276.855	81.6488	276.855	82.8267	276.855	81.7178	276.855	82.6945	276.855	81.8225	276.855	82.5917	276.855	81.9537	276.855	82.4943	276.855	82.1004	276.855	82.3819	276.855	82.2481
287.109	84.9266	287.109	84.7923	287.109	84.9794	287.109	84.5901	287.109	84.9431	287.109	84.3372	287.109	84.8187	287.109	84.0503	287.109	84.6164	287.109	83.742	287.109	84.3564	287.109	83.4197	287.109	84.069	287.109	83.0876	287.109	83.7918	287.109	82.7516	287.109	83.5607	287.109	82.4246	287.109	83.3958	287.109	82.1291	287.109	83.2909	287.109	81.8941	287.109	83.2179	287.109	81.7452	287.109	83.1438	287.109	81.6929	287.109	83.0474	287.109	81.729	287.109	82.9246	287.109	81.8313	287.109	82.7826	287.109	81.9743	287.109	82.6294	287.109	82.1366	287.109	82.4694	287.109	82.3042
297.363	84.3409	297.363	84.184	297.363	84.4134	297.363	83.9592	297.363	84.3956	297.363	83.6923	297.363	84.2921	297.363	83.4144	297.363	84.1168	297.363	83.1546	297.363	83.8906	297.363	82.9309	297.363	83.6372	297.363	82.7446	297.363	83.3785	297.363	82.582	297.363	83.1338	297.363	82.424	297.363	82.9225	297.363	82.2584	297.363	82.768	297.363	82.089	297.363	82.6901	297.363	81.9372	297.363	82.6885	297.363	81.8349	297.363	82.7328	297.363	81.8104	297.363	82.7752	297.363	81.8744	297.363	82.7734	297.363	82.0141	297.363	82.7065	297.363	82.2005	297.363	82.576	297.363	82.3986
307.617	84.4585	307.617	84.263	307.617	84.5506	307.617	83.9869	307.617	84.5244	307.617	83.658	307.617	84.378	307.617	83.3054	307.617	84.1279	307.617	82.958	307.617	83.812	307.617	82.641	307.617	83.485	307.617	82.3731	307.617	83.2004	307.617	82.1639	307.617	82.985	307.617	82.0119	307.617	82.8249	307.617	81.9074	307.617	82.6823	307.617	81.8376	307.617	82.5301	307.617	81.7935	307.617	82.3756	307.617	81.7739	307.617	82.2525	307.617	81.785	307.617	82.1889	307.617	81.8333	307.617	82.1787	307.617	81.9165	307.617	82.185	307.617	82.0177	307.617	82.1683	307.617	82.1099
319.336	84.895	319.336	84.644	319.336	85.0118	319.336	84.275	319.336	84.9876	319.336	83.8149	319.336	84.8265	319.336	83.3018	319.336	84.5447	319.336	82.7838	319.336	84.1749	319.336	82.314	319.336	83.7688	319.336	81.9396	319.336	83.3919	319.336	81.6888	319.336	83.1059	319.336	81.5627	319.336	82.9399	319.336	81.5384	319.336	82.8758	319.336	81.5818	319.336	82.8625	319.336	81.6622	319.336	82.8495	319.336	81.7597	319.336	82.8097	319.336	81.8665	319.336	82.7421	319.336	81.9814	319.336	82.6577	319.336	82.1039	319.336	82.5647	319.336	82.2297	319.336	82.4635	319.336	82.3515
329.59	85.1704	329.59	84.994	329.59	85.2325	329.59	84.7192	329.59	85.1705	329.59	84.3646	329.59	84.9826	329.59	83.9503	329.59	84.6786	329.59	83.4968	329.59	84.283	329.59	83.0261	329.59	83.8378	329.59	82.5639	329.59	83.4016	329.59	82.1399	329.59	83.0366	329.59	81.7852	329.59	82.7851	329.59	81.5241	329.59	82.6481	329.59	81.3663	329.59	82.59	329.59	81.3048	329.59	82.5634	329.59	81.3225	329.59	82.5332	329.59	81.4008	329.59	82.4827	329.59	81.5244	329.59	82.4072	329.59	81.6796	329.59	82.3052	329.59	81.851	329.59	82.1757	329.59	82.0214
341.309	84.811	341.309	84.6384	341.309	84.8805	341.309	84.3819	341.309	84.836	341.309	84.0674	341.309	84.6762	341.309	83.723	341.309	84.411	341.309	83.3734	341.309	84.0631	341.309	83.0349	341.309	83.6695	341.309	82.713	341.309	83.2797	341.309	82.4064	341.309	82.9476	341.309	82.1136	341.309	82.714	341.309	81.8405	341.309	82.5882	341.309	81.6027	341.309	82.5436	341.309	81.4232	341.309	82.534	341.309	81.3245	341.309	82.5178	341.309	81.3195	341.309	82.4719	341.309	81.4045	341.309	82.3906	341.309	81.5589	341.309	82.2751	341.309	81.751	341.309	82.1267	341.309	81.9482
353.027	84.8274	353.027	84.6086	353.027	84.9001	353.027	84.2679	353.027	84.8161	353.027	83.8408	353.027	84.5805	353.027	83.372	353.027	84.2159	353.027	82.9118	353.027	83.7637	353.027	82.5084	353.027	83.2809	353.027	82.197	353.027	82.8309	353.027	81.9883	353.027	82.4684	353.027	81.8658	353.027	82.226	353.027	81.7941	353.027	82.11	353.027	81.7352	353.027	82.1039	353.027	81.6645	353.027	82.1692	353.027	81.5803	353.027	82.2507	353.027	81.5038	353.027	82.2921	353.027	81.4685	353.027	82.2573	353.027	81.5023	353.027	82.1422	353.027	81.6119	353.027	81.97	353.027	81.7794
366.211	84.7358	366.211	84.5258	366.211	84.8038	366.211	84.1974	366.211	84.7174	366.211	83.7837	366.211	84.4772	366.211	83.3262	366.211	84.1003	366.211	82.8711	366.211	83.6276	366.211	82.4619	366.211	83.127	366.211	82.1294	366.211	82.6846	366.211	81.8834	366.211	82.3708	366.211	81.7123	366.211	82.2009	366.211	81.5901	366.211	82.1299	366.211	81.488	366.211	82.0928	366.211	81.3853	366.211	82.0467	366.211	81.2768	366.211	81.9811	366.211	81.1758	366.211	81.8986	366.211	81.1102	366.211	81.7955	366.211	81.1094	366.211	81.662	366.211	81.1865	366.211	81.4989	366.211	81.328
379.395	84.9566	379.395	84.7254	379.395	85.0523	379.395	84.3925	379.395	84.9907	379.395	84.002	379.395	84.7636	379.395	83.6039	379.395	84.3809	379.395	83.246	379.395	83.8802	379.395	82.9628	379.395	83.3348	379.395	82.767	379.395	82.8466	379.395	82.6467	379.395	82.5074	379.395	82.5714	379.395	82.3447	379.395	82.5037	379.395	82.3086	379.395	82.4117	379.395	82.3195	379.395	82.2784	379.395	82.3217	379.395	82.1078	379.395	82.2965	379.395	81.9256	379.395	82.2437	379.395	81.7727	379.395	82.1624	379.395	81.6896	379.395	82.05	379.395	81.6967	379.395	81.9146	379.395	81.7834
392.578	83.9474	392.578	83.5373	392.578	84.1588	392.578	82.9566	392.578	84.15	392.578	82.2481	392.578	83.904	392.578	81.4802	392.578	83.413	392.578	80.7577	392.578	82.6944	392.578	80.2165	392.578	81.821	392.578	79.982	392.578	80.9658	392.578	80.0998	392.578	80.4055	392.578	80.5037	392.578	80.3655	392.578	81.0635	392.578	80.7994	392.578	81.6548	392.578	81.4523	392.578	82.1934	392.578	82.1009	392.578	82.6379	392.578	82.6419	392.578	82.9789	392.578	83.0521	392.578	83.2271	392.578	83.3381	392.578	83.402	392.578	83.512	392.578	83.5198	392.578	83.5883	392.578	83.585
405.762	84.8671	405.762	84.5726	405.762	84.9823	405.762	84.1099	405.762	84.9108	405.762	83.4947	405.762	84.6493	405.762	82.7515	405.762	84.2	405.762	81.9205	405.762	83.5733	405.762	81.0671	405.762	82.7919	405.762	80.289	405.762	81.8994	405.762	79.7036	405.762	80.9817	405.762	79.4034	405.762	80.193	405.762	79.4036	405.762	79.7402	405.762	79.6388	405.762	79.7569	405.762	80.0132	405.762	80.1703	405.762	80.448	405.762	80.766	405.762	80.895	405.762	81.3509	405.762	81.3243	405.762	81.817	405.762	81.7086	405.762	82.1197	405.762	82.0144	405.762	82.2468	405.762	82.2047
420.41	85.494	420.41	85.2262	420.41	85.5816	420.41	84.7963	420.41	85.4787	420.41	84.2284	420.41	85.1855	420.41	83.5513	420.41	84.716	420.41	82.8	420.41	84.0987	420.41	82.0189	420.41	83.3763	420.41	81.266	420.41	82.6005	420.41	80.6115	420.41	81.827	420.41	80.1223	420.41	81.1141	420.41	79.8336	420.41	80.5295	420.41	79.7332	420.41	80.1554	420.41	79.778	420.41	80.0633	420.41	79.9272	420.41	80.2512	420.41	80.1587	420.41	80.6128	420.41	80.4558	420.41	80.9939	420.41	80.7856	420.41	81.2698	420.41	81.0917	420.41	81.3773	420.41	81.3077
435.059	84.8804	435.059	84.64	435.059	84.9368	435.059	84.2327	435.059	84.8019	435.059	83.6864	435.059	84.4786	435.059	83.0406	435.059	83.9838	435.059	82.346	435.059	83.3553	435.059	81.6624	435.059	82.6592	435.059	81.0561	435.059	81.9848	435.059	80.5915	435.059	81.4177	435.059	80.3178	435.059	81.0021	435.059	80.2493	435.059	80.7333	435.059	80.3526	435.059	80.593	435.059	80.5587	435.059	80.5832	435.059	80.7947	435.059	80.7106	435.059	81.0124	435.059	80.944	435.059	81.1958	435.059	81.2073	435.059	81.3482	435.059	81.4194	435.059	81.4695	435.059	81.5325	435.059	81.5413
451.172	85.655	451.172	85.2965	451.172	85.8025	451.172	84.7507	451.172	85.7124	451.172	84.0389	451.172	85.3613	451.172	83.1861	451.172	84.7418	451.172	82.2312	451.172	83.8799	451.172	81.2396	451.172	82.8528	451.172	80.3127	451.172	81.8019	451.172	79.5784	451.172	80.9182	451.172	79.1464	451.172	80.357	451.172	79.0445	451.172	80.125	451.172	79.2015	451.172	80.0975	451.172	79.4998	451.172	80.1624	451.172	79.8434	451.172	80.2949	451.172	80.1843	451.172	80.5082	451.172	80.5071	451.172	80.7756	451.172	80.7998	451.172	81.0202	451.172	81.0336	451.172	81.1639	451.172	81.1667
465.82	85.2924	465.82	84.8768	465.82	85.4573	465.82	84.2283	465.82	85.3657	465.82	83.3817	465.82	85.024	465.82	82.398	465.82	84.4535	465.82	81.3722	465.82	83.6918	465.82	80.431	465.82	82.795	465.82	79.7085	465.82	81.8498	465.82	79.2973	465.82	80.9876	465.82	79.2006	465.82	80.3577	465.82	79.3343	465.82	80.0374	465.82	79.5789	465.82	79.9742	465.82	79.8374	465.82	80.0463	465.82	80.0612	465.82	80.1604	465.82	80.2468	465.82	80.2849	465.82	80.4116	465.82	80.4225	465.82	80.5622	465.82	80.5664	465.82	80.6782	465.82	80.6813	465.82	80.7242
483.398	85.5042	483.398	85.2032	483.398	85.5826	483.398	84.6783	483.398	85.4469	483.398	83.9409	483.398	85.1087	483.398	83.0205	483.398	84.5796	483.398	81.9665	483.398	83.8701	483.398	80.8442	483.398	82.9947	483.398	79.7267	483.398	81.989	483.398	78.6973	483.398	80.9422	483.398	77.8679	483.398	80.0246	483.398	77.3791	483.398	79.4425	483.398	77.3226	483.398	79.2926	483.398	77.6402	483.398	79.4841	483.398	78.1605	483.398	79.8455	483.398	78.7311	483.398	80.2351	483.398	79.2774	483.398	80.553	483.398	79.7761	483.398	80.7288	483.398	80.2088	483.398	80.7244	483.398	80.5401
499.512	84.9108	499.512	84.5847	499.512	85.0035	499.512	84.0311	499.512	84.8647	499.512	83.2673	499.512	84.5024	499.512	82.3288	499.512	83.9312	499.512	81.279	499.512	83.1745	499.512	80.2176	499.512	82.2716	499.512	79.2794	499.512	81.288	499.512	78.6044	499.512	80.3283	499.512	78.2787	499.512	79.5369	499.512	78.2889	499.512	79.071	499.512	78.54	499.512	79.0333	499.512	78.9191	499.512	79.3953	499.512	79.3451	499.512	79.9938	499.512	79.7816	499.512	80.6237	499.512	80.2213	499.512	81.1294	499.512	80.6567	499.512	81.4292	499.512	81.0555	499.512	81.4996	499.512	81.3586
517.09	85.3832	517.09	85.0788	517.09	85.4488	517.09	84.5391	517.09	85.2877	517.09	83.7853	517.09	84.9281	517.09	82.863	517.09	84.4126	517.09	81.8437	517.09	83.7867	517.09	80.8133	517.09	83.084	517.09	79.8435	517.09	82.3161	517.09	78.9697	517.09	81.4724	517.09	78.2123	517.09	80.5267	517.09	77.6423	517.09	79.4632	517.09	77.4142	517.09	78.3599	517.09	77.6615	517.09	77.5357	517.09	78.3299	517.09	77.4953	517.09	79.2039	517.09	78.3143	517.09	80.0667	517.09	79.4642	517.09	80.7708	517.09	80.4608	517.09	81.2208	517.09	81.1023	517.09	81.348
536.133	85.6922	536.133	85.3906	536.133	85.6104	536.133	84.7064	536.133	85.161	536.133	83.6591	536.133	84.3821	536.133	82.2987	536.133	83.3575	536.133	80.7428	536.133	82.2723	536.133	79.2584	536.133	81.4428	536.133	78.2888	536.133	81.1456	536.133	78.1156	536.133	81.3109	536.133	78.4591	536.133	81.5776	536.133	78.8176	536.133	81.6043	536.133	78.8956	536.133	81.2025	536.133	78.6316	536.133	80.3327	536.133	78.1451	536.133	79.1277	536.133	77.7262	536.133	78.0018	536.133	77.7029	536.133	77.5679	536.133	78.0981	536.133	77.9273	536.133	78.5668	536.133	78.4892	536.133	78.7477
555.176	86.6697	555.176	86.4331	555.176	86.5742	555.176	85.8789	555.176	86.13	555.176	85.0189	555.176	85.3172	555.176	83.8567	555.176	84.1094	555.176	82.3744	555.176	82.4748	555.176	80.5188	555.176	80.4392	555.176	78.2243	555.176	78.3992	555.176	75.6103	555.176	77.5914	555.176	73.6703	555.176	78.5839	555.176	73.9645	555.176	80.0488	555.176	75.5369	555.176	81.0522	555.176	76.8549	555.176	81.3738	555.176	77.5099	555.176	81.0087	555.176	77.5178	555.176	80.0204	555.176	77.0324	555.176	78.5754	555.176	76.3248	555.176	77.0385	555.176	75.7309	555.176	75.927	555.176	75.5264
574.219	86.1754	574.219	86.0792	574.219	86.058	574.219	85.7529	574.219	85.729	574.219	85.174	574.219	85.1592	574.219	84.3127	574.219	84.2795	574.219	83.1305	574.219	82.9921	574.219	81.5855	574.219	81.1904	574.219	79.6381	574.219	78.8057	574.219	77.2582	574.219	76.1654	574.219	74.5164	574.219	75.1277	574.219	72.1667	574.219	76.8123	574.219	72.169	574.219	78.9436	574.219	74.1486	574.219	80.4073	574.219	76.0806	574.219	81.1334	574.219	77.3689	574.219	81.2385	574.219	78.0759	574.219	80.8775	574.219	78.4191	574.219	80.2439	574.219	78.6562	574.219	79.5576	574.219	79.0051
594.727	85.8638	594.727	85.9838	594.727	85.607	594.727	85.9494	594.727	85.2182	594.727	85.7368	594.727	84.677	594.727	85.3157	594.727	83.9343	594.727	84.6491	594.727	82.9245	594.727	83.6957	594.727	81.5706	594.727	82.4007	594.727	79.7506	594.727	80.6668	594.727	77.3034	594.727	78.3002	594.727	74.5405	594.727	74.9535	594.727	73.9002	594.727	70.4285	594.727	76.181	594.727	68.7543	594.727	78.5102	594.727	72.4343	594.727	80.0707	594.727	75.5056	594.727	80.9645	594.727	77.5128	594.727	81.3564	594.727	78.8699	594.727	81.3677	594.727	79.8436	594.727	81.0848	594.727	80.5686
615.234	85.9188	615.234	85.9623	615.234	85.8123	615.234	85.9797	615.234	85.5801	615.234	85.972	615.234	85.1604	615.234	85.9101	615.234	84.5223	615.234	85.7495	615.234	83.6674	615.234	85.4485	615.234	82.5757	615.234	84.9761	615.234	81.1246	615.234	84.3008	615.234	79.0387	615.234	83.3689	615.234	75.8584	615.234	82.0912	615.234	71.2571	615.234	80.3443	615.234	70.3699	615.234	77.9852	615.234	74.8469	615.234	74.9693	615.234	78.0537	615.234	72.251	615.234	79.9237	615.234	72.8256	615.234	80.8691	615.234	75.5929	615.234	81.1048	615.234	78.0198	615.234	80.7165	615.234	79.707
637.207	86.7914	637.207	86.4281	637.207	86.9403	637.207	85.8993	637.207	86.8553	637.207	85.2802	637.207	86.5499	637.207	84.6646	637.207	86.0613	637.207	84.1439	637.207	85.4138	637.207	83.774	637.207	84.5872	637.207	83.5433	637.207	83.526	637.207	83.3631	637.207	82.1656	637.207	83.0965	637.207	80.4241	637.207	82.6163	637.207	78.1999	637.207	81.8597	637.207	75.5909	637.207	80.8575	637.207	73.7826	637.207	79.7484	637.207	74.5622	637.207	78.7922	637.207	76.6099	637.207	78.3175	637.207	78.3475	637.207	78.4831	637.207	79.4203	637.207	79.0644	637.207	79.8168	637.207	79.6286
659.18	86.3391	659.18	86.0951	659.18	86.3678	659.18	85.6424	659.18	86.1845	659.18	85.0081	659.18	85.796	659.18	84.2493	659.18	85.2071	659.18	83.4503	659.18	84.4253	659.18	82.7001	659.18	83.4921	659.18	82.0684	659.18	82.5107	659.18	81.5941	659.18	81.5963	659.18	81.2765	659.18	80.7563	659.18	81.0493	659.18	79.832	659.18	80.7785	659.18	78.6119	659.18	80.3178	659.18	77.1314	659.18	79.5929	659.18	76.1296	659.18	78.7038	659.18	76.5828	659.18	78.0288	659.18	77.8921	659.18	78.0212	659.18	78.9569	659.18	78.5973	659.18	79.3898	659.18	79.2013
682.617	86.4439	682.617	86.1484	682.617	86.405	682.617	85.5409	682.617	86.0288	682.617	84.6722	682.617	85.3288	682.617	83.6318	682.617	84.335	682.617	82.5513	682.617	83.104	682.617	81.5897	682.617	81.7554	682.617	80.9036	682.617	80.5315	682.617	80.5997	682.617	79.757	682.617	80.6552	682.617	79.5139	682.617	80.8795	682.617	79.4656	682.617	81.0116	682.617	79.2798	682.617	80.8544	682.617	78.9263	682.617	80.334	682.617	78.5636	682.617	79.5412	682.617	78.3548	682.617	78.8005	682.617	78.4203	682.617	78.5394	682.617	78.7438	682.617	78.7791	682.617	79.0574	682.617	79.0712
707.52	86.1852	707.52	85.8223	707.52	86.2545	707.52	85.1749	707.52	86.0493	707.52	84.3089	707.52	85.581	707.52	83.3447	707.52	84.836	707.52	82.4039	707.52	83.8013	707.52	81.5246	707.52	82.4956	707.52	80.6398	707.52	80.9282	707.52	79.6958	707.52	79.0496	707.52	78.8513	707.52	76.9743	707.52	78.4929	707.52	75.5033	707.52	78.772	707.52	75.4921	707.52	79.3044	707.52	76.2689	707.52	79.6035	707.52	77.0119	707.52	79.4297	707.52	77.6186	707.52	78.8572	707.52	78.1665	707.52	78.2773	707.52	78.5615	707.52	78.1364	707.52	78.6383	707.52	78.3991
732.422	86.2084	732.422	86.0014	732.422	86.08	732.422	85.4763	732.422	85.6451	732.422	84.7018	732.422	84.9559	732.422	83.7736	732.422	84.0588	732.422	82.7603	732.422	82.9712	732.422	81.6765	732.422	81.6722	732.422	80.5474	732.422	80.1189	732.422	79.507	732.422	78.3665	732.422	78.7803	732.422	76.8874	732.422	78.5178	732.422	76.4732	732.422	78.6674	732.422	76.9167	732.422	79.0175	732.422	77.3019	732.422	79.3103	732.422	77.3855	732.422	79.3488	732.422	77.5871	732.422	79.0894	732.422	78.1495	732.422	78.7131	732.422	78.6927	732.422	78.5478	732.422	78.8601	732.422	78.6972
757.324	86.5011	757.324	86.1754	757.324	86.4632	757.324	85.5505	757.324	86.0431	757.324	84.716	757.324	85.2739	757.324	83.7535	757.324	84.2253	757.324	82.7015	757.324	82.9625	757.324	81.5392	757.324	81.507	757.324	80.214	757.324	79.8346	757.324	78.7814	757.324	77.9704	757.324	77.684	757.324	76.3121	757.324	77.5939	757.324	75.7405	757.324	78.3276	757.324	76.3394	757.324	79.0473	757.324	77.1696	757.324	79.2912	757.324	77.6813	757.324	79.0438	757.324	77.9261	757.324	78.5787	757.324	78.22	757.324	78.3171	757.324	78.6387	757.324	78.4711	757.324	78.8966	757.324	78.7935
785.156	86.3207	785.156	85.9708	785.156	86.3493	785.156	85.3706	785.156	86.0245	785.156	84.629	785.156	85.34	785.156	83.8677	785.156	84.3059	785.156	83.1515	785.156	82.99	785.156	82.414	785.156	81.5407	785.156	81.4522	785.156	80.0027	785.156	80.0177	785.156	78.0824	785.156	77.9817	785.156	75.376	785.156	75.6483	785.156	72.4518	785.156	74.4035	785.156	71.9897	785.156	75.6048	785.156	73.4886	785.156	77.655	785.156	74.7787	785.156	79.0318	785.156	75.7538	785.156	79.4771	785.156	76.6058	785.156	79.2145	785.156	77.2665	785.156	78.637	785.156	77.7114	785.156	78.1072
811.523	86.1236	811.523	85.9955	811.523	85.9753	811.523	85.5985	811.523	85.5562	811.523	84.993	811.523	84.849	811.523	84.2642	811.523	83.8622	811.523	83.434	811.523	82.69	811.523	82.4161	811.523	81.3582	811.523	81.0892	811.523	79.6131	811.523	79.4294	811.523	77.0843	811.523	77.6323	811.523	73.6673	811.523	76.2006	811.523	70.846	811.523	75.8043	811.523	71.7051	811.523	76.5613	811.523	73.4945	811.523	77.7082	811.523	74.2138	811.523	78.5583	811.523	74.5124	811.523	78.9813	811.523	75.5785	811.523	79.15	811.523	77.1837	811.523	79.2021	811.523	78.4277	811.523	79.0452
840.82	86.3918	840.82	86.3612	840.82	86.0858	840.82	86.0049	840.82	85.5263	840.82	85.4272	840.82	84.8287	840.82	84.7259	840.82	84.1038	840.82	83.8979	840.82	83.4179	840.82	82.8725	840.82	82.6816	840.82	81.6007	840.82	81.6491	840.82	80.107	840.82	80.0841	840.82	78.4785	840.82	77.7478	840.82	76.6382	840.82	74.0969	840.82	74.4933	840.82	68.3586	840.82	73.6066	840.82	66.9736	840.82	75.3214	840.82	71.1054	840.82	77.2995	840.82	73.5993	840.82	78.5605	840.82	75.4291	840.82	79.2082	840.82	77.1061	840.82	79.3986	840.82	78.4124	840.82	79.1619
870.117	85.6655	870.117	85.5335	870.117	85.3724	870.117	85.0418	870.117	84.6409	870.117	84.2529	870.117	83.5636	870.117	83.1644	870.117	82.3656	870.117	81.7481	870.117	81.2505	870.117	80.1188	870.117	80.2405	870.117	78.6916	870.117	79.4124	870.117	78.0313	870.117	78.9525	870.117	78.2563	870.117	78.6959	870.117	78.7753	870.117	78.16	870.117	78.8493	870.117	77.1696	870.117	78.1273	870.117	75.9868	870.117	76.7138	870.117	74.7489	870.117	75.2515	870.117	73.8785	870.117	75.2176	870.117	75.2469	870.117	77.0546	870.117	77.9392	870.117	79.0338	870.117	79.6965	870.117	80.031
900.879	85.7573	900.879	85.9437	900.879	85.2469	900.879	85.7621	900.879	84.4901	900.879	85.1607	900.879	83.6008	900.879	84.073	900.879	82.6488	900.879	82.4789	900.879	81.5687	900.879	80.4995	900.879	80.2239	900.879	78.4242	900.879	78.5244	900.879	76.5937	900.879	76.3429	900.879	75.2495	900.879	73.5659	900.879	74.8164	900.879	71.062	900.879	75.9129	900.879	71.0664	900.879	77.7224	900.879	72.8611	900.879	78.9785	900.879	74.4133	900.879	79.2724	900.879	75.2001	900.879	78.749	900.879	75.8374	900.879	78.0348	900.879	77.0285	900.879	77.955	900.879	78.0807	900.879	78.2876
933.105	85.1182	933.105	85.2082	933.105	84.5452	933.105	84.8926	933.105	83.467	933.105	84.2023	933.105	82.0542	933.105	83.106	933.105	80.6251	933.105	81.5654	933.105	79.3021	933.105	79.6338	933.105	78.0314	933.105	77.543	933.105	77.0117	933.105	75.6402	933.105	76.4034	933.105	74.3995	933.105	75.7454	933.105	74.3126	933.105	74.5024	933.105	75.1016	933.105	73.1049	933.105	76.1718	933.105	72.9362	933.105	77.1625	933.105	73.6881	933.105	77.7814	933.105	74.0512	933.105	77.8533	933.105	74.1952	933.105	77.5006	933.105	75.0081	933.105	77.1194	933.105	76.1358	933.105	76.8089
965.332	84.8515	965.332	85.4074	965.332	84.0029	965.332	85.5221	965.332	82.9758	965.332	85.0946	965.332	81.8002	965.332	84.1513	965.332	80.4959	965.332	82.8745	965.332	79.1977	965.332	81.5182	965.332	77.9316	965.332	80.2352	965.332	76.3573	965.332	78.935	965.332	73.9631	965.332	77.2592	965.332	70.1223	965.332	74.5809	965.332	66.3448	965.332	70.4179	965.332	68.3614	965.332	70.4991	965.332	70.6995	965.332	75.151	965.332	71.8912	965.332	77.9274	965.332	72.9457	965.332	78.9419	965.332	74.6154	965.332	78.7551	965.332	76.4649	965.332	78.1907	965.332	77.6178	965.332	77.9587
1,000.49	84.81	1,000.49	85.3985	1,000.49	83.6298	1,000.49	85.4241	1,000.49	81.9643	1,000.49	84.932	1,000.49	80.1952	1,000.49	83.9572	1,000.49	78.7342	1,000.49	82.5638	1,000.49	77.5466	1,000.49	80.9275	1,000.49	76.6401	1,000.49	79.3719	1,000.49	76.2496	1,000.49	78.2026	1,000.49	76.1154	1,000.49	77.4534	1,000.49	75.6161	1,000.49	76.8434	1,000.49	74.2257	1,000.49	76.0552	1,000.49	71.854	1,000.49	75.0691	1,000.49	70.2475	1,000.49	74.3282	1,000.49	70.795	1,000.49	74.6253	1,000.49	69.8055	1,000.49	75.6398	1,000.49	66.4915	1,000.49	76.279	1,000.49	68.6226	1,000.49	76.0982	1,000.49	72.706	1,000.49	75.0049
1,035.64	84.8918	1,035.64	85.4104	1,035.64	83.884	1,035.64	85.3373	1,035.64	82.5439	1,035.64	84.6113	1,035.64	81.093	1,035.64	83.2864	1,035.64	79.7786	1,035.64	81.6035	1,035.64	78.8108	1,035.64	79.8235	1,035.64	78.0786	1,035.64	77.852	1,035.64	77.1259	1,035.64	75.1993	1,035.64	75.8359	1,035.64	71.7872	1,035.64	74.7552	1,035.64	70.6783	1,035.64	73.981	1,035.64	73.1028	1,035.64	72.7686	1,035.64	75.2102	1,035.64	71.5788	1,035.64	76.3885	1,035.64	71.9797	1,035.64	76.9134	1,035.64	72.5461	1,035.64	76.893	1,035.64	72.2018	1,035.64	76.4565	1,035.64	72.8964	1,035.64	76.0095	1,035.64	74.6199	1,035.64	75.6194
1,072.27	84.7435	1,072.27	84.9645	1,072.27	83.7949	1,072.27	84.6213	1,072.27	82.1495	1,072.27	83.9196	1,072.27	80.0978	1,072.27	82.9556	1,072.27	78.1159	1,072.27	81.7046	1,072.27	76.8754	1,072.27	80.2574	1,072.27	76.4661	1,072.27	78.9496	1,072.27	75.7952	1,072.27	77.8472	1,072.27	74.0427	1,072.27	76.3236	1,072.27	71.2581	1,072.27	73.8114	1,072.27	69.3561	1,072.27	71.2945	1,072.27	71.1854	1,072.27	71.2751	1,072.27	72.5415	1,072.27	73.0257	1,072.27	72.3511	1,072.27	74.8243	1,072.27	71.434	1,072.27	76.076	1,072.27	70.293	1,072.27	76.5958	1,072.27	71.067	1,072.27	76.4281	1,072.27	73.7272	1,072.27	75.5822
1,108.89	84.7621	1,108.89	85.1654	1,108.89	83.3562	1,108.89	84.6369	1,108.89	81.2781	1,108.89	83.4486	1,108.89	79.3172	1,108.89	81.9374	1,108.89	77.9401	1,108.89	80.3955	1,108.89	77.0832	1,108.89	79.0879	1,108.89	76.8308	1,108.89	78.2506	1,108.89	76.8344	1,108.89	77.7322	1,108.89	76.1812	1,108.89	76.7805	1,108.89	73.8453	1,108.89	74.5651	1,108.89	69.266	1,108.89	70.8571	1,108.89	68.1849	1,108.89	69.3387	1,108.89	71.7203	1,108.89	72.9002	1,108.89	73.2489	1,108.89	75.7918	1,108.89	72.0973	1,108.89	76.9856	1,108.89	69.1197	1,108.89	76.815	1,108.89	71.0659	1,108.89	75.9655	1,108.89	73.9352	1,108.89	75.1483
1,148.44	84.3922	1,148.44	85.1515	1,148.44	82.7985	1,148.44	85.1352	1,148.44	80.4404	1,148.44	84.4355	1,148.44	77.8376	1,148.44	83.1194	1,148.44	76.2198	1,148.44	81.4204	1,148.44	75.8757	1,148.44	79.999	1,148.44	75.9709	1,148.44	79.2925	1,148.44	75.8487	1,148.44	78.679	1,148.44	74.742	1,148.44	76.9613	1,148.44	72.0441	1,148.44	73.4662	1,148.44	67.7675	1,148.44	68.6246	1,148.44	68.0371	1,148.44	66.7192	1,148.44	72.1694	1,148.44	71.5772	1,148.44	75.1121	1,148.44	74.4265	1,148.44	75.9285	1,148.44	75.5575	1,148.44	73.7215	1,148.44	75.6478	1,148.44	69.659	1,148.44	74.8868	1,148.44	70.8938	1,148.44	73.3701
1,189.45	83.3559	1,189.45	84.4112	1,189.45	81.2266	1,189.45	84.5831	1,189.45	78.1336	1,189.45	83.9258	1,189.45	75.6481	1,189.45	82.4762	1,189.45	75.443	1,189.45	80.6729	1,189.45	75.9006	1,189.45	79.2401	1,189.45	76.1031	1,189.45	78.5008	1,189.45	76.3112	1,189.45	78.3799	1,189.45	76.536	1,189.45	78.0415	1,189.45	75.9331	1,189.45	77.0098	1,189.45	73.2828	1,189.45	75.0535	1,189.45	67.1591	1,189.45	69.6504	1,189.45	57.6509	1,189.45	53.148	1,189.45	68.0203	1,189.45	70.5352	1,189.45	72.8951	1,189.45	75.1646	1,189.45	73.9708	1,189.45	77.3845	1,189.45	73.501	1,189.45	77.969	1,189.45	75.0345	1,189.45	77.0776
1,230.47	85.2232	1,230.47	86.1693	1,230.47	83.1672	1,230.47	86.2889	1,230.47	80.3383	1,230.47	85.6955	1,230.47	78.8288	1,230.47	84.4183	1,230.47	78.8453	1,230.47	82.8228	1,230.47	78.6115	1,230.47	81.0397	1,230.47	78.2709	1,230.47	78.3098	1,230.47	77.8602	1,230.47	75.2873	1,230.47	76.7721	1,230.47	74.5724	1,230.47	74.459	1,230.47	75.5488	1,230.47	70.7568	1,230.47	75.6712	1,230.47	68.2689	1,230.47	73.7514	1,230.47	66.9644	1,230.47	71.2338	1,230.47	69.6489	1,230.47	70.0816	1,230.47	71.3222	1,230.47	71.4266	1,230.47	70.2766	1,230.47	74.498	1,230.47	72.0216	1,230.47	76.3399	1,230.47	74.7497	1,230.47	76.2905
1,274.41	84.088	1,274.41	85.3233	1,274.41	82.1701	1,274.41	85.8987	1,274.41	79.5479	1,274.41	85.4977	1,274.41	77.8281	1,274.41	84.0959	1,274.41	78.281	1,274.41	82.4157	1,274.41	78.6542	1,274.41	80.8444	1,274.41	78.1371	1,274.41	78.6	1,274.41	77.2573	1,274.41	75.5525	1,274.41	76.9521	1,274.41	73.7038	1,274.41	76.4008	1,274.41	73.3996	1,274.41	74.1941	1,274.41	71.9006	1,274.41	70.7435	1,274.41	69.3107	1,274.41	70.1156	1,274.41	70.649	1,274.41	71.4828	1,274.41	72.9455	1,274.41	70.6521	1,274.41	73.3179	1,274.41	67.7528	1,274.41	73.4877	1,274.41	69.1856	1,274.41	74.3988	1,274.41	72.8886	1,274.41	74.5449
1,319.82	83.7089	1,319.82	85.0619	1,319.82	81.6853	1,319.82	85.5758	1,319.82	79.6876	1,319.82	85.0212	1,319.82	78.7297	1,319.82	83.8197	1,319.82	78.3349	1,319.82	82.6605	1,319.82	79.0213	1,319.82	80.9565	1,319.82	79.4201	1,319.82	77.9101	1,319.82	78.7859	1,319.82	74.1193	1,319.82	77.7964	1,319.82	73.6642	1,319.82	75.7157	1,319.82	75.3589	1,319.82	71.7888	1,319.82	74.3472	1,319.82	69.0934	1,319.82	69.2593	1,319.82	66.9702	1,319.82	64.7768	1,319.82	69.002	1,319.82	70.0633	1,319.82	74.0755	1,319.82	72.665	1,319.82	73.318	1,319.82	74.4117	1,319.82	69.5413	1,319.82	75.8114	1,319.82	73.5997	1,319.82	75.981
1,366.7	83.8658	1,366.7	85.2318	1,366.7	81.7631	1,366.7	85.6192	1,366.7	79.244	1,366.7	85.0776	1,366.7	77.1283	1,366.7	84.1283	1,366.7	77.5388	1,366.7	82.7492	1,366.7	78.9434	1,366.7	80.2478	1,366.7	78.7503	1,366.7	76.3755	1,366.7	77.8479	1,366.7	71.5964	1,366.7	77.8943	1,366.7	66.5214	1,366.7	77.3481	1,366.7	70.9418	1,366.7	74.887	1,366.7	73.8848	1,366.7	70.0382	1,366.7	72.2835	1,366.7	62.1309	1,366.7	65.6498	1,366.7	69.1872	1,366.7	60.7602	1,366.7	72.3324	1,366.7	69.8368	1,366.7	69.4327	1,366.7	74.116	1,366.7	67.701	1,366.7	75.6897	1,366.7	72.785	1,366.7	75.2214
1,413.57	83.8986	1,413.57	84.8585	1,413.57	81.4549	1,413.57	85.1981	1,413.57	76.907	1,413.57	85.257	1,413.57	75.8188	1,413.57	84.9123	1,413.57	79.0562	1,413.57	83.5674	1,413.57	80.4548	1,413.57	80.4658	1,413.57	78.7577	1,413.57	76.3944	1,413.57	75.6249	1,413.57	75.9538	1,413.57	76.4635	1,413.57	77.0196	1,413.57	77.2968	1,413.57	73.1987	1,413.57	76.3842	1,413.57	68.424	1,413.57	75.6888	1,413.57	71.0636	1,413.57	69.2439	1,413.57	71.1732	1,413.57	69.4574	1,413.57	72.2036	1,413.57	70.3077	1,413.57	74.0466	1,413.57	65.5161	1,413.57	73.7043	1,413.57	69.4179	1,413.57	74.0114	1,413.57	71.8682	1,413.57	73.7393
1,463.38	84.5354	1,463.38	85.4308	1,463.38	80.8139	1,463.38	84.7775	1,463.38	75.2236	1,463.38	84.1788	1,463.38	77.069	1,463.38	84.2734	1,463.38	78.1155	1,463.38	83.5522	1,463.38	79.508	1,463.38	80.6567	1,463.38	79.7659	1,463.38	76.8023	1,463.38	77.4069	1,463.38	76.0758	1,463.38	75.5102	1,463.38	76.354	1,463.38	76.0999	1,463.38	72.2393	1,463.38	74.8907	1,463.38	65.5607	1,463.38	73.9852	1,463.38	63.1047	1,463.38	70.8952	1,463.38	61.967	1,463.38	70.1386	1,463.38	66.8604	1,463.38	69.638	1,463.38	74.1312	1,463.38	59.9381	1,463.38	74.2754	1,463.38	71.0679	1,463.38	74.805	1,463.38	70.8949	1,463.38	73.1291
1,516.11	84.5018	1,516.11	85.5055	1,516.11	80.7268	1,516.11	85.2471	1,516.11	72.9503	1,516.11	84.5054	1,516.11	76.3233	1,516.11	83.39	1,516.11	78.2772	1,516.11	81.2828	1,516.11	80.2914	1,516.11	79.0111	1,516.11	80.8981	1,516.11	78.6526	1,516.11	79.4228	1,516.11	76.4805	1,516.11	75.1348	1,516.11	75.2075	1,516.11	67.5623	1,516.11	75.7021	1,516.11	74.9364	1,516.11	75.9108	1,516.11	77.9949	1,516.11	75.2806	1,516.11	72.3759	1,516.11	72.2872	1,516.11	68.2955	1,516.11	72.4006	1,516.11	75.1989	1,516.11	73.3262	1,516.11	72.0802	1,516.11	66.1727	1,516.11	61.9765	1,516.11	68.2775	1,516.11	74.6788	1,516.11	75.0724
1,568.85	85.4511	1,568.85	86.7289	1,568.85	80.6257	1,568.85	86.0229	1,568.85	76.264	1,568.85	84.5511	1,568.85	77.3504	1,568.85	83.363	1,568.85	79.8534	1,568.85	81.7916	1,568.85	82.6359	1,568.85	79.6462	1,568.85	82.3649	1,568.85	76.8146	1,568.85	81.6477	1,568.85	64.414	1,568.85	80.0032	1,568.85	67.4216	1,568.85	77.1482	1,568.85	66.2022	1,568.85	73.8215	1,568.85	65.9952	1,568.85	74.2491	1,568.85	73.021	1,568.85	70.8596	1,568.85	73.5879	1,568.85	72.949	1,568.85	58.5464	1,568.85	74.7484	1,568.85	71.4351	1,568.85	70.9636	1,568.85	73.2563	1,568.85	68.4604	1,568.85	72.8491	1,568.85	73.3926	1,568.85	75.2833
1,624.51	85.2838	1,624.51	86.7052	1,624.51	80.3644	1,624.51	86.8362	1,624.51	71.0145	1,624.51	86.1413	1,624.51	78.8477	1,624.51	83.2399	1,624.51	83.2521	1,624.51	79.0412	1,624.51	85.6828	1,624.51	80.2274	1,624.51	84.0745	1,624.51	80.1437	1,624.51	80.9212	1,624.51	71.8589	1,624.51	78.6541	1,624.51	68.9148	1,624.51	76.6136	1,624.51	73.3506	1,624.51	73.6109	1,624.51	67.8648	1,624.51	69.6528	1,624.51	71.7315	1,624.51	74.5069	1,624.51	73.3097	1,624.51	69.7296	1,624.51	48.096	1,624.51	69.4051	1,624.51	69.3077	1,624.51	75.1494	1,624.51	72.3034	1,624.51	68.2699	1,624.51	72.8461	1,624.51	72.6995	1,624.51	74.943
1,681.64	84.3969	1,681.64	86.8905	1,681.64	79.7007	1,681.64	87.8332	1,681.64	75.5173	1,681.64	86.5354	1,681.64	82.1338	1,681.64	83.0075	1,681.64	84.7022	1,681.64	79.5512	1,681.64	84.9467	1,681.64	75.6719	1,681.64	82.9217	1,681.64	73.8402	1,681.64	84.4317	1,681.64	67.9453	1,681.64	84.5601	1,681.64	67.1781	1,681.64	81.2976	1,681.64	64.5887	1,681.64	77.8489	1,681.64	68.2196	1,681.64	74.8774	1,681.64	67.4336	1,681.64	67.2783	1,681.64	69.5355	1,681.64	66.8963	1,681.64	70.7593	1,681.64	74.2857	1,681.64	66.9463	1,681.64	73.2629	1,681.64	76.9564	1,681.64	66.2936	1,681.64	74.7051	1,681.64	70.7307	1,681.64	74.3139
1,741.7	84.8842	1,741.7	86.9243	1,741.7	80.5372	1,741.7	87.909	1,741.7	73.6036	1,741.7	87.5738	1,741.7	80.6841	1,741.7	85.2806	1,741.7	82.2692	1,741.7	82.5416	1,741.7	82.3111	1,741.7	78.6882	1,741.7	82.5703	1,741.7	67.5604	1,741.7	82.637	1,741.7	63.8051	1,741.7	80.4506	1,741.7	73.9658	1,741.7	78.903	1,741.7	70.7866	1,741.7	75.0946	1,741.7	74.3679	1,741.7	70.5853	1,741.7	76.3548	1,741.7	70.9108	1,741.7	73.0747	1,741.7	74.3362	1,741.7	69.6363	1,741.7	74.0254	1,741.7	55.1392	1,741.7	66.5323	1,741.7	77.0826	1,741.7	68.661	1,741.7	74.3962	1,741.7	68.1203	1,741.7	72.7573
1,803.22	85.9071	1,803.22	87.2401	1,803.22	80.0132	1,803.22	87.3657	1,803.22	67.2754	1,803.22	86.5296	1,803.22	77.6088	1,803.22	84.1456	1,803.22	83.3895	1,803.22	83.0249	1,803.22	84.7653	1,803.22	79.7748	1,803.22	82.7966	1,803.22	73.4918	1,803.22	82.1003	1,803.22	74.4846	1,803.22	81.7777	1,803.22	74.7546	1,803.22	81.521	1,803.22	69.0508	1,803.22	78.2381	1,803.22	73.0497	1,803.22	72.6105	1,803.22	72.9048	1,803.22	71.8297	1,803.22	68.3388	1,803.22	75.2276	1,803.22	79.167	1,803.22	79.5436	1,803.22	72.6025	1,803.22	73.3486	1,803.22	74.5499	1,803.22	70.1592	1,803.22	73.9184	1,803.22	71.5001	1,803.22	66.1735
1,866.21	85.3477	1,866.21	86.9702	1,866.21	80.1275	1,866.21	87.2629	1,866.21	71.4259	1,866.21	84.706	1,866.21	80.8393	1,866.21	82.1401	1,866.21	84.9388	1,866.21	81.0079	1,866.21	85.3668	1,866.21	75.9294	1,866.21	83.9838	1,866.21	79.9118	1,866.21	80.7013	1,866.21	73.7957	1,866.21	74.84	1,866.21	68.3487	1,866.21	73.1185	1,866.21	78.5381	1,866.21	75.4738	1,866.21	76.0296	1,866.21	75.4821	1,866.21	72.2846	1,866.21	74.779	1,866.21	77.1722	1,866.21	58.6431	1,866.21	75.2404	1,866.21	76.1816	1,866.21	66.8439	1,866.21	76.3354	1,866.21	61.3656	1,866.21	54.0202	1,866.21	75.4482	1,866.21	73.4535	1,866.21	76.2713
1,932.13	84.8027	1,932.13	88.0475	1,932.13	79.5944	1,932.13	87.8232	1,932.13	68.6798	1,932.13	84.4639	1,932.13	82.8203	1,932.13	83.1826	1,932.13	84.1832	1,932.13	80.0522	1,932.13	85.0606	1,932.13	78.3812	1,932.13	85.1121	1,932.13	77.4835	1,932.13	80.4109	1,932.13	70.2096	1,932.13	70.56	1,932.13	78.3179	1,932.13	65.2447	1,932.13	81.1998	1,932.13	64.9874	1,932.13	80.6609	1,932.13	71.4434	1,932.13	72.8244	1,932.13	74.5721	1,932.13	76.2486	1,932.13	73.0782	1,932.13	76.7918	1,932.13	69.7031	1,932.13	67.8863	1,932.13	74.0756	1,932.13	62.2325	1,932.13	61.1029	1,932.13	73.3332	1,932.13	70.8003	1,932.13	73.8742
1,999.51	84.5068	1,999.51	87.8644	1,999.51	75.9494	1,999.51	87.0066	1,999.51	62.9066	1,999.51	86.0222	1,999.51	79.5253	1,999.51	85.8004	1,999.51	85.9417	1,999.51	83.1679	1,999.51	84.6618	1,999.51	82.8602	1,999.51	80.2892	1,999.51	77.5432	1,999.51	81.3908	1,999.51	73.8075	1,999.51	82.432	1,999.51	79.9855	1,999.51	79.6435	1,999.51	78.48	1,999.51	75.6552	1,999.51	75.3698	1,999.51	75.7262	1,999.51	72.6316	1,999.51	64.0828	1,999.51	69.7386	1,999.51	75.8793	1,999.51	77.0553	1,999.51	75.3477	1,999.51	75.4719	1,999.51	72.6164	1,999.51	68.06	1,999.51	68.4354	1,999.51	72.3386	1,999.51	72.2597	1,999.51	72.5197
2,069.82	84.1462	2,069.82	86.6198	2,069.82	77.7172	2,069.82	86.5179	2,069.82	76.4303	2,069.82	85.9011	2,069.82	82.6132	2,069.82	83.2611	2,069.82	84.9279	2,069.82	81.3885	2,069.82	83.3117	2,069.82	80.9717	2,069.82	83.2395	2,069.82	75.5433	2,069.82	83.2255	2,069.82	80.6343	2,069.82	79.9028	2,069.82	79.1386	2,069.82	77.4445	2,069.82	71.7731	2,069.82	74.4596	2,069.82	76.9405	2,069.82	77.4716	2,069.82	75.5244	2,069.82	74.0212	2,069.82	70.9851	2,069.82	73.9413	2,069.82	76.1936	2,069.82	76.4408	2,069.82	72.3271	2,069.82	73.933	2,069.82	71.5215	2,069.82	59.0737	2,069.82	71.6003	2,069.82	72.608	2,069.82	69.3485
2,143.07	84.2056	2,143.07	86.5389	2,143.07	79.1405	2,143.07	87.3658	2,143.07	79.0569	2,143.07	86.4129	2,143.07	83.2305	2,143.07	83.5804	2,143.07	85.8357	2,143.07	83.5681	2,143.07	84.0351	2,143.07	80.103	2,143.07	82.6997	2,143.07	78.3233	2,143.07	81.2836	2,143.07	80.8939	2,143.07	79.317	2,143.07	77.0089	2,143.07	76.9078	2,143.07	72.7027	2,143.07	70.9501	2,143.07	77.8958	2,143.07	74.4943	2,143.07	72.0238	2,143.07	76.1622	2,143.07	67.4525	2,143.07	64.3043	2,143.07	73.2806	2,143.07	72.2384	2,143.07	68.1036	2,143.07	71.9373	2,143.07	67.5437	2,143.07	57.1881	2,143.07	73.9277	2,143.07	73.8195	2,143.07	71.6541
2,219.24	85.7806	2,219.24	88.015	2,219.24	76.4585	2,219.24	86.9581	2,219.24	76.774	2,219.24	85.0451	2,219.24	80.3325	2,219.24	85.0267	2,219.24	83.6055	2,219.24	83.1416	2,219.24	85.2133	2,219.24	80.4732	2,219.24	83.1166	2,219.24	81.5305	2,219.24	80.4004	2,219.24	74.8121	2,219.24	78.2007	2,219.24	62.2202	2,219.24	77.9925	2,219.24	70.7952	2,219.24	77.7314	2,219.24	76.3204	2,219.24	65.3557	2,219.24	78.1008	2,219.24	69.9448	2,219.24	62.2438	2,219.24	71.5913	2,219.24	76.5195	2,219.24	73.4906	2,219.24	76.5211	2,219.24	63.3446	2,219.24	69.4909	2,219.24	71.6924	2,219.24	73.0123	2,219.24	73.8576	2,219.24	74.2929
2,296.88	84.1994	2,296.88	86.8118	2,296.88	79.2125	2,296.88	87.3583	2,296.88	81.3432	2,296.88	86.8522	2,296.88	84.0337	2,296.88	84.8991	2,296.88	84.1348	2,296.88	81.8525	2,296.88	83.6277	2,296.88	79.4058	2,296.88	84.4034	2,296.88	77.5376	2,296.88	82.5128	2,296.88	69.9682	2,296.88	80.3884	2,296.88	75.4083	2,296.88	77.2278	2,296.88	74.5443	2,296.88	73.5861	2,296.88	74.9122	2,296.88	68.2217	2,296.88	78.1972	2,296.88	60.8135	2,296.88	75.664	2,296.88	68.1791	2,296.88	65.2339	2,296.88	71.8355	2,296.88	75.3854	2,296.88	71.2959	2,296.88	69.3425	2,296.88	66.8224	2,296.88	74.1788	2,296.88	72.3286	2,296.88	70.4893
2,378.91	82.4486	2,378.91	85.8778	2,378.91	76.5668	2,378.91	86.8416	2,378.91	80.3891	2,378.91	85.854	2,378.91	83.9989	2,378.91	84.0548	2,378.91	84.3574	2,378.91	80.2881	2,378.91	83.1606	2,378.91	79.9469	2,378.91	82.2849	2,378.91	72.5291	2,378.91	81.2	2,378.91	75.9396	2,378.91	80.6425	2,378.91	79.3439	2,378.91	74.7998	2,378.91	76.5682	2,378.91	69.7479	2,378.91	76.2323	2,378.91	72.8336	2,378.91	75.5948	2,378.91	65.5644	2,378.91	72.3926	2,378.91	57.8057	2,378.91	62.2568	2,378.91	63.6529	2,378.91	74.867	2,378.91	69.751	2,378.91	70.6335	2,378.91	68.4027	2,378.91	67.2815	2,378.91	61.8734	2,378.91	66.8016
2,462.4	82.5321	2,462.4	85.9147	2,462.4	77.3154	2,462.4	87.0038	2,462.4	80.0696	2,462.4	86.1799	2,462.4	84.54	2,462.4	82.8751	2,462.4	84.3018	2,462.4	80.3246	2,462.4	82.31	2,462.4	78.0177	2,462.4	82.4865	2,462.4	75.6412	2,462.4	79.884	2,462.4	77.7531	2,462.4	77.6169	2,462.4	76.2631	2,462.4	76.5471	2,462.4	75.3536	2,462.4	71.2478	2,462.4	71.0249	2,462.4	70.5416	2,462.4	73.8198	2,462.4	55.6157	2,462.4	76.6049	2,462.4	64.5215	2,462.4	68.4174	2,462.4	67.7112	2,462.4	70.9274	2,462.4	65.4399	2,462.4	73.0254	2,462.4	63.7554	2,462.4	66.8176	2,462.4	65.7083	2,462.4	71.9161
2,548.83	83.6893	2,548.83	87.4656	2,548.83	79.1247	2,548.83	87.5209	2,548.83	80.7826	2,548.83	85.4655	2,548.83	83.4607	2,548.83	83.3045	2,548.83	83.6386	2,548.83	80.5454	2,548.83	82.8362	2,548.83	75.5911	2,548.83	81.4071	2,548.83	77.4302	2,548.83	78.0032	2,548.83	77.4567	2,548.83	78.3462	2,548.83	77.3071	2,548.83	78.284	2,548.83	77.0164	2,548.83	72.6199	2,548.83	71.3059	2,548.83	64.3585	2,548.83	70.2595	2,548.83	58.9219	2,548.83	76.3313	2,548.83	64.5775	2,548.83	72.6978	2,548.83	69.2233	2,548.83	67.9787	2,548.83	66.1414	2,548.83	73.8771	2,548.83	64.6825	2,548.83	70.3979	2,548.83	68.899	2,548.83	71.5978
2,639.65	83.2647	2,639.65	87.4032	2,639.65	79.2747	2,639.65	87.996	2,639.65	82.3362	2,639.65	86.2596	2,639.65	82.1553	2,639.65	82.5332	2,639.65	82.126	2,639.65	77.1281	2,639.65	82.9334	2,639.65	78.5735	2,639.65	80.4594	2,639.65	79.4249	2,639.65	78.7677	2,639.65	77.5402	2,639.65	79.7358	2,639.65	76.0332	2,639.65	78.1382	2,639.65	77.3952	2,639.65	74.852	2,639.65	76.1924	2,639.65	72.3816	2,639.65	68.6023	2,639.65	59.2543	2,639.65	76.11	2,639.65	64.7707	2,639.65	75.1173	2,639.65	68.5676	2,639.65	67.4005	2,639.65	67.0184	2,639.65	72.695	2,639.65	68.3628	2,639.65	69.7364	2,639.65	67.9717	2,639.65	70.16
2,731.93	81.8002	2,731.93	86.3155	2,731.93	78.1842	2,731.93	88.0838	2,731.93	82.7165	2,731.93	86.7026	2,731.93	82.822	2,731.93	81.9588	2,731.93	81.3982	2,731.93	80.1403	2,731.93	82.0535	2,731.93	80.8794	2,731.93	81.1459	2,731.93	79.4374	2,731.93	79.2828	2,731.93	78.6802	2,731.93	77.9099	2,731.93	78.5795	2,731.93	75.6511	2,731.93	78.4492	2,731.93	71.5762	2,731.93	77.5218	2,731.93	67.77	2,731.93	71.4208	2,731.93	68.1708	2,731.93	73.3409	2,731.93	69.0702	2,731.93	75.2687	2,731.93	67.4327	2,731.93	68.7901	2,731.93	65.3493	2,731.93	73.5843	2,731.93	70.6618	2,731.93	69.1363	2,731.93	64.68	2,731.93	69.3439
2,828.61	82.0414	2,828.61	86.7916	2,828.61	77.6407	2,828.61	87.8073	2,828.61	82.1712	2,828.61	85.6325	2,828.61	84.2267	2,828.61	81.5413	2,828.61	82.9711	2,828.61	81.4039	2,828.61	80.9882	2,828.61	80.4109	2,828.61	80.7073	2,828.61	79.5418	2,828.61	80.5977	2,828.61	79.2068	2,828.61	78.5618	2,828.61	77.3554	2,828.61	72.2096	2,828.61	75.8949	2,828.61	73.3997	2,828.61	75.2298	2,828.61	72.3928	2,828.61	72.5118	2,828.61	69.3132	2,828.61	70.4275	2,828.61	67.5277	2,828.61	74.7359	2,828.61	69.8649	2,828.61	69.548	2,828.61	59.4936	2,828.61	71.9303	2,828.61	69.2495	2,828.61	70.847	2,828.61	58.8638	2,828.61	68.6242
2,928.22	83.9974	2,928.22	88.4882	2,928.22	79.3755	2,928.22	87.6186	2,928.22	83.4444	2,928.22	83.0996	2,928.22	85.469	2,928.22	81.01	2,928.22	84.1645	2,928.22	81.1058	2,928.22	80.3483	2,928.22	78.9769	2,928.22	81.3294	2,928.22	78.2115	2,928.22	82.0676	2,928.22	75.3231	2,928.22	78.462	2,928.22	70.1435	2,928.22	74.9165	2,928.22	73.0478	2,928.22	74.9152	2,928.22	75.0012	2,928.22	72.7165	2,928.22	72.9404	2,928.22	70.3449	2,928.22	66.6929	2,928.22	66.8019	2,928.22	72.6469	2,928.22	70.2344	2,928.22	71.44	2,928.22	63.5785	2,928.22	70.4597	2,928.22	66.974	2,928.22	70.5901	2,928.22	57.6937	2,928.22	69.4291
3,030.76	85.6919	3,030.76	89.6545	3,030.76	81.592	3,030.76	88.5794	3,030.76	84.8999	3,030.76	84.3262	3,030.76	84.9342	3,030.76	82.3548	3,030.76	83.0091	3,030.76	81.0506	3,030.76	80.2813	3,030.76	78.1125	3,030.76	79.5486	3,030.76	74.2955	3,030.76	79.7535	3,030.76	74.4726	3,030.76	74.1913	3,030.76	76.385	3,030.76	76.3466	3,030.76	74.7436	3,030.76	75.1358	3,030.76	73.884	3,030.76	74.65	3,030.76	73.7337	3,030.76	66.3722	3,030.76	67.682	3,030.76	68.7709	3,030.76	70.4832	3,030.76	68.7074	3,030.76	72.2946	3,030.76	66.7929	3,030.76	70.1748	3,030.76	68.8376	3,030.76	71.3085	3,030.76	52.318	3,030.76	69.4624
3,137.7	85.2407	3,137.7	89.3972	3,137.7	82.6655	3,137.7	88.2813	3,137.7	86.3618	3,137.7	84.4325	3,137.7	84.8804	3,137.7	83.098	3,137.7	81.5422	3,137.7	80.1283	3,137.7	80.64	3,137.7	78.7939	3,137.7	80.4193	3,137.7	79.7529	3,137.7	79.5819	3,137.7	80.6612	3,137.7	74.5875	3,137.7	78.1873	3,137.7	78.885	3,137.7	75.1091	3,137.7	74.824	3,137.7	75.6078	3,137.7	70.4407	3,137.7	74.4207	3,137.7	68.8193	3,137.7	73.6634	3,137.7	68.858	3,137.7	69.6043	3,137.7	68.815	3,137.7	72.3532	3,137.7	61.8012	3,137.7	70.9274	3,137.7	69.3033	3,137.7	71.6958	3,137.7	58.8385	3,137.7	70.4374
3,249.02	84.8909	3,249.02	89.1391	3,249.02	82.2253	3,249.02	87.3849	3,249.02	87.42	3,249.02	84.6913	3,249.02	86.4785	3,249.02	83.827	3,249.02	80.8428	3,249.02	80.9784	3,249.02	80.856	3,249.02	82.2372	3,249.02	83.1335	3,249.02	82.8762	3,249.02	81.8874	3,249.02	80.2417	3,249.02	80.1578	3,249.02	78.6302	3,249.02	81.963	3,249.02	77.7521	3,249.02	76.3968	3,249.02	77.1309	3,249.02	71.3488	3,249.02	75.8379	3,249.02	64.5224	3,249.02	73.5057	3,249.02	68.3614	3,249.02	72.8041	3,249.02	69.003	3,249.02	73.0517	3,249.02	52.1427	3,249.02	73.7855	3,249.02	68.1167	3,249.02	72.3633	3,249.02	64.6601	3,249.02	73.0345
3,363.28	84.7667	3,363.28	88.7104	3,363.28	81.618	3,363.28	86.202	3,363.28	88.2601	3,363.28	84.9234	3,363.28	88.1128	3,363.28	84.0381	3,363.28	82.6763	3,363.28	82.374	3,363.28	79.3155	3,363.28	84.199	3,363.28	84.1664	3,363.28	82.4013	3,363.28	85.1544	3,363.28	81.8062	3,363.28	84.841	3,363.28	82.1014	3,363.28	85.3945	3,363.28	78.3677	3,363.28	77.8956	3,363.28	75.6388	3,363.28	57.3082	3,363.28	75.4867	3,363.28	67.5559	3,363.28	73.4779	3,363.28	63.8013	3,363.28	72.8137	3,363.28	70.2474	3,363.28	74.1085	3,363.28	49.9604	3,363.28	73.8184	3,363.28	65.9139	3,363.28	74.3114	3,363.28	67.9844	3,363.28	72.576
3,481.93	85.1878	3,481.93	88.1441	3,481.93	78.8944	3,481.93	86.3573	3,481.93	88.0499	3,481.93	86.418	3,481.93	88.4733	3,481.93	83.0329	3,481.93	83.3766	3,481.93	84.5335	3,481.93	77.5634	3,481.93	84.7436	3,481.93	84.9538	3,481.93	82.2498	3,481.93	86.1117	3,481.93	80.8796	3,481.93	86.8262	3,481.93	77.6957	3,481.93	86.345	3,481.93	76.9724	3,481.93	78.4196	3,481.93	74.9614	3,481.93	69.8192	3,481.93	70.9599	3,481.93	66.979	3,481.93	73.21	3,481.93	66.7558	3,481.93	71.507	3,481.93	70.8057	3,481.93	70.9406	3,481.93	64.2988	3,481.93	71.3445	3,481.93	64.6542	3,481.93	72.7927	3,481.93	66.4157	3,481.93	69.5793
3,604.98	86.7386	3,604.98	88.5271	3,604.98	77.6743	3,604.98	87.656	3,604.98	86.1099	3,604.98	87.2234	3,604.98	88.4243	3,604.98	82.8489	3,604.98	84.4166	3,604.98	84.6975	3,604.98	75.7762	3,604.98	83.0992	3,604.98	86.5347	3,604.98	80.0329	3,604.98	86.8593	3,604.98	68.3729	3,604.98	87.9573	3,604.98	73.6464	3,604.98	85.2481	3,604.98	76.5356	3,604.98	71.1801	3,604.98	73.924	3,604.98	71.4139	3,604.98	72.6784	3,604.98	72.5453	3,604.98	67.6675	3,604.98	64.4256	3,604.98	72.0775	3,604.98	69.8639	3,604.98	70.269	3,604.98	66.7293	3,604.98	71.357	3,604.98	55.7975	3,604.98	70.0775	3,604.98	68.142	3,604.98	70.0907
3,732.42	86.5314	3,732.42	87.9706	3,732.42	81.4354	3,732.42	88.6092	3,732.42	86.3768	3,732.42	86.388	3,732.42	88.5377	3,732.42	82.9425	3,732.42	85.2389	3,732.42	84.5682	3,732.42	80.436	3,732.42	80.4711	3,732.42	87.5335	3,732.42	76.9134	3,732.42	86.0711	3,732.42	78.0454	3,732.42	85.6961	3,732.42	77.7557	3,732.42	82.1688	3,732.42	73.8932	3,732.42	54.0858	3,732.42	76.0715	3,732.42	73.881	3,732.42	75.5558	3,732.42	75.0831	3,732.42	71.6333	3,732.42	58.7178	3,732.42	73.3529	3,732.42	68.6572	3,732.42	72.7026	3,732.42	69.6464	3,732.42	71.4097	3,732.42	58.0965	3,732.42	72.1612	3,732.42	69.4962	3,732.42	71.6284
3,864.26	84.6452	3,864.26	87.2821	3,864.26	81.4181	3,864.26	89.1107	3,864.26	88.0491	3,864.26	84.3934	3,864.26	89.4135	3,864.26	84.8392	3,864.26	84.6259	3,864.26	83.058	3,864.26	83.3687	3,864.26	79.8143	3,864.26	87.1392	3,864.26	81.5097	3,864.26	86.2431	3,864.26	81.2769	3,864.26	84.3279	3,864.26	79.0376	3,864.26	79.5553	3,864.26	77.8845	3,864.26	74.7845	3,864.26	76.4213	3,864.26	77.0358	3,864.26	77.1073	3,864.26	74.6858	3,864.26	74.0367	3,864.26	57.7141	3,864.26	72.6389	3,864.26	68.5311	3,864.26	75.0579	3,864.26	69.1179	3,864.26	74.4606	3,864.26	56.378	3,864.26	74.6414	3,864.26	69.3991	3,864.26	73.219
4,000.49	85.731	4,000.49	89.2641	4,000.49	81.6045	4,000.49	89.2788	4,000.49	87.8285	4,000.49	82.966	4,000.49	90.7542	4,000.49	85.9645	4,000.49	86.2451	4,000.49	82.2561	4,000.49	84.6317	4,000.49	84.9016	4,000.49	86.4886	4,000.49	82.5574	4,000.49	85.7735	4,000.49	82.1567	4,000.49	85.6129	4,000.49	82.4968	4,000.49	80.6671	4,000.49	80.0089	4,000.49	78.4156	4,000.49	77.2386	4,000.49	74.538	4,000.49	76.393	4,000.49	71.7054	4,000.49	75.5362	4,000.49	66.0917	4,000.49	72.8562	4,000.49	71.5737	4,000.49	75.8712	4,000.49	68.3166	4,000.49	73.5061	4,000.49	56.4558	4,000.49	74.9137	4,000.49	69.3415	4,000.49	72.2864
4,141.11	84.8536	4,141.11	89.4536	4,141.11	83.7233	4,141.11	87.8637	4,141.11	88.4201	4,141.11	83.9984	4,141.11	91.4563	4,141.11	84.6958	4,141.11	87.4701	4,141.11	84.5077	4,141.11	85.6317	4,141.11	85.5491	4,141.11	87.0942	4,141.11	83.923	4,141.11	84.4816	4,141.11	82.3711	4,141.11	83.9747	4,141.11	78.575	4,141.11	77.5153	4,141.11	78.3119	4,141.11	75.9913	4,141.11	76.7408	4,141.11	72.9114	4,141.11	74.4579	4,141.11	72.5707	4,141.11	74.0628	4,141.11	66.617	4,141.11	71.3771	4,141.11	70.0604	4,141.11	75.542	4,141.11	72.7051	4,141.11	71.6994	4,141.11	42.4306	4,141.11	74.4295	4,141.11	69.6351	4,141.11	70.3483
4,287.6	85.4185	4,287.6	88.2385	4,287.6	83.1102	4,287.6	85.5701	4,287.6	88.6689	4,287.6	85.2927	4,287.6	90.8958	4,287.6	84.5949	4,287.6	88.8077	4,287.6	86.0156	4,287.6	86.3902	4,287.6	85.1595	4,287.6	86.5601	4,287.6	82.7134	4,287.6	84.9552	4,287.6	76.4912	4,287.6	82.441	4,287.6	77.989	4,287.6	75.4013	4,287.6	77.3696	4,287.6	71.979	4,287.6	76.8015	4,287.6	71.9216	4,287.6	74.6239	4,287.6	73.9459	4,287.6	72.9968	4,287.6	68.5151	4,287.6	67.8816	4,287.6	62.0577	4,287.6	73.2023	4,287.6	71.7293	4,287.6	71.209	4,287.6	60.1179	4,287.6	75.6024	4,287.6	70.7909	4,287.6	72.396
4,438.48	86.4923	4,438.48	89.888	4,438.48	82.9712	4,438.48	87.2136	4,438.48	88.2373	4,438.48	83.9937	4,438.48	89.3775	4,438.48	84.635	4,438.48	88.731	4,438.48	86.1578	4,438.48	86.1039	4,438.48	83.9831	4,438.48	85.5216	4,438.48	79.6371	4,438.48	84.692	4,438.48	78.1581	4,438.48	72.2095	4,438.48	75.749	4,438.48	72.6774	4,438.48	75.0618	4,438.48	68.1161	4,438.48	75.778	4,438.48	70.5536	4,438.48	75.0013	4,438.48	73.0942	4,438.48	71.328	4,438.48	58.1273	4,438.48	71.8914	4,438.48	57.3084	4,438.48	72.4462	4,438.48	65.9913	4,438.48	71.9686	4,438.48	58.944	4,438.48	73.4762	4,438.48	70.7669	4,438.48	73.444
4,595.21	87.6485	4,595.21	89.1766	4,595.21	83.4377	4,595.21	84.8326	4,595.21	87.9526	4,595.21	84.2507	4,595.21	88.597	4,595.21	86.182	4,595.21	88.7646	4,595.21	86.3797	4,595.21	86.6465	4,595.21	81.6019	4,595.21	83.5685	4,595.21	81.8407	4,595.21	80.9632	4,595.21	79.4316	4,595.21	73.9632	4,595.21	79.024	4,595.21	67.3096	4,595.21	77.2898	4,595.21	67.1507	4,595.21	75.1046	4,595.21	61.0254	4,595.21	74.886	4,595.21	68.4451	4,595.21	73.293	4,595.21	60.1674	4,595.21	71.795	4,595.21	63.9376	4,595.21	72.5776	4,595.21	67.0389	4,595.21	73.5528	4,595.21	63.1524	4,595.21	72.3197	4,595.21	71.6144	4,595.21	72.813
4,756.35	86.5113	4,756.35	87.6775	4,756.35	85.5059	4,756.35	84.6209	4,756.35	88.7181	4,756.35	84.5185	4,756.35	88.2344	4,756.35	86.8779	4,756.35	87.9137	4,756.35	85.1167	4,756.35	85.4733	4,756.35	83.1415	4,756.35	80.2752	4,756.35	82.4809	4,756.35	75.4093	4,756.35	79.358	4,756.35	73.7678	4,756.35	78.2	4,756.35	71.6918	4,756.35	76.8934	4,756.35	53.597	4,756.35	75.3252	4,756.35	67.287	4,756.35	73.2339	4,756.35	67.9051	4,756.35	72.7979	4,756.35	59.1177	4,756.35	69.4075	4,756.35	64.2206	4,756.35	72.8859	4,756.35	65.7501	4,756.35	73.2901	4,756.35	64.9222	4,756.35	74.0416	4,756.35	68.4116	4,756.35	71.2574
4,924.8	87.3468	4,924.8	87.9361	4,924.8	84.2092	4,924.8	83.8018	4,924.8	88.8592	4,924.8	85.219	4,924.8	87.6985	4,924.8	87.0048	4,924.8	87.17	4,924.8	84.1828	4,924.8	84.9663	4,924.8	83.452	4,924.8	77.3429	4,924.8	81.6431	4,924.8	74.3877	4,924.8	78.2892	4,924.8	71.2577	4,924.8	76.1232	4,924.8	72.6176	4,924.8	74.5254	4,924.8	68.3206	4,924.8	74.045	4,924.8	68.9477	4,924.8	71.7046	4,924.8	67.5166	4,924.8	71.0985	4,924.8	62.6048	4,924.8	66.4758	4,924.8	61.6668	4,924.8	71.5106	4,924.8	67.5691	4,924.8	71.447	4,924.8	65.8029	4,924.8	73.9312	4,924.8	69.2437	4,924.8	72.2425
5,097.66	87.8252	5,097.66	88.0964	5,097.66	84.3244	5,097.66	82.9087	5,097.66	89.2779	5,097.66	86.41	5,097.66	87.367	5,097.66	86.7059	5,097.66	85.1456	5,097.66	84.1196	5,097.66	81.8859	5,097.66	83.1276	5,097.66	69.7566	5,097.66	77.9232	5,097.66	77.1097	5,097.66	77.7173	5,097.66	74.2249	5,097.66	75.6877	5,097.66	73.284	5,097.66	75.2335	5,097.66	70.8961	5,097.66	74.3371	5,097.66	63.3897	5,097.66	72.3627	5,097.66	63.7861	5,097.66	72.3352	5,097.66	64.2718	5,097.66	69.0173	5,097.66	58.9023	5,097.66	67.5422	5,097.66	67.5473	5,097.66	71.0129	5,097.66	61.3561	5,097.66	73.4216	5,097.66	70.2042	5,097.66	72.0843
5,277.83	88.1593	5,277.83	87.0371	5,277.83	85.9073	5,277.83	83.8134	5,277.83	88.3785	5,277.83	87.018	5,277.83	86.7674	5,277.83	84.6021	5,277.83	84.1235	5,277.83	84.244	5,277.83	79.6165	5,277.83	81.9087	5,277.83	74.7089	5,277.83	79.3487	5,277.83	78.4023	5,277.83	77.0856	5,277.83	76.1761	5,277.83	76.3556	5,277.83	73.8704	5,277.83	76.1439	5,277.83	72.7047	5,277.83	73.9457	5,277.83	65.9613	5,277.83	72.9334	5,277.83	62.285	5,277.83	71.777	5,277.83	59.8989	5,277.83	71.8531	5,277.83	62.2223	5,277.83	68.8183	5,277.83	66.0845	5,277.83	70.8256	5,277.83	63.8709	5,277.83	73.8834	5,277.83	71.245	5,277.83	72.8534
5,463.87	88.385	5,463.87	87.7544	5,463.87	86.3929	5,463.87	83.7859	5,463.87	89.1121	5,463.87	86.3554	5,463.87	85.1604	5,463.87	84.7683	5,463.87	83.3106	5,463.87	84.7346	5,463.87	80.0241	5,463.87	81.9296	5,463.87	75.8657	5,463.87	80.9847	5,463.87	79.4449	5,463.87	80.57	5,463.87	75.9516	5,463.87	77.7957	5,463.87	76.479	5,463.87	75.66	5,463.87	71.4106	5,463.87	74.7429	5,463.87	64.4035	5,463.87	72.8186	5,463.87	62.834	5,463.87	70.9987	5,463.87	62.4083	5,463.87	71.5095	5,463.87	67.6786	5,463.87	70.5602	5,463.87	61.7449	5,463.87	70.7318	5,463.87	64.9766	5,463.87	74.154	5,463.87	68.3695	5,463.87	71.4299
5,657.23	89.7219	5,657.23	87.1519	5,657.23	85.9831	5,657.23	85.097	5,657.23	88.8399	5,657.23	86.2636	5,657.23	85.7276	5,657.23	85.778	5,657.23	83.2158	5,657.23	84.0732	5,657.23	79.9782	5,657.23	82.0374	5,657.23	81.3015	5,657.23	81.7415	5,657.23	80.2311	5,657.23	75.7693	5,657.23	77.5606	5,657.23	74.5416	5,657.23	72.9658	5,657.23	73.15	5,657.23	68.4521	5,657.23	70.174	5,657.23	61.8278	5,657.23	70.6289	5,657.23	63.1267	5,657.23	66.7879	5,657.23	56.4092	5,657.23	65.7658	5,657.23	68.0578	5,657.23	68.6737	5,657.23	67.5124	5,657.23	68.973	5,657.23	68.7594	5,657.23	70.8986	5,657.23	70.331	5,657.23	72.72
5,856.45	88.7017	5,856.45	87.4705	5,856.45	87.4066	5,856.45	85.4794	5,856.45	89.311	5,856.45	87.177	5,856.45	85.5747	5,856.45	85.3489	5,856.45	84.6509	5,856.45	82.3185	5,856.45	81.4317	5,856.45	82.2057	5,856.45	82.2317	5,856.45	76.8062	5,856.45	80.8979	5,856.45	71.8647	5,856.45	80.1462	5,856.45	68.1708	5,856.45	74.7699	5,856.45	72.2618	5,856.45	54.8274	5,856.45	71.202	5,856.45	67.9071	5,856.45	67.713	5,856.45	52.5545	5,856.45	69.6802	5,856.45	60.1774	5,856.45	66.4144	5,856.45	70.9251	5,856.45	63.4197	5,856.45	63.6758	5,856.45	69.9038	5,856.45	67.7511	5,856.45	72.5442	5,856.45	68.9259	5,856.45	73.4266
6,062.99	89.7464	6,062.99	87.7524	6,062.99	86.8933	6,062.99	86.8384	6,062.99	89.7917	6,062.99	87.098	6,062.99	85.6286	6,062.99	83.5855	6,062.99	84.3771	6,062.99	83.9625	6,062.99	84.2441	6,062.99	81.1577	6,062.99	84.3064	6,062.99	74.9611	6,062.99	81.1707	6,062.99	78.9827	6,062.99	81.5614	6,062.99	76.2328	6,062.99	74.3366	6,062.99	75.1979	6,062.99	69.6277	6,062.99	73.716	6,062.99	67.7416	6,062.99	71.6606	6,062.99	63.7178	6,062.99	69.98	6,062.99	68.0754	6,062.99	70.0614	6,062.99	70.6175	6,062.99	67.0947	6,062.99	58.7888	6,062.99	70.6939	6,062.99	62.7147	6,062.99	71.3635	6,062.99	67.8089	6,062.99	73.3915
6,276.86	89.6676	6,276.86	87.1825	6,276.86	85.7246	6,276.86	86.8686	6,276.86	88.5347	6,276.86	86.3612	6,276.86	85.1682	6,276.86	85.2924	6,276.86	81.949	6,276.86	84.3944	6,276.86	84.5268	6,276.86	79.3488	6,276.86	84.1966	6,276.86	79.5558	6,276.86	79.0694	6,276.86	76.6777	6,276.86	82.5871	6,276.86	72.1099	6,276.86	74.0419	6,276.86	71.4394	6,276.86	70.9983	6,276.86	68.4669	6,276.86	54.1545	6,276.86	67.7711	6,276.86	66.1141	6,276.86	66.2824	6,276.86	67.018	6,276.86	65.5262	6,276.86	67.8256	6,276.86	62.7478	6,276.86	63.9391	6,276.86	68.2839	6,276.86	62.8228	6,276.86	69.6247	6,276.86	69.2227	6,276.86	70.1024
6,498.05	90.0732	6,498.05	86.8202	6,498.05	87.4631	6,498.05	87.2609	6,498.05	88.0655	6,498.05	86.4407	6,498.05	84.3723	6,498.05	85.4486	6,498.05	79.4921	6,498.05	80.0771	6,498.05	84.8321	6,498.05	79.4202	6,498.05	83.4183	6,498.05	74.5041	6,498.05	79.9989	6,498.05	70.2502	6,498.05	82.4351	6,498.05	69.6548	6,498.05	74.8718	6,498.05	71.4241	6,498.05	72.3009	6,498.05	70.1947	6,498.05	46.7706	6,498.05	69.0176	6,498.05	58.1936	6,498.05	68.6734	6,498.05	66.3337	6,498.05	68.8867	6,498.05	67.7131	6,498.05	65.4558	6,498.05	55.2372	6,498.05	65.5516	6,498.05	66.6645	6,498.05	69.1537	6,498.05	67.4992	6,498.05	70.3463
6,726.56	90.279	6,726.56	88.3366	6,726.56	87.373	6,726.56	88.4367	6,726.56	87.325	6,726.56	86.3802	6,726.56	84.6934	6,726.56	83.2312	6,726.56	82.0452	6,726.56	81.2842	6,726.56	86.0803	6,726.56	80.4919	6,726.56	83.0583	6,726.56	76.2966	6,726.56	82.6875	6,726.56	78.049	6,726.56	82.0697	6,726.56	74.7699	6,726.56	75.1994	6,726.56	74.9729	6,726.56	74.3429	6,726.56	72.6024	6,726.56	64.7853	6,726.56	71.4287	6,726.56	61.3074	6,726.56	68.7993	6,726.56	65.8972	6,726.56	72.1837	6,726.56	68.3276	6,726.56	67.5419	6,726.56	65.6069	6,726.56	69.9218	6,726.56	64.1649	6,726.56	71.391	6,726.56	68.1722	6,726.56	72.8165
6,963.87	89.3146	6,963.87	87.7509	6,963.87	86.9716	6,963.87	87.9516	6,963.87	87.3002	6,963.87	85.7406	6,963.87	85.9591	6,963.87	84.6949	6,963.87	82.919	6,963.87	82.456	6,963.87	85.1472	6,963.87	80.2582	6,963.87	82.4842	6,963.87	78.2954	6,963.87	84.1598	6,963.87	76.5844	6,963.87	79.9025	6,963.87	71.11	6,963.87	68.3631	6,963.87	72.0256	6,963.87	69.8655	6,963.87	68.8999	6,963.87	68.5253	6,963.87	68.4382	6,963.87	63.1119	6,963.87	66.9967	6,963.87	59.6657	6,963.87	69.1281	6,963.87	66.7383	6,963.87	64.9963	6,963.87	61.8344	6,963.87	67.7065	6,963.87	60.038	6,963.87	69.8039	6,963.87	66.2225	6,963.87	70.7842
7,209.96	89.8391	7,209.96	87.6387	7,209.96	86.103	7,209.96	88.5701	7,209.96	85.6728	7,209.96	85.9323	7,209.96	85.9578	7,209.96	84.6299	7,209.96	85.0144	7,209.96	80.7972	7,209.96	85.7236	7,209.96	80.7673	7,209.96	84.5571	7,209.96	76.7801	7,209.96	81.8615	7,209.96	74.3048	7,209.96	75.0259	7,209.96	71.5783	7,209.96	70.0365	7,209.96	72.8631	7,209.96	70.6905	7,209.96	71.7614	7,209.96	64.978	7,209.96	69.7297	7,209.96	61.6681	7,209.96	67.1041	7,209.96	48.2507	7,209.96	67.4255	7,209.96	63.2761	7,209.96	66.1666	7,209.96	66.8262	7,209.96	66.9252	7,209.96	61.5664	7,209.96	69.3135	7,209.96	65.6154	7,209.96	71.0104
7,464.84	87.8201	7,464.84	87.0979	7,464.84	85.6198	7,464.84	88.2702	7,464.84	84.9748	7,464.84	85.4187	7,464.84	86.5209	7,464.84	84.0079	7,464.84	85.6919	7,464.84	82.256	7,464.84	85.6538	7,464.84	81.4615	7,464.84	83.1006	7,464.84	76.5629	7,464.84	75.5972	7,464.84	76.8956	7,464.84	61.887	7,464.84	72.5095	7,464.84	67.0483	7,464.84	71.7073	7,464.84	66.9201	7,464.84	70.3369	7,464.84	58.8596	7,464.84	69.3988	7,464.84	60.2952	7,464.84	66.9359	7,464.84	54.5661	7,464.84	67.7029	7,464.84	62.2082	7,464.84	64.4103	7,464.84	60.271	7,464.84	67.4056	7,464.84	59.7718	7,464.84	69.3647	7,464.84	65.947	7,464.84	69.0809
7,727.05	87.8786	7,727.05	88.2141	7,727.05	85.7656	7,727.05	88.4089	7,727.05	85.5971	7,727.05	85.6604	7,727.05	87.6727	7,727.05	84.3134	7,727.05	86.899	7,727.05	83.043	7,727.05	85.2184	7,727.05	80.3487	7,727.05	78.006	7,727.05	77.4649	7,727.05	58.4727	7,727.05	74.894	7,727.05	65.725	7,727.05	71.1647	7,727.05	64.7978	7,727.05	70.0086	7,727.05	65.5659	7,727.05	69.1123	7,727.05	58.3203	7,727.05	67.0264	7,727.05	59.331	7,727.05	64.4941	7,727.05	49.8558	7,727.05	66.2583	7,727.05	55.1252	7,727.05	66.2206	7,727.05	59.5671	7,727.05	66.0162	7,727.05	61.0404	7,727.05	68.3894	7,727.05	59.1976	7,727.05	67.9478
7,999.51	87.2088	7,999.51	88.3669	7,999.51	86.0044	7,999.51	87.7834	7,999.51	86.165	7,999.51	85.7823	7,999.51	88.0467	7,999.51	85.0926	7,999.51	86.5587	7,999.51	82.3366	7,999.51	83.4509	7,999.51	79.8722	7,999.51	70.5724	7,999.51	76.8883	7,999.51	70.9701	7,999.51	70.4024	7,999.51	67.0127	7,999.51	68.9187	7,999.51	67.7454	7,999.51	68.2374	7,999.51	63.3568	7,999.51	67.0945	7,999.51	53.8682	7,999.51	65.3991	7,999.51	49.7799	7,999.51	65.4614	7,999.51	54.1251	7,999.51	63.9813	7,999.51	46.662	7,999.51	63.7467	7,999.51	61.2779	7,999.51	63.8742	7,999.51	54.7299	7,999.51	66.7464	7,999.51	63.6671	7,999.51	66.2652
8,282.23	87.8427	8,282.23	87.9977	8,282.23	87.0994	8,282.23	87.5294	8,282.23	86.9697	8,282.23	85.9627	8,282.23	88.6556	8,282.23	84.2806	8,282.23	86.0084	8,282.23	81.8243	8,282.23	81.4854	8,282.23	79.7962	8,282.23	68.4262	8,282.23	73.2342	8,282.23	77.7047	8,282.23	73.3332	8,282.23	73.8441	8,282.23	70.0339	8,282.23	68.657	8,282.23	68.0398	8,282.23	59.231	8,282.23	67.234	8,282.23	58.5264	8,282.23	65.7993	8,282.23	58.0079	8,282.23	63.4388	8,282.23	53.2132	8,282.23	66.501	8,282.23	52.3971	8,282.23	62.4486	8,282.23	61.2912	8,282.23	62.4331	8,282.23	57.3927	8,282.23	66.7309	8,282.23	64.3541	8,282.23	66.9964
8,573.73	88.0659	8,573.73	88.1096	8,573.73	87.2275	8,573.73	87.3535	8,573.73	86.6799	8,573.73	85.256	8,573.73	87.7749	8,573.73	84.1064	8,573.73	85.0143	8,573.73	82.272	8,573.73	80.9528	8,573.73	76.6293	8,573.73	74.8921	8,573.73	74.2939	8,573.73	80.5494	8,573.73	69.8938	8,573.73	76.3127	8,573.73	62.1942	8,573.73	71.1708	8,573.73	62.1953	8,573.73	62.5699	8,573.73	59.843	8,573.73	53.4528	8,573.73	60.8244	8,573.73	51.031	8,573.73	58.6964	8,573.73	47.9218	8,573.73	60.0516	8,573.73	58.5809	8,573.73	57.4408	8,573.73	60.9253	8,573.73	62.4275	8,573.73	51.704	8,573.73	63.96	8,573.73	60.1685	8,573.73	65.9594
8,876.95	88.0127	8,876.95	87.3201	8,876.95	88.5072	8,876.95	87.0234	8,876.95	87.7861	8,876.95	86.1222	8,876.95	87.4717	8,876.95	84.941	8,876.95	84.289	8,876.95	79.7285	8,876.95	78.1179	8,876.95	76.5788	8,876.95	81.2856	8,876.95	71.3545	8,876.95	81.3629	8,876.95	70.4709	8,876.95	73.6755	8,876.95	69.3625	8,876.95	69.9775	8,876.95	65.6164	8,876.95	66.3979	8,876.95	67.7142	8,876.95	60.3525	8,876.95	62.4705	8,876.95	55.7352	8,876.95	63.3604	8,876.95	38.4885	8,876.95	61.8837	8,876.95	55.8587	8,876.95	61.5342	8,876.95	58.8771	8,876.95	62.1028	8,876.95	48.3388	8,876.95	64.3056	8,876.95	53.5777	8,876.95	64.9969
9,188.96	88.9348	9,188.96	87.0896	9,188.96	88.6557	9,188.96	87.1141	9,188.96	87.4968	9,188.96	86.3633	9,188.96	85.308	9,188.96	84.2543	9,188.96	82.8745	9,188.96	82.3774	9,188.96	80.1623	9,188.96	78.6278	9,188.96	83.3041	9,188.96	76.2797	9,188.96	80.1919	9,188.96	73.7659	9,188.96	72.7085	9,188.96	68.1137	9,188.96	59.3906	9,188.96	65.102	9,188.96	67.601	9,188.96	64.1858	9,188.96	60.7266	9,188.96	63.3007	9,188.96	45.6781	9,188.96	59.6765	9,188.96	38.9922	9,188.96	60.7671	9,188.96	58.5219	9,188.96	61.1023	9,188.96	60.5458	9,188.96	57.241	9,188.96	55.5543	9,188.96	64.0566	9,188.96	58.1584	9,188.96	62.8676
9,514.16	89.2499	9,514.16	87.3716	9,514.16	89.5677	9,514.16	87.522	9,514.16	87.1738	9,514.16	86.0905	9,514.16	83.9752	9,514.16	85.7471	9,514.16	83.9381	9,514.16	82.3163	9,514.16	81.2697	9,514.16	80.3038	9,514.16	83.9185	9,514.16	76.9579	9,514.16	78.3533	9,514.16	72.3943	9,514.16	73.515	9,514.16	69.924	9,514.16	61.8766	9,514.16	67.1193	9,514.16	63.3619	9,514.16	66.847	9,514.16	46.3336	9,514.16	65.1575	9,514.16	57.6456	9,514.16	62.8696	9,514.16	43.5009	9,514.16	61.7638	9,514.16	56.7459	9,514.16	64.0917	9,514.16	56.8282	9,514.16	62.2068	9,514.16	55.0697	9,514.16	59.6851	9,514.16	57.9979	9,514.16	64.5682
9,849.61	88.9977	9,849.61	88.156	9,849.61	89.1747	9,849.61	87.151	9,849.61	85.9948	9,849.61	86.176	9,849.61	84.5412	9,849.61	84.7774	9,849.61	83.6679	9,849.61	82.4878	9,849.61	81.5658	9,849.61	80.187	9,849.61	81.4462	9,849.61	74.901	9,849.61	77.3218	9,849.61	72.3527	9,849.61	70.9251	9,849.61	68.4851	9,849.61	66.5975	9,849.61	65.4913	9,849.61	55.0297	9,849.61	63.6951	9,849.61	59.6272	9,849.61	64.6655	9,849.61	53.4023	9,849.61	60.0921	9,849.61	49.034	9,849.61	60.0384	9,849.61	43.5331	9,849.61	61.3415	9,849.61	47.8017	9,849.61	61.7489	9,849.61	52.4506	9,849.61	59.9105	9,849.61	53.3622	9,849.61	63.1621
10,196.8	88.6903	10,196.8	88.4284	10,196.8	88.533	10,196.8	86.2095	10,196.8	84.962	10,196.8	85.4425	10,196.8	83.6086	10,196.8	83.4583	10,196.8	82.0482	10,196.8	81.6439	10,196.8	83.8181	10,196.8	77.3661	10,196.8	78.8988	10,196.8	73.0769	10,196.8	75.6647	10,196.8	68.5655	10,196.8	67.3215	10,196.8	63.0139	10,196.8	66.2124	10,196.8	62.0966	10,196.8	50.8592	10,196.8	61.1813	10,196.8	50.1368	10,196.8	60.2747	10,196.8	52.9245	10,196.8	55.5345	10,196.8	56.8853	10,196.8	60.7297	10,196.8	49.6642	10,196.8	57.956	10,196.8	53.5199	10,196.8	37.45	10,196.8	52.6971	10,196.8	38.5592	10,196.8	26.9635	10,196.8	60.2086
10,555.7	88.9345	10,555.7	88.3243	10,555.7	88.4408	10,555.7	86.517	10,555.7	86.1013	10,555.7	85.7939	10,555.7	84.7915	10,555.7	83.3746	10,555.7	83.3418	10,555.7	81.2562	10,555.7	83.0897	10,555.7	75.9384	10,555.7	75.3036	10,555.7	72.2506	10,555.7	69.4824	10,555.7	68.1181	10,555.7	56.5916	10,555.7	62.8869	10,555.7	62.7022	10,555.7	59.6597	10,555.7	57.8186	10,555.7	60.0744	10,555.7	51.9125	10,555.7	55.431	10,555.7	53.1111	10,555.7	57.0933	10,555.7	56.9599	10,555.7	56.3141	10,555.7	50.304	10,555.7	55.9583	10,555.7	54.5273	10,555.7	51.5448	10,555.7	46.1395	10,555.7	54.1511	10,555.7	52.3376	10,555.7	56.7003
10,927.7	89.7755	10,927.7	89.2444	10,927.7	89.008	10,927.7	87.774	10,927.7	87.0519	10,927.7	86.0284	10,927.7	86.4441	10,927.7	83.8682	10,927.7	85.0516	10,927.7	81.3856	10,927.7	81.753	10,927.7	76.5863	10,927.7	72.3286	10,927.7	71.9159	10,927.7	64.8192	10,927.7	67.4721	10,927.7	66.3255	10,927.7	62.0944	10,927.7	59.5115	10,927.7	59.6353	10,927.7	61.4337	10,927.7	57.3443	10,927.7	59.7297	10,927.7	56.2942	10,927.7	54.0058	10,927.7	57.4195	10,927.7	56.2045	10,927.7	55.6412	10,927.7	48.2451	10,927.7	54.0908	10,927.7	54.2736	10,927.7	48.2303	10,927.7	44.887	10,927.7	54.0097	10,927.7	52.6102	10,927.7	51.1449
11,313	90.6132	11,313	90.4163	11,313	89.7938	11,313	88.2743	11,313	88.2411	11,313	85.9459	11,313	86.6653	11,313	83.8903	11,313	85.4116	11,313	80.8909	11,313	81.1755	11,313	75.9064	11,313	73.6713	11,313	70.5557	11,313	67.7491	11,313	65.2744	11,313	67.64	11,313	60.6171	11,313	64.9795	11,313	56.1378	11,313	62.7402	11,313	56.3823	11,313	57.165	11,313	52.4792	11,313	54.3267	11,313	57.0723	11,313	43.9334	11,313	54.3969	11,313	48.8809	11,313	56.6926	11,313	53.9496	11,313	48.4459	11,313	37.7808	11,313	54.0089	11,313	46.1491	11,313	43.353
11,712.9	91.4454	11,712.9	91.1775	11,712.9	90.544	11,712.9	88.7392	11,712.9	88.7845	11,712.9	86.1197	11,712.9	86.6832	11,712.9	83.0184	11,712.9	85.2327	11,712.9	78.3867	11,712.9	78.4565	11,712.9	72.2439	11,712.9	74.1757	11,712.9	64.0413	11,712.9	69.8831	11,712.9	58.3472	11,712.9	65.8154	11,712.9	49.1079	11,712.9	66.187	11,712.9	47.3638	11,712.9	61.2375	11,712.9	47.1349	11,712.9	55.8483	11,712.9	47.093	11,712.9	50.6884	11,712.9	46.2775	11,712.9	48.8926	11,712.9	41.6546	11,712.9	45.5381	11,712.9	46.4161	11,712.9	52.6922	11,712.9	49.6721	11,712.9	41.3149	11,712.9	51.4987	11,712.9	48.4442	11,712.9	46.6466
12,126	92.5609	12,126	92.1048	12,126	91.5947	12,126	89.3014	12,126	89.6931	12,126	86.5096	12,126	87.3689	12,126	82.4111	12,126	84.5331	12,126	76.2822	12,126	78.1614	12,126	64.2398	12,126	75.7173	12,126	50.995	12,126	67.3239	12,126	47.416	12,126	63.1313	12,126	49.774	12,126	63.1433	12,126	47.4998	12,126	60.4973	12,126	53.6684	12,126	46.2697	12,126	49.0605	12,126	43.2137	12,126	48.1113	12,126	51.6082	12,126	49.0467	12,126	44.3187	12,126	51.4845	12,126	46.6429	12,126	48.5426	12,126	35.9125	12,126	44.1645	12,126	43.5632	12,126	37.0973
12,553.7	93.6806	12,553.7	92.9266	12,553.7	92.2841	12,553.7	89.6032	12,553.7	90.2359	12,553.7	86.6934	12,553.7	86.6025	12,553.7	82.0945	12,553.7	83.2472	12,553.7	74.3868	12,553.7	78.4614	12,553.7	63.2472	12,553.7	76.007	12,553.7	61.9284	12,553.7	60.7069	12,553.7	60.4711	12,553.7	58.5964	12,553.7	58.405	12,553.7	63.2156	12,553.7	56.7695	12,553.7	54.7095	12,553.7	58.1485	12,553.7	52.5038	12,553.7	55.4707	12,553.7	48.4949	12,553.7	53.9841	12,553.7	42.6331	12,553.7	53.561	12,553.7	45.4875	12,553.7	53.2019	12,553.7	52.3462	12,553.7	49.7151	12,553.7	38.0151	12,553.7	49.4324	12,553.7	46.1798	12,553.7	50.259
12,996.1	93.7462	12,996.1	92.9933	12,996.1	92.5007	12,996.1	89.3423	12,996.1	90.5213	12,996.1	85.8411	12,996.1	86.15	12,996.1	81.0616	12,996.1	81.2556	12,996.1	73.1543	12,996.1	78.378	12,996.1	68.2776	12,996.1	72.3396	12,996.1	67.0092	12,996.1	57.8863	12,996.1	62.8177	12,996.1	57.5311	12,996.1	61.4417	12,996.1	63.0639	12,996.1	57.7291	12,996.1	51.8829	12,996.1	58.9581	12,996.1	57.9312	12,996.1	57.0242	12,996.1	47.8249	12,996.1	57.7182	12,996.1	47.9978	12,996.1	57.2008	12,996.1	43.5569	12,996.1	57.1583	12,996.1	53.6899	12,996.1	51.7498	12,996.1	44.9853	12,996.1	57.1763	12,996.1	42.6317	12,996.1	50.4306
13,454.6	93.2755	13,454.6	92.5425	13,454.6	92.305	13,454.6	88.4988	13,454.6	90.462	13,454.6	84.0912	13,454.6	84.7256	13,454.6	78.954	13,454.6	80.1878	13,454.6	74.0046	13,454.6	76.6659	13,454.6	72.0584	13,454.6	69.3623	13,454.6	70.3252	13,454.6	68.092	13,454.6	67.3262	13,454.6	64.7613	13,454.6	64.8419	13,454.6	65.1926	13,454.6	58.9643	13,454.6	62.2875	13,454.6	58.927	13,454.6	61.4494	13,454.6	57.6964	13,454.6	51.3439	13,454.6	58.6007	13,454.6	49.5306	13,454.6	60.0397	13,454.6	49.8578	13,454.6	58.922	13,454.6	51.9476	13,454.6	59.2849	13,454.6	47.8595	13,454.6	60.6634	13,454.6	47.6381	13,454.6	35.5541
13,929.2	92.5153	13,929.2	91.708	13,929.2	91.6334	13,929.2	86.7281	13,929.2	89.5277	13,929.2	80.7644	13,929.2	83.5373	13,929.2	77.0245	13,929.2	80.6932	13,929.2	75.8203	13,929.2	77.3002	13,929.2	74.9372	13,929.2	70.243	13,929.2	72.8092	13,929.2	74.5462	13,929.2	69.1192	13,929.2	66.9794	13,929.2	66.9302	13,929.2	68.545	13,929.2	62.2224	13,929.2	63.6275	13,929.2	62.4728	13,929.2	59.6171	13,929.2	59.8458	13,929.2	51.6817	13,929.2	59.8225	13,929.2	48.8341	13,929.2	61.3162	13,929.2	53.5387	13,929.2	61.401	13,929.2	45.2247	13,929.2	60.4255	13,929.2	50.0495	13,929.2	61.5003	13,929.2	55.6485	13,929.2	37.7319
14,419.9	90.8678	14,419.9	90.0145	14,419.9	90.4361	14,419.9	84.7899	14,419.9	87.6718	14,419.9	77.6934	14,419.9	84.1075	14,419.9	78.014	14,419.9	79.2017	14,419.9	78.6102	14,419.9	77.1053	14,419.9	77.6648	14,419.9	74.5411	14,419.9	74.7049	14,419.9	73.1305	14,419.9	70.0454	14,419.9	66.7291	14,419.9	66.2215	14,419.9	67.6171	14,419.9	62.5461	14,419.9	61.4262	14,419.9	63.8027	14,419.9	59.2945	14,419.9	62.2848	14,419.9	51.5813	14,419.9	60.9538	14,419.9	50.5924	14,419.9	60.6772	14,419.9	56.0991	14,419.9	62.2521	14,419.9	41.1271	14,419.9	60.8699	14,419.9	45.6796	14,419.9	63.3729	14,419.9	54.8026	14,419.9	42.7138
14,928.2	89.9368	14,928.2	89.5473	14,928.2	90.0788	14,928.2	86.7122	14,928.2	86.6631	14,928.2	83.7413	14,928.2	84.9175	14,928.2	81.3921	14,928.2	77.8851	14,928.2	81.438	14,928.2	75.7932	14,928.2	78.8861	14,928.2	74.7903	14,928.2	75.0917	14,928.2	65.0054	14,928.2	69.8912	14,928.2	59.1135	14,928.2	66.8671	14,928.2	60.9375	14,928.2	62.1438	14,928.2	53.071	14,928.2	63.592	14,928.2	58.0314	14,928.2	61.6017	14,928.2	41.7457	14,928.2	62.5313	14,928.2	39.4	14,928.2	62.7566	14,928.2	47.8528	14,928.2	63.6435	14,928.2	44.1621	14,928.2	62.7711	14,928.2	49.4447	14,928.2	59.4038	14,928.2	54.0191	14,928.2	52.4224
15,455.6	90.132	15,455.6	89.7828	15,455.6	88.8969	15,455.6	86.9851	15,455.6	84.8647	15,455.6	84.0234	15,455.6	81.5626	15,455.6	79.8879	15,455.6	72.1029	15,455.6	78.7123	15,455.6	68.4761	15,455.6	75.3066	15,455.6	59.5093	15,455.6	71.2398	15,455.6	60.7547	15,455.6	64.5936	15,455.6	53.9732	15,455.6	62.7928	15,455.6	57.6279	15,455.6	55.9995	15,455.6	52.5859	15,455.6	59.8794	15,455.6	54.4744	15,455.6	56.1156	15,455.6	47.8788	15,455.6	58.8713	15,455.6	28.792	15,455.6	59.6049	15,455.6	50.289	15,455.6	59.1133	15,455.6	48.8351	15,455.6	54.3811	15,455.6	47.9281	15,455.6	53.3385	15,455.6	52.3757	15,455.6	52.0443
16,000.5	88.9432	16,000.5	88.4169	16,000.5	86.804	16,000.5	85.5856	16,000.5	82.3269	16,000.5	82.126	16,000.5	76.8368	16,000.5	77.5145	16,000.5	67.4024	16,000.5	75.6825	16,000.5	55.4937	16,000.5	72.0747	16,000.5	52.9634	16,000.5	68.3987	16,000.5	66.2137	16,000.5	60.8519	16,000.5	58.8362	16,000.5	60.3228	16,000.5	31.0732	16,000.5	55.0803	16,000.5	61.4856	16,000.5	56.2873	16,000.5	59.1805	16,000.5	50.7731	16,000.5	53.1532	16,000.5	57.0212	16,000.5	40.7982	16,000.5	55.2239	16,000.5	48.5916	16,000.5	54.5645	16,000.5	48.5311	16,000.5	48.9144	16,000.5	49.4069	16,000.5	50.799	16,000.5	50.7849	16,000.5	51.5373
16,564.5	86.9849	16,564.5	86.8291	16,564.5	84.004	16,564.5	83.7473	16,564.5	78.5872	16,564.5	79.6554	16,564.5	68.1945	16,564.5	75.8418	16,564.5	55.0723	16,564.5	73.524	16,564.5	44.3172	16,564.5	70.42	16,564.5	63.0313	16,564.5	66.7247	16,564.5	61.7853	16,564.5	58.802	16,564.5	57.6356	16,564.5	58.6296	16,564.5	35.9192	16,564.5	52.7686	16,564.5	62.5219	16,564.5	52.2794	16,564.5	60.4481	16,564.5	50.195	16,564.5	50.583	16,564.5	53.5068	16,564.5	46.282	16,564.5	50.6396	16,564.5	47.554	16,564.5	47.6357	16,564.5	47.5751	16,564.5	50.5315	16,564.5	38.3386	16,564.5	38.3348	16,564.5	49.3923	16,564.5	49.8363
17,148.9	83.6552	17,148.9	84.3491	17,148.9	79.7266	17,148.9	81.4108	17,148.9	72.1135	17,148.9	78.1047	17,148.9	55.428	17,148.9	74.0014	17,148.9	60.1218	17,148.9	72.1548	17,148.9	62.2491	17,148.9	68.0866	17,148.9	60.573	17,148.9	64.2913	17,148.9	53.2942	17,148.9	56.7041	17,148.9	42.7166	17,148.9	55.6336	17,148.9	48.9207	17,148.9	51.9688	17,148.9	63.4293	17,148.9	51.0844	17,148.9	58.9607	17,148.9	49.4886	17,148.9	49.4389	17,148.9	50.2023	17,148.9	44.9572	17,148.9	50.3589	17,148.9	45.0881	17,148.9	32.1582	17,148.9	49.7419	17,148.9	53.1097	17,148.9	48.0223	17,148.9	33.8154	17,148.9	45.4019	17,148.9	42.6537
17,752.4	80.9508	17,752.4	82.1811	17,752.4	76.6991	17,752.4	79.4477	17,752.4	71.0138	17,752.4	76.1191	17,752.4	68.3102	17,752.4	72.3354	17,752.4	64.4691	17,752.4	69.3731	17,752.4	63.8509	17,752.4	65.263	17,752.4	62.0545	17,752.4	60.2114	17,752.4	50.5666	17,752.4	52.5908	17,752.4	54.381	17,752.4	47.5818	17,752.4	49.05	17,752.4	45.9104	17,752.4	63.1411	17,752.4	44.1008	17,752.4	56.0274	17,752.4	40.789	17,752.4	45.3911	17,752.4	39.2208	17,752.4	34.8248	17,752.4	39.9538	17,752.4	37.2141	17,752.4	18.9731	17,752.4	48.7723	17,752.4	51.3543	17,752.4	47.6468	17,752.4	38.8173	17,752.4	45.879	17,752.4	45.0428
18,379.4	79.7892	18,379.4	79.5037	18,379.4	76.9522	18,379.4	76.7948	18,379.4	74.4151	18,379.4	72.4452	18,379.4	70.2267	18,379.4	69.6066	18,379.4	66.3289	18,379.4	64.2933	18,379.4	63.1508	18,379.4	62.0652	18,379.4	54.6729	18,379.4	56.0515	18,379.4	57.6362	18,379.4	43.812	18,379.4	57.1342	18,379.4	35.9173	18,379.4	45.7868	18,379.4	23.0372	18,379.4	58.8909	18,379.4	36.0408	18,379.4	50.9086	18,379.4	32.9165	18,379.4	35.4252	18,379.4	36.7505	18,379.4	40.3169	18,379.4	34.029	18,379.4	29.8022	18,379.4	32.6963	18,379.4	47.7785	18,379.4	50.2871	18,379.4	44.9138	18,379.4	37.439	18,379.4	43.2845	18,379.4	42.1605
19,026.9	78.7972	19,026.9	77.3788	19,026.9	77.0319	19,026.9	74.0828	19,026.9	74.6577	19,026.9	69.784	19,026.9	69.2766	19,026.9	66.0008	19,026.9	64.2996	19,026.9	59.6753	19,026.9	58.9137	19,026.9	59.8694	19,026.9	48.271	19,026.9	54.6873	19,026.9	56.5929	19,026.9	48.0959	19,026.9	52.4189	19,026.9	40.9224	19,026.9	46.4796	19,026.9	29.8063	19,026.9	55.8914	19,026.9	37.1052	19,026.9	45.2354	19,026.9	40.1613	19,026.9	34.0661	19,026.9	35.3334	19,026.9	41.065	19,026.9	31.396	19,026.9	30.3298	19,026.9	36.2405	19,026.9	46.3569	19,026.9	48.3569	19,026.9	42.2041	19,026.9	35.9673	19,026.9	39.1115	19,026.9	41.0493
19,697.8	76.8353	19,697.8	75.9114	19,697.8	75.8802	19,697.8	72.5114	19,697.8	73.4318	19,697.8	67.7219	19,697.8	68.3003	19,697.8	61.6819	19,697.8	58.3999	19,697.8	60.0717	19,697.8	45.5418	19,697.8	61.2913	19,697.8	57.1346	19,697.8	56.3178	19,697.8	53.9755	19,697.8	52.1883	19,697.8	47.6411	19,697.8	44.5395	19,697.8	42.4983	19,697.8	42.3248	19,697.8	54.1668	19,697.8	39.4697	19,697.8	40.3286	19,697.8	44.315	19,697.8	41.1396	19,697.8	36.0537	19,697.8	41.0679	19,697.8	36.7163	19,697.8	39.0209	19,697.8	32.4515	19,697.8	41.8855	19,697.8	43.4665	19,697.8	40.513	19,697.8	37.9375	19,697.8	37.2932	19,697.8	40.4547
19,999.5	75.8685	19,999.5	75.7423	19,999.5	74.9449	19,999.5	71.9273	19,999.5	72.7151	19,999.5	66.1234	19,999.5	67.6963	19,999.5	60.5433	19,999.5	57.3339	19,999.5	62.8781	19,999.5	51.2608	19,999.5	63.4627	19,999.5	55.3066	19,999.5	57.1796	19,999.5	50.129	19,999.5	54.9242	19,999.5	35.3854	19,999.5	49.0817	19,999.5	46.6077	19,999.5	42.2569	19,999.5	53.4697	19,999.5	39.0626	19,999.5	42.2757	19,999.5	47.731	19,999.5	35.0776	19,999.5	34.9591	19,999.5	42.4496	19,999.5	16.4652	19,999.5	40.0815	19,999.5	35.0301	19,999.5	41.4377	19,999.5	48.2257	19,999.5	43.0887	19,999.5	34.3053	19,999.5	40.6536	19,999.5	44.3414
