"SPL Horizontal"																																																																							
"On-Axis"		"10°"		"-10°"		"20°"		"-20°"		"30°"		"-30°"		"40°"		"-40°"		"50°"		"-50°"		"60°"		"-60°"		"70°"		"-70°"		"80°"		"-80°"		"90°"		"-90°"		"100°"		"-100°"		"110°"		"-110°"		"120°"		"-120°"		"130°"		"-130°"		"140°"		"-140°"		"150°"		"-150°"		"160°"		"-160°"		"170°"		"-170°"		"180°"	
"Frequency [Hz]"	"Sound Pessure Level [dB]  / [2.83V 1m] "	"Frequency [Hz]"	"Sound Pessure Level [dB]  / [2.83V 1m] "	"Frequency [Hz]"	"Sound Pessure Level [dB]  / [2.83V 1m] "	"Frequency [Hz]"	"Sound Pessure Level [dB]  / [2.83V 1m] "	"Frequency [Hz]"	"Sound Pessure Level [dB]  / [2.83V 1m] "	"Frequency [Hz]"	"Sound Pessure Level [dB]  / [2.83V 1m] "	"Frequency [Hz]"	"Sound Pessure Level [dB]  / [2.83V 1m] "	"Frequency [Hz]"	"Sound Pessure Level [dB]  / [2.83V 1m] "	"Frequency [Hz]"	"Sound Pessure Level [dB]  / [2.83V 1m] "	"Frequency [Hz]"	"Sound Pessure Level [dB]  / [2.83V 1m] "	"Frequency [Hz]"	"Sound Pessure Level [dB]  / [2.83V 1m] "	"Frequency [Hz]"	"Sound Pessure Level [dB]  / [2.83V 1m] "	"Frequency [Hz]"	"Sound Pessure Level [dB]  / [2.83V 1m] "	"Frequency [Hz]"	"Sound Pessure Level [dB]  / [2.83V 1m] "	"Frequency [Hz]"	"Sound Pessure Level [dB]  / [2.83V 1m] "	"Frequency [Hz]"	"Sound Pessure Level [dB]  / [2.83V 1m] "	"Frequency [Hz]"	"Sound Pessure Level [dB]  / [2.83V 1m] "	"Frequency [Hz]"	"Sound Pessure Level [dB]  / [2.83V 1m] "	"Frequency [Hz]"	"Sound Pessure Level [dB]  / [2.83V 1m] "	"Frequency [Hz]"	"Sound Pessure Level [dB]  / [2.83V 1m] "	"Frequency [Hz]"	"Sound Pessure Level [dB]  / [2.83V 1m] "	"Frequency [Hz]"	"Sound Pessure Level [dB]  / [2.83V 1m] "	"Frequency [Hz]"	"Sound Pessure Level [dB]  / [2.83V 1m] "	"Frequency [Hz]"	"Sound Pessure Level [dB]  / [2.83V 1m] "	"Frequency [Hz]"	"Sound Pessure Level [dB]  / [2.83V 1m] "	"Frequency [Hz]"	"Sound Pessure Level [dB]  / [2.83V 1m] "	"Frequency [Hz]"	"Sound Pessure Level [dB]  / [2.83V 1m] "	"Frequency [Hz]"	"Sound Pessure Level [dB]  / [2.83V 1m] "	"Frequency [Hz]"	"Sound Pessure Level [dB]  / [2.83V 1m] "	"Frequency [Hz]"	"Sound Pessure Level [dB]  / [2.83V 1m] "	"Frequency [Hz]"	"Sound Pessure Level [dB]  / [2.83V 1m] "	"Frequency [Hz]"	"Sound Pessure Level [dB]  / [2.83V 1m] "	"Frequency [Hz]"	"Sound Pessure Level [dB]  / [2.83V 1m] "	"Frequency [Hz]"	"Sound Pessure Level [dB]  / [2.83V 1m] "	"Frequency [Hz]"	"Sound Pessure Level [dB]  / [2.83V 1m] "	"Frequency [Hz]"	"Sound Pessure Level [dB]  / [2.83V 1m] "
20.5078	58.5396	20.5078	58.4787	20.5078	58.5934	20.5078	58.4112	20.5078	58.6397	20.5078	58.338	20.5078	58.6783	20.5078	58.2608	20.5078	58.7089	20.5078	58.1826	20.5078	58.7312	20.5078	58.1072	20.5078	58.7454	20.5078	58.0395	20.5078	58.7521	20.5078	57.9847	20.5078	58.7525	20.5078	57.948	20.5078	58.7482	20.5078	57.933	20.5078	58.7404	20.5078	57.9419	20.5078	58.7294	20.5078	57.9743	20.5078	58.7146	20.5078	58.0276	20.5078	58.6941	20.5078	58.0976	20.5078	58.6654	20.5078	58.179	20.5078	58.6262	20.5078	58.2662	20.5078	58.5748	20.5078	58.3536	20.5078	58.5112	20.5078	58.4366
21.9727	60.5796	21.9727	60.5652	21.9727	60.5869	21.9727	60.5407	21.9727	60.5899	21.9727	60.5037	21.9727	60.5909	21.9727	60.4528	21.9727	60.5915	21.9727	60.3883	21.9727	60.5924	21.9727	60.3129	21.9727	60.5929	21.9727	60.2308	21.9727	60.5913	21.9727	60.1474	21.9727	60.5845	21.9727	60.0682	21.9727	60.5689	21.9727	59.9978	21.9727	60.5413	21.9727	59.9397	21.9727	60.4997	21.9727	59.8964	21.9727	60.4443	21.9727	59.8695	21.9727	60.377	21.9727	59.8601	21.9727	60.3011	21.9727	59.8689	21.9727	60.2209	21.9727	59.8954	21.9727	60.1405	21.9727	59.9384	21.9727	60.0642	21.9727	59.9957
23.4375	60.824	23.4375	60.7751	23.4375	60.8698	23.4375	60.722	23.4375	60.9127	23.4375	60.6642	23.4375	60.9525	23.4375	60.6018	23.4375	60.9879	23.4375	60.5364	23.4375	61.017	23.4375	60.4709	23.4375	61.0373	23.4375	60.4091	23.4375	61.0464	23.4375	60.3549	23.4375	61.0423	23.4375	60.3115	23.4375	61.0238	23.4375	60.2806	23.4375	60.9907	23.4375	60.2629	23.4375	60.944	23.4375	60.2581	23.4375	60.8858	23.4375	60.2656	23.4375	60.819	23.4375	60.2845	23.4375	60.7467	23.4375	60.3144	23.4375	60.6722	23.4375	60.3546	23.4375	60.5983	23.4375	60.4043	23.4375	60.5277	23.4375	60.4624
24.9023	60.1417	24.9023	60.0998	24.9023	60.1833	24.9023	60.0576	24.9023	60.2244	24.9023	60.0152	24.9023	60.2647	24.9023	59.9724	24.9023	60.303	24.9023	59.9288	24.9023	60.3377	24.9023	59.8842	24.9023	60.3664	24.9023	59.8387	24.9023	60.3861	24.9023	59.7936	24.9023	60.3942	24.9023	59.7511	24.9023	60.3885	24.9023	59.7143	24.9023	60.3683	24.9023	59.6865	24.9023	60.3341	24.9023	59.6711	24.9023	60.2874	24.9023	59.6705	24.9023	60.2305	24.9023	59.6856	24.9023	60.166	24.9023	59.7164	24.9023	60.0965	24.9023	59.7611	24.9023	60.0243	24.9023	59.8173	24.9023	59.9519	24.9023	59.882
26.3672	61.7745	26.3672	61.7247	26.3672	61.8218	26.3672	61.6742	26.3672	61.8651	26.3672	61.6242	26.3672	61.9029	26.3672	61.5756	26.3672	61.9337	26.3672	61.529	26.3672	61.9561	26.3672	61.4846	26.3672	61.9686	26.3672	61.4426	26.3672	61.9699	26.3672	61.4035	26.3672	61.959	26.3672	61.3682	26.3672	61.9353	26.3672	61.3379	26.3672	61.8989	26.3672	61.314	26.3672	61.851	26.3672	61.298	26.3672	61.7934	26.3672	61.2908	26.3672	61.7287	26.3672	61.2934	26.3672	61.6601	26.3672	61.3064	26.3672	61.5908	26.3672	61.3302	26.3672	61.5242	26.3672	61.3645	26.3672	61.4628	26.3672	61.4091
27.832	62.6038	27.832	62.5834	27.832	62.6189	27.832	62.5577	27.832	62.629	27.832	62.5265	27.832	62.6341	27.832	62.4901	27.832	62.6338	27.832	62.4488	27.832	62.6277	27.832	62.4038	27.832	62.6151	27.832	62.3562	27.832	62.5953	27.832	62.3077	27.832	62.5676	27.832	62.2601	27.832	62.5323	27.832	62.215	27.832	62.4899	27.832	62.1741	27.832	62.4417	27.832	62.1387	27.832	62.3894	27.832	62.1104	27.832	62.3351	27.832	62.0903	27.832	62.281	27.832	62.0797	27.832	62.2295	27.832	62.0795	27.832	62.1827	27.832	62.0901	27.832	62.1428	27.832	62.1115
29.2969	63.1778	29.2969	63.1844	29.2969	63.164	29.2969	63.1817	29.2969	63.1451	29.2969	63.1678	29.2969	63.1231	29.2969	63.1417	29.2969	63.0992	29.2969	63.1035	29.2969	63.0737	29.2969	63.0542	29.2969	63.0463	29.2969	62.9961	29.2969	63.0158	29.2969	62.9321	29.2969	62.9809	29.2969	62.8654	29.2969	62.9405	29.2969	62.7992	29.2969	62.8943	29.2969	62.7364	29.2969	62.8431	29.2969	62.6791	29.2969	62.7885	29.2969	62.6295	29.2969	62.7331	29.2969	62.5892	29.2969	62.68	29.2969	62.5594	29.2969	62.632	29.2969	62.5414	29.2969	62.5919	29.2969	62.5357	29.2969	62.5615	29.2969	62.5425
30.7617	64.1978	30.7617	64.1717	30.7617	64.2146	30.7617	64.1366	30.7617	64.2216	30.7617	64.0932	30.7617	64.2186	30.7617	64.0422	30.7617	64.2055	30.7617	63.985	30.7617	64.1825	30.7617	63.9233	30.7617	64.15	30.7617	63.8592	30.7617	64.1089	30.7617	63.7952	30.7617	64.0599	30.7617	63.7334	30.7617	64.0041	30.7617	63.6759	30.7617	63.9427	30.7617	63.6241	30.7617	63.8772	30.7617	63.5792	30.7617	63.8095	30.7617	63.5419	30.7617	63.7421	30.7617	63.5131	30.7617	63.6776	30.7617	63.4937	30.7617	63.619	30.7617	63.4848	30.7617	63.5689	30.7617	63.4874	30.7617	63.5295	30.7617	63.5022
32.2266	64.8631	32.2266	64.8508	32.2266	64.8665	32.2266	64.8293	32.2266	64.8615	32.2266	64.7985	32.2266	64.8485	32.2266	64.759	32.2266	64.828	32.2266	64.712	32.2266	64.8007	32.2266	64.6594	32.2266	64.7671	32.2266	64.6035	32.2266	64.728	32.2266	64.5469	32.2266	64.6843	32.2266	64.4918	32.2266	64.6369	32.2266	64.4403	32.2266	64.5869	32.2266	64.3938	32.2266	64.5355	32.2266	64.3533	32.2266	64.4842	32.2266	64.3194	32.2266	64.4346	32.2266	64.2928	32.2266	64.3883	32.2266	64.274	32.2266	64.3472	32.2266	64.2635	32.2266	64.3129	32.2266	64.2619	32.2266	64.2867	32.2266	64.2696
33.6914	65.215	33.6914	65.2149	33.6914	65.2071	33.6914	65.2062	33.6914	65.1923	33.6914	65.1886	33.6914	65.1714	33.6914	65.1622	33.6914	65.1455	33.6914	65.1277	33.6914	65.1155	33.6914	65.0863	33.6914	65.082	33.6914	65.04	33.6914	65.0458	33.6914	64.991	33.6914	65.0071	33.6914	64.9418	33.6914	64.9666	33.6914	64.8944	33.6914	64.9253	33.6914	64.8506	33.6914	64.8843	33.6914	64.8118	33.6914	64.8451	33.6914	64.7789	33.6914	64.8093	33.6914	64.7523	33.6914	64.7781	33.6914	64.7323	33.6914	64.7525	33.6914	64.7192	33.6914	64.7329	33.6914	64.7127	33.6914	64.7197	33.6914	64.713
35.1562	66.0123	35.1562	66.0056	35.1562	66.0093	35.1562	65.9892	35.1562	65.997	35.1562	65.9634	35.1562	65.9757	35.1562	65.929	35.1562	65.9461	35.1562	65.8867	35.1562	65.9088	35.1562	65.838	35.1562	65.8646	35.1562	65.7845	35.1562	65.8145	35.1562	65.728	35.1562	65.7594	35.1562	65.6705	35.1562	65.7012	35.1562	65.614	35.1562	65.6419	35.1562	65.5603	35.1562	65.5837	35.1562	65.5111	35.1562	65.5291	35.1562	65.4678	35.1562	65.4804	35.1562	65.4313	35.1562	65.4392	35.1562	65.4024	35.1562	65.4068	35.1562	65.3815	35.1562	65.3835	35.1562	65.3688	35.1562	65.3696	35.1562	65.3648
36.6211	66.6386	36.6211	66.6296	36.6211	66.6402	36.6211	66.6134	36.6211	66.6341	36.6211	66.5904	36.6211	66.6204	36.6211	66.561	36.6211	66.5993	36.6211	66.5259	36.6211	66.5711	36.6211	66.4859	36.6211	66.5362	36.6211	66.4421	36.6211	66.4954	36.6211	66.3957	36.6211	66.4498	36.6211	66.3482	36.6211	66.4007	36.6211	66.301	36.6211	66.3498	36.6211	66.2555	36.6211	66.2989	36.6211	66.213	36.6211	66.2498	36.6211	66.1747	36.6211	66.2045	36.6211	66.1418	36.6211	66.1646	36.6211	66.1152	36.6211	66.1314	36.6211	66.0959	36.6211	66.1063	36.6211	66.0849	36.6211	66.0899	36.6211	66.0828
38.0859	67.3568	38.0859	67.3561	38.0859	67.3497	38.0859	67.3475	38.0859	67.3351	38.0859	67.3311	38.0859	67.3134	38.0859	67.3072	38.0859	67.2851	38.0859	67.2764	38.0859	67.2508	38.0859	67.2397	38.0859	67.2113	38.0859	67.1981	38.0859	67.1677	38.0859	67.1529	38.0859	67.1209	38.0859	67.1058	38.0859	67.0722	38.0859	67.0583	38.0859	67.0232	38.0859	67.0119	38.0859	66.9757	38.0859	66.968	38.0859	66.9313	38.0859	66.9279	38.0859	66.892	38.0859	66.8925	38.0859	66.8594	38.0859	66.8626	38.0859	66.8347	38.0859	66.8389	38.0859	66.8186	38.0859	66.8221	38.0859	66.8113	38.0859	66.8127
39.5508	68.161	39.5508	68.1567	39.5508	68.1557	39.5508	68.1432	39.5508	68.1404	39.5508	68.1213	39.5508	68.115	39.5508	68.0917	39.5508	68.0801	39.5508	68.0553	39.5508	68.0366	39.5508	68.013	39.5508	67.9859	39.5508	67.9657	39.5508	67.9301	39.5508	67.9145	39.5508	67.8713	39.5508	67.8604	39.5508	67.8117	39.5508	67.8046	39.5508	67.7532	39.5508	67.7485	39.5508	67.6977	39.5508	67.6938	39.5508	67.6467	39.5508	67.6422	39.5508	67.6014	39.5508	67.5959	39.5508	67.5629	39.5508	67.5568	39.5508	67.5323	39.5508	67.5266	39.5508	67.5106	39.5508	67.5065	39.5508	67.4986	39.5508	67.4971
41.0156	68.1301	41.0156	68.1409	41.0156	68.1081	41.0156	68.1421	41.0156	68.0742	41.0156	68.1351	41.0156	68.0274	41.0156	68.1221	41.0156	67.9675	41.0156	68.1054	41.0156	67.8951	41.0156	68.0874	41.0156	67.8118	41.0156	68.0704	41.0156	67.7205	41.0156	68.0561	41.0156	67.6264	41.0156	68.0449	41.0156	67.5362	41.0156	68.0355	41.0156	67.4585	41.0156	68.0251	41.0156	67.4016	41.0156	68.0098	41.0156	67.3724	41.0156	67.9857	41.0156	67.3739	41.0156	67.9499	41.0156	67.4046	41.0156	67.9013	41.0156	67.4593	41.0156	67.8405	41.0156	67.5304	41.0156	67.7695	41.0156	67.6099	41.0156	67.6914
42.4805	69.0635	42.4805	69.0567	42.4805	69.0593	42.4805	69.0397	42.4805	69.0439	42.4805	69.0129	42.4805	69.0173	42.4805	68.9773	42.4805	68.9799	42.4805	68.9338	42.4805	68.9324	42.4805	68.8833	42.4805	68.8758	42.4805	68.8273	42.4805	68.8116	42.4805	68.767	42.4805	68.7419	42.4805	68.7043	42.4805	68.6689	42.4805	68.641	42.4805	68.5958	42.4805	68.5789	42.4805	68.5256	42.4805	68.52	42.4805	68.4614	42.4805	68.4657	42.4805	68.4062	42.4805	68.4173	42.4805	68.3617	42.4805	68.3761	42.4805	68.3292	42.4805	68.3429	42.4805	68.3091	42.4805	68.3187	42.4805	68.301	42.4805	68.3045
43.9453	69.5539	43.9453	69.5498	43.9453	69.5482	43.9453	69.5356	43.9453	69.5328	43.9453	69.5117	43.9453	69.5083	43.9453	69.4784	43.9453	69.4754	43.9453	69.4365	43.9453	69.4347	43.9453	69.3872	43.9453	69.387	43.9453	69.3319	43.9453	69.3333	43.9453	69.2727	43.9453	69.275	43.9453	69.2117	43.9453	69.2138	43.9453	69.1512	43.9453	69.1519	43.9453	69.0936	43.9453	69.0918	43.9453	69.0407	43.9453	69.036	43.9453	68.994	43.9453	68.9868	43.9453	68.9545	43.9453	68.9459	43.9453	68.9228	43.9453	68.9144	43.9453	68.8994	43.9453	68.8927	43.9453	68.8843	43.9453	68.8806	43.9453	68.878
45.4102	70.2588	45.4102	70.2627	45.4102	70.2472	45.4102	70.2588	45.4102	70.2283	45.4102	70.247	45.4102	70.2023	45.4102	70.2274	45.4102	70.1695	45.4102	70.2003	45.4102	70.1305	45.4102	70.1663	45.4102	70.0858	45.4102	70.1264	45.4102	70.0367	45.4102	70.082	45.4102	69.9845	45.4102	70.0344	45.4102	69.9313	45.4102	69.9853	45.4102	69.8794	45.4102	69.9365	45.4102	69.8312	45.4102	69.8895	45.4102	69.789	45.4102	69.8458	45.4102	69.7545	45.4102	69.8065	45.4102	69.7286	45.4102	69.7728	45.4102	69.7115	45.4102	69.7451	45.4102	69.703	45.4102	69.724	45.4102	69.7026	45.4102	69.7097
46.875	70.6321	46.875	70.6323	46.875	70.6265	46.875	70.627	46.875	70.6158	46.875	70.6166	46.875	70.6006	46.875	70.6016	46.875	70.582	46.875	70.5829	46.875	70.5612	46.875	70.5616	46.875	70.5396	46.875	70.5393	46.875	70.5187	46.875	70.5176	46.875	70.5004	46.875	70.4988	46.875	70.4861	46.875	70.4846	46.875	70.4772	46.875	70.4766	46.875	70.4745	46.875	70.4751	46.875	70.4779	46.875	70.4796	46.875	70.4861	46.875	70.4886	46.875	70.4973	46.875	70.4999	46.875	70.5088	46.875	70.511	46.875	70.5182	46.875	70.5196	46.875	70.5237	46.875	70.5242
48.3398	71.7039	48.3398	71.7167	48.3398	71.6689	48.3398	71.7076	48.3398	71.6122	48.3398	71.6778	48.3398	71.5351	48.3398	71.6291	48.3398	71.4401	48.3398	71.5638	48.3398	71.3305	48.3398	71.4848	48.3398	71.2105	48.3398	71.3954	48.3398	71.085	48.3398	71.2989	48.3398	70.9596	48.3398	71.1986	48.3398	70.8396	48.3398	71.0974	48.3398	70.7302	48.3398	70.9981	48.3398	70.636	48.3398	70.9027	48.3398	70.5599	48.3398	70.8132	48.3398	70.5037	48.3398	70.7308	48.3398	70.4675	48.3398	70.6569	48.3398	70.4504	48.3398	70.5926	48.3398	70.4508	48.3398	70.5388	48.3398	70.4667	48.3398	70.4965
51.2695	72.5684	51.2695	72.5851	51.2695	72.5364	51.2695	72.5863	51.2695	72.4897	51.2695	72.5716	51.2695	72.4289	51.2695	72.5409	51.2695	72.355	51.2695	72.4942	51.2695	72.269	51.2695	72.4316	51.2695	72.1725	51.2695	72.3537	51.2695	72.0674	51.2695	72.2615	51.2695	71.9561	51.2695	72.1567	51.2695	71.8415	51.2695	72.0421	51.2695	71.727	51.2695	71.9212	51.2695	71.6166	51.2695	71.7981	51.2695	71.5146	51.2695	71.6777	51.2695	71.425	51.2695	71.565	51.2695	71.3518	51.2695	71.4647	51.2695	71.2982	51.2695	71.3809	51.2695	71.2668	51.2695	71.3172	51.2695	71.2592	51.2695	71.2762
52.7344	72.9244	52.7344	72.927	52.7344	72.9148	52.7344	72.9231	52.7344	72.8983	52.7344	72.9131	52.7344	72.8747	52.7344	72.8974	52.7344	72.8446	52.7344	72.8765	52.7344	72.8083	52.7344	72.8507	52.7344	72.7667	52.7344	72.8203	52.7344	72.7209	52.7344	72.7856	52.7344	72.6725	52.7344	72.7469	52.7344	72.6235	52.7344	72.7048	52.7344	72.576	52.7344	72.6606	52.7344	72.5324	52.7344	72.6156	52.7344	72.4943	52.7344	72.5717	52.7344	72.4632	52.7344	72.5306	52.7344	72.4397	52.7344	72.4942	52.7344	72.424	52.7344	72.4637	52.7344	72.4162	52.7344	72.4402	52.7344	72.4163	52.7344	72.4243
54.1992	73.2026	54.1992	73.2008	54.1992	73.1972	54.1992	73.1921	54.1992	73.1845	54.1992	73.1774	54.1992	73.1653	54.1992	73.1581	54.1992	73.1407	54.1992	73.1355	54.1992	73.1122	54.1992	73.1113	54.1992	73.0815	54.1992	73.0873	54.1992	73.0507	54.1992	73.065	54.1992	73.0217	54.1992	73.0455	54.1992	72.9961	54.1992	73.0296	54.1992	72.9755	54.1992	73.0174	54.1992	72.9609	54.1992	73.0086	54.1992	72.9524	54.1992	73.0025	54.1992	72.9496	54.1992	72.9979	54.1992	72.9516	54.1992	72.9941	54.1992	72.957	54.1992	72.99	54.1992	72.9641	54.1992	72.985	54.1992	72.9717	54.1992	72.9789
55.6641	73.7377	55.6641	73.7453	55.6641	73.7158	55.6641	73.7387	55.6641	73.6802	55.6641	73.7183	55.6641	73.6324	55.6641	73.6857	55.6641	73.5743	55.6641	73.6426	55.6641	73.5086	55.6641	73.5916	55.6641	73.4381	55.6641	73.5353	55.6641	73.3661	55.6641	73.4765	55.6641	73.296	55.6641	73.418	55.6641	73.2307	55.6641	73.3619	55.6641	73.1732	55.6641	73.3097	55.6641	73.1252	55.6641	73.2625	55.6641	73.0881	55.6641	73.2202	55.6641	73.0623	55.6641	73.1827	55.6641	73.0474	55.6641	73.1495	55.6641	73.0424	55.6641	73.1202	55.6641	73.0461	55.6641	73.0948	55.6641	73.0568	55.6641	73.0734
58.5938	75.0505	58.5938	75.0451	58.5938	75.0398	58.5938	75.0236	58.5938	75.0134	58.5938	74.9866	58.5938	74.9723	58.5938	74.9353	58.5938	74.9181	58.5938	74.8711	58.5938	74.8525	58.5938	74.7963	58.5938	74.7779	58.5938	74.7132	58.5938	74.6966	58.5938	74.6248	58.5938	74.6112	58.5938	74.5344	58.5938	74.5244	58.5938	74.4452	58.5938	74.439	58.5938	74.3606	58.5938	74.3575	58.5938	74.2836	58.5938	74.2824	58.5938	74.2164	58.5938	74.216	58.5938	74.1604	58.5938	74.1599	58.5938	74.1165	58.5938	74.1157	58.5938	74.085	58.5938	74.084	58.5938	74.0658	58.5938	74.0652	58.5938	74.0592
60.0586	75.4231	60.0586	75.4205	60.0586	75.411	60.0586	75.4035	60.0586	75.3843	60.0586	75.373	60.0586	75.3435	60.0586	75.33	60.0586	75.2897	60.0586	75.276	60.0586	75.2246	60.0586	75.2127	60.0586	75.1503	60.0586	75.1421	60.0586	75.0692	60.0586	75.0663	60.0586	74.9843	60.0586	74.9877	60.0586	74.8986	60.0586	74.909	60.0586	74.8153	60.0586	74.8325	60.0586	74.7372	60.0586	74.7606	60.0586	74.6671	60.0586	74.695	60.0586	74.6072	60.0586	74.6371	60.0586	74.5593	60.0586	74.5881	60.0586	74.5246	60.0586	74.5486	60.0586	74.5035	60.0586	74.5195	60.0586	74.4961	60.0586	74.5017
62.9883	76.2858	62.9883	76.2877	62.9883	76.2692	62.9883	76.2749	62.9883	76.2385	62.9883	76.2476	62.9883	76.1949	62.9883	76.2068	62.9883	76.1397	62.9883	76.154	62.9883	76.0749	62.9883	76.0908	62.9883	76.003	62.9883	76.0196	62.9883	75.9264	62.9883	75.943	62.9883	75.848	62.9883	75.8636	62.9883	75.7703	62.9883	75.7842	62.9883	75.6957	62.9883	75.7074	62.9883	75.6265	62.9883	75.6356	62.9883	75.5643	62.9883	75.5708	62.9883	75.5105	62.9883	75.5147	62.9883	75.466	62.9883	75.4685	62.9883	75.4319	62.9883	75.4332	62.9883	75.4087	62.9883	75.4093	62.9883	75.3971	62.9883	75.3972
64.4531	76.7551	64.4531	76.7633	64.4531	76.7329	64.4531	76.7571	64.4531	76.6973	64.4531	76.7367	64.4531	76.6497	64.4531	76.703	64.4531	76.5918	64.4531	76.6572	64.4531	76.5257	64.4531	76.6012	64.4531	76.4538	64.4531	76.537	64.4531	76.3788	64.4531	76.4672	64.4531	76.3035	64.4531	76.3943	64.4531	76.2303	64.4531	76.3208	64.4531	76.1617	64.4531	76.249	64.4531	76.0996	64.4531	76.181	64.4531	76.0454	64.4531	76.1185	64.4531	76.0002	64.4531	76.063	64.4531	75.9647	64.4531	76.0154	64.4531	75.9396	64.4531	75.9769	64.4531	75.9252	64.4531	75.9481	64.4531	75.9219	64.4531	75.9296
67.3828	77.6286	67.3828	77.6271	67.3828	77.6141	67.3828	77.6099	67.3828	77.584	67.3828	77.5779	67.3828	77.5394	67.3828	77.5327	67.3828	77.4819	67.3828	77.4763	67.3828	77.4139	67.3828	77.4114	67.3828	77.3382	67.3828	77.3405	67.3828	77.2578	67.3828	77.2665	67.3828	77.176	67.3828	77.1921	67.3828	77.0958	67.3828	77.1197	67.3828	77.0203	67.3828	77.0512	67.3828	76.9519	67.3828	76.9879	67.3828	76.8924	67.3828	76.9308	67.3828	76.8429	67.3828	76.8804	67.3828	76.804	67.3828	76.8374	67.3828	76.7761	67.3828	76.8024	67.3828	76.7594	67.3828	76.7762	67.3828	76.7541	67.3828	76.7598
68.8477	77.9744	68.8477	77.97	68.8477	77.9629	68.8477	77.9497	68.8477	77.9359	68.8477	77.9144	68.8477	77.8946	68.8477	77.8656	68.8477	77.8407	68.8477	77.8052	68.8477	77.7764	68.8477	77.7358	68.8477	77.7044	68.8477	77.6603	68.8477	77.6275	68.8477	77.582	68.8477	77.5487	68.8477	77.5038	68.8477	77.4711	68.8477	77.4287	68.8477	77.3974	68.8477	77.359	68.8477	77.3302	68.8477	77.2967	68.8477	77.2713	68.8477	77.2429	68.8477	77.2218	68.8477	77.1985	68.8477	77.1821	68.8477	77.1639	68.8477	77.1522	68.8477	77.1389	68.8477	77.1315	68.8477	77.1235	68.8477	77.1199	68.8477	77.1172
71.7773	78.818	71.7773	78.8195	71.7773	78.8004	71.7773	78.805	71.7773	78.7677	71.7773	78.7748	71.7773	78.7213	71.7773	78.7303	71.7773	78.6633	71.7773	78.6733	71.7773	78.5963	71.7773	78.6062	71.7773	78.5232	71.7773	78.5317	71.7773	78.4471	71.7773	78.4529	71.7773	78.371	71.7773	78.3729	71.7773	78.2975	71.7773	78.2947	71.7773	78.229	71.7773	78.221	71.7773	78.1671	71.7773	78.1542	71.7773	78.1132	71.7773	78.0965	71.7773	78.0681	71.7773	78.0492	71.7773	78.0319	71.7773	78.0133	71.7773	78.0044	71.7773	77.9887	71.7773	77.9851	71.7773	77.9746	71.7773	77.9736	71.7773	77.9699
74.707	79.6676	74.707	79.6691	74.707	79.6497	74.707	79.6541	74.707	79.616	74.707	79.6233	74.707	79.568	74.707	79.5782	74.707	79.5078	74.707	79.5209	74.707	79.4381	74.707	79.4538	74.707	79.362	74.707	79.38	74.707	79.2827	74.707	79.3027	74.707	79.2036	74.707	79.2249	74.707	79.1278	74.707	79.1495	74.707	79.0578	74.707	79.0789	74.707	78.9957	74.707	79.0151	74.707	78.9427	74.707	78.9595	74.707	78.8993	74.707	78.9128	74.707	78.8656	74.707	78.8756	74.707	78.8412	74.707	78.8478	74.707	78.8256	74.707	78.8292	74.707	78.8184	74.707	78.8195
77.6367	80.4182	77.6367	80.4182	77.6367	80.4014	77.6367	80.4016	77.6367	80.3685	77.6367	80.3691	77.6367	80.3209	77.6367	80.3224	77.6367	80.2607	77.6367	80.2638	77.6367	80.1907	77.6367	80.1961	77.6367	80.1138	77.6367	80.1225	77.6367	80.0337	77.6367	80.0463	77.6367	79.9537	77.6367	79.9708	77.6367	79.8771	77.6367	79.8986	77.6367	79.8066	77.6367	79.832	77.6367	79.7441	77.6367	79.7723	77.6367	79.6909	77.6367	79.7202	77.6367	79.6477	77.6367	79.676	77.6367	79.6144	77.6367	79.6395	77.6367	79.5911	77.6367	79.6108	77.6367	79.5773	77.6367	79.5899	77.6367	79.5728	77.6367	79.5771
79.1016	80.8282	79.1016	80.8269	79.1016	80.8108	79.1016	80.8072	79.1016	80.7756	79.1016	80.7699	79.1016	80.724	79.1016	80.7168	79.1016	80.6582	79.1016	80.6503	79.1016	80.581	79.1016	80.5736	79.1016	80.4959	79.1016	80.4901	79.1016	80.4065	79.1016	80.4038	79.1016	80.3166	79.1016	80.3182	79.1016	80.2298	79.1016	80.2367	79.1016	80.1492	79.1016	80.1617	79.1016	80.0772	79.1016	80.0948	79.1016	80.0154	79.1016	80.037	79.1016	79.9647	79.1016	79.9881	79.1016	79.9256	79.1016	79.9482	79.1016	79.898	79.1016	79.9168	79.1016	79.8815	79.1016	79.894	79.1016	79.8758	79.1016	79.8802
82.0312	81.6745	82.0312	81.6657	82.0312	81.6616	82.0312	81.6357	82.0312	81.6274	82.0312	81.5855	82.0312	81.573	82.0312	81.5166	82.0312	81.5	82.0312	81.4316	82.0312	81.4105	82.0312	81.3332	82.0312	81.3073	82.0312	81.2247	82.0312	81.1937	82.0312	81.1097	82.0312	81.0734	82.0312	80.9919	82.0312	80.9502	82.0312	80.8748	82.0312	80.8284	82.0312	80.762	82.0312	80.7118	82.0312	80.6564	82.0312	80.6044	82.0312	80.5608	82.0312	80.5094	82.0312	80.4774	82.0312	80.4297	82.0312	80.4081	82.0312	80.3678	82.0312	80.3545	82.0312	80.3252	82.0312	80.3183	82.0312	80.3027	82.0312	80.3006
84.9609	81.7594	84.9609	81.6997	84.9609	81.8123	84.9609	81.6339	84.9609	81.8584	84.9609	81.5637	84.9609	81.8978	84.9609	81.491	84.9609	81.931	84.9609	81.419	84.9609	81.9584	84.9609	81.3512	84.9609	81.98	84.9609	81.2914	84.9609	81.996	84.9609	81.2436	84.9609	82.006	84.9609	81.2111	84.9609	82.0095	84.9609	81.1966	84.9609	82.0058	84.9609	81.2012	84.9609	81.9939	84.9609	81.2249	84.9609	81.9729	84.9609	81.2662	84.9609	81.9419	84.9609	81.3228	84.9609	81.9001	84.9609	81.3914	84.9609	81.8472	84.9609	81.4685	84.9609	81.7838	84.9609	81.5501	84.9609	81.7114	84.9609	81.6324
87.8906	82.2854	87.8906	82.325	87.8906	82.2427	87.8906	82.3597	87.8906	82.1997	87.8906	82.3887	87.8906	82.16	87.8906	82.4122	87.8906	82.1274	87.8906	82.431	87.8906	82.1056	87.8906	82.447	87.8906	82.0981	87.8906	82.4625	87.8906	82.107	87.8906	82.4798	87.8906	82.133	87.8906	82.5008	87.8906	82.1753	87.8906	82.527	87.8906	82.2319	87.8906	82.5587	87.8906	82.2993	87.8906	82.5947	87.8906	82.3733	87.8906	82.6327	87.8906	82.4497	87.8906	82.669	87.8906	82.5236	87.8906	82.6993	87.8906	82.5908	87.8906	82.7195	87.8906	82.6473	87.8906	82.726	87.8906	82.6898	87.8906	82.7163
90.8203	83.1182	90.8203	83.1404	90.8203	83.0735	90.8203	83.1402	90.8203	83.0083	90.8203	83.1192	90.8203	82.9264	90.8203	83.0813	90.8203	82.833	90.8203	83.0318	90.8203	82.7348	90.8203	82.9771	90.8203	82.6394	90.8203	82.9243	90.8203	82.5545	90.8203	82.8802	90.8203	82.4877	90.8203	82.8502	90.8203	82.4448	90.8203	82.8378	90.8203	82.4299	90.8203	82.8433	90.8203	82.4439	90.8203	82.864	90.8203	82.485	90.8203	82.8941	90.8203	82.5483	90.8203	82.9259	90.8203	82.6268	90.8203	82.951	90.8203	82.7119	90.8203	82.9615	90.8203	82.7945	90.8203	82.9521	90.8203	82.8661	90.8203	82.92
95.2148	84.3561	95.2148	84.3748	95.2148	84.3101	95.2148	84.3653	95.2148	84.2388	95.2148	84.3279	95.2148	84.1455	95.2148	84.2644	95.2148	84.0342	95.2148	84.1779	95.2148	83.9099	95.2148	84.0726	95.2148	83.7778	95.2148	83.954	95.2148	83.6434	95.2148	83.8279	95.2148	83.5121	95.2148	83.7003	95.2148	83.3889	95.2148	83.5768	95.2148	83.2779	95.2148	83.4617	95.2148	83.1825	95.2148	83.3584	95.2148	83.1049	95.2148	83.2684	95.2148	83.0462	95.2148	83.192	95.2148	83.006	95.2148	83.1285	95.2148	82.9834	95.2148	83.0767	95.2148	82.9769	95.2148	83.0354	95.2148	82.9845	95.2148	83.0045
98.1445	84.9361	98.1445	84.9439	98.1445	84.9007	98.1445	84.9239	98.1445	84.8393	98.1445	84.8767	98.1445	84.7542	98.1445	84.8041	98.1445	84.649	98.1445	84.7088	98.1445	84.5284	98.1445	84.5948	98.1445	84.3976	98.1445	84.4669	98.1445	84.2625	98.1445	84.3308	98.1445	84.1287	98.1445	84.1926	98.1445	84.0017	98.1445	84.0581	98.1445	83.8859	98.1445	83.9325	98.1445	83.7847	98.1445	83.82	98.1445	83.7002	98.1445	83.7235	98.1445	83.6327	98.1445	83.6447	98.1445	83.5814	98.1445	83.5843	98.1445	83.5444	98.1445	83.5418	98.1445	83.5199	98.1445	83.516	98.1445	83.5067	98.1445	83.505
101.074	85.2437	101.074	85.2351	101.074	85.2295	101.074	85.2045	101.074	85.1926	101.074	85.1536	101.074	85.1342	101.074	85.0847	101.074	85.0566	101.074	85.0011	101.074	84.9633	101.074	84.906	101.074	84.8586	101.074	84.8036	101.074	84.7475	101.074	84.6978	101.074	84.6353	101.074	84.5929	101.074	84.5269	101.074	84.4924	101.074	84.4261	101.074	84.3994	101.074	84.3358	101.074	84.3162	101.074	84.2575	101.074	84.244	101.074	84.192	101.074	84.1833	101.074	84.1395	101.074	84.1342	101.074	84.0999	101.074	84.097	101.074	84.0734	101.074	84.072	101.074	84.06	101.074	84.0595
105.469	85.538	105.469	85.5364	105.469	85.5173	105.469	85.5126	105.469	85.4753	105.469	85.4685	105.469	85.4145	105.469	85.4069	105.469	85.3384	105.469	85.3317	105.469	85.2518	105.469	85.2476	105.469	85.1601	105.469	85.1598	105.469	85.0693	105.469	85.0732	105.469	84.9849	105.469	84.9923	105.469	84.9118	105.469	84.9211	105.469	84.8533	105.469	84.8621	105.469	84.8108	105.469	84.8169	105.469	84.7837	105.469	84.7857	105.469	84.7694	105.469	84.767	105.469	84.764	105.469	84.7586	105.469	84.7636	105.469	84.7571	105.469	84.7646	105.469	84.7594	105.469	84.7645	105.469	84.7625
108.398	86.0315	108.398	86.0331	108.398	86.0035	108.398	86.0082	108.398	85.9507	108.398	85.9582	108.398	85.876	108.398	85.8865	108.398	85.7837	108.398	85.7974	108.398	85.6788	108.398	85.6968	108.398	85.567	108.398	85.5909	108.398	85.4545	108.398	85.4858	108.398	85.3473	108.398	85.3872	108.398	85.2509	108.398	85.2996	108.398	85.1697	108.398	85.2256	108.398	85.1063	108.398	85.1663	108.398	85.061	108.398	85.1213	108.398	85.0325	108.398	85.0886	108.398	85.0177	108.398	85.0658	108.398	85.013	108.398	85.0497	108.398	85.0148	108.398	85.0379	108.398	85.0206	108.398	85.0284
112.793	86.4369	112.793	86.4569	112.793	86.3824	112.793	86.4431	112.793	86.2948	112.793	86.3979	112.793	86.1774	112.793	86.3256	112.793	86.0357	112.793	86.2319	112.793	85.8769	112.793	86.1242	112.793	85.7102	112.793	86.0103	112.793	85.5457	112.793	85.8986	112.793	85.3939	112.793	85.7963	112.793	85.2645	112.793	85.7091	112.793	85.165	112.793	85.6396	112.793	85.0996	112.793	85.5871	112.793	85.0692	112.793	85.5476	112.793	85.0711	112.793	85.5151	112.793	85.1	112.793	85.4826	112.793	85.149	112.793	85.4444	112.793	85.2103	112.793	85.397	112.793	85.2763	112.793	85.3402
117.188	86.7841	117.188	86.7414	117.188	86.7942	117.188	86.6675	117.188	86.7713	117.188	86.5655	117.188	86.7164	117.188	86.4395	117.188	86.632	117.188	86.2952	117.188	86.5221	117.188	86.1397	117.188	86.3923	117.188	85.9813	117.188	86.2498	117.188	85.8293	117.188	86.1029	117.188	85.6928	117.188	85.9604	117.188	85.5798	117.188	85.8306	117.188	85.4954	117.188	85.7202	117.188	85.4414	117.188	85.633	117.188	85.415	117.188	85.5694	117.188	85.4104	117.188	85.527	117.188	85.4198	117.188	85.5012	117.188	85.4354	117.188	85.4858	117.188	85.4514	117.188	85.4753	117.188	85.4647
120.117	86.717	120.117	86.6949	120.117	86.7054	120.117	86.6402	120.117	86.6604	120.117	86.5552	120.117	86.5833	120.117	86.4433	120.117	86.4771	120.117	86.309	120.117	86.3463	120.117	86.1585	120.117	86.1975	120.117	85.9992	120.117	86.0388	120.117	85.8396	120.117	85.8799	120.117	85.6887	120.117	85.731	120.117	85.5555	120.117	85.6014	120.117	85.4475	120.117	85.4979	120.117	85.3693	120.117	85.4238	120.117	85.3219	120.117	85.3779	120.117	85.3019	120.117	85.3552	120.117	85.3024	120.117	85.348	120.117	85.3146	120.117	85.3478	120.117	85.3298	120.117	85.3473	120.117	85.3416
124.512	86.9143	124.512	86.8888	124.512	86.9082	124.512	86.8323	124.512	86.8712	124.512	86.7464	124.512	86.8048	124.512	86.6342	124.512	86.7115	124.512	86.5001	124.512	86.5948	124.512	86.3494	124.512	86.4592	124.512	86.189	124.512	86.3104	124.512	86.0263	124.512	86.1551	124.512	85.8691	124.512	86.0014	124.512	85.7253	124.512	85.8577	124.512	85.6014	124.512	85.7313	124.512	85.5026	124.512	85.6278	124.512	85.4313	124.512	85.5489	124.512	85.3868	124.512	85.4925	124.512	85.3658	124.512	85.4538	124.512	85.3627	124.512	85.4264	124.512	85.3715	124.512	85.4051	124.512	85.3867
128.906	87.0926	128.906	87.0653	128.906	87.0869	128.906	87.004	128.906	87.0501	128.906	86.9099	128.906	86.9848	128.906	86.7856	128.906	86.8942	128.906	86.6361	128.906	86.7807	128.906	86.468	128.906	86.6468	128.906	86.2893	128.906	86.4945	128.906	86.1084	128.906	86.3263	128.906	85.9336	128.906	86.1459	128.906	85.772	128.906	85.9592	128.906	85.6286	128.906	85.7746	128.906	85.5064	128.906	85.6023	128.906	85.4058	128.906	85.4525	128.906	85.3257	128.906	85.3331	128.906	85.2638	128.906	85.2478	128.906	85.2179	128.906	85.1955	128.906	85.1866	128.906	85.1715	128.906	85.1702
133.301	86.6015	133.301	86.6198	133.301	86.5612	133.301	86.615	133.301	86.5018	133.301	86.588	133.301	86.4276	133.301	86.5411	133.301	86.3446	133.301	86.4779	133.301	86.2592	133.301	86.4029	133.301	86.1776	133.301	86.321	133.301	86.1049	133.301	86.2368	133.301	86.0441	133.301	86.1542	133.301	85.9958	133.301	86.0765	133.301	85.9586	133.301	86.0059	133.301	85.9295	133.301	85.9439	133.301	85.9053	133.301	85.8918	133.301	85.8834	133.301	85.8506	133.301	85.8625	133.301	85.821	133.301	85.8425	133.301	85.8032	133.301	85.8241	133.301	85.7963	133.301	85.809	133.301	85.799
139.16	87.0269	139.16	87.0212	139.16	86.9979	139.16	86.9808	139.16	86.9359	139.16	86.9077	139.16	86.845	139.16	86.8061	139.16	86.7308	139.16	86.6823	139.16	86.6006	139.16	86.5442	139.16	86.4627	139.16	86.4012	139.16	86.326	139.16	86.263	139.16	86.1988	139.16	86.1387	139.16	86.0879	139.16	86.0347	139.16	85.9979	139.16	85.9545	139.16	85.9308	139.16	85.8983	139.16	85.886	139.16	85.8633	139.16	85.8603	139.16	85.8455	139.16	85.8492	139.16	85.84	139.16	85.8473	139.16	85.8417	139.16	85.8493	139.16	85.8462	139.16	85.851	139.16	85.85
143.555	87.0366	143.555	87.0365	143.555	87.0007	143.555	87.0004	143.555	86.9311	143.555	86.9303	143.555	86.8324	143.555	86.8308	143.555	86.7108	143.555	86.7085	143.555	86.5742	143.555	86.5719	143.555	86.4311	143.555	86.4305	143.555	86.2904	143.555	86.2942	143.555	86.16	143.555	86.1718	143.555	86.0467	143.555	86.0698	143.555	85.9554	143.555	85.9919	143.555	85.8888	143.555	85.9379	143.555	85.8469	143.555	85.9051	143.555	85.8275	143.555	85.8885	143.555	85.8259	143.555	85.8824	143.555	85.8359	143.555	85.8812	143.555	85.8509	143.555	85.88	143.555	85.8652	143.555	85.8752
147.949	86.9511	147.949	86.9604	147.949	86.9046	147.949	86.9322	147.949	86.8231	147.949	86.8685	147.949	86.7111	147.949	86.7735	147.949	86.5751	147.949	86.6531	147.949	86.4237	147.949	86.5155	147.949	86.2669	147.949	86.3703	147.949	86.1147	147.949	86.2281	147.949	85.9762	147.949	86.0986	147.949	85.8582	147.949	85.9895	147.949	85.7645	147.949	85.9048	147.949	85.6956	147.949	85.8439	147.949	85.6501	147.949	85.8026	147.949	85.6251	147.949	85.7743	147.949	85.6171	147.949	85.7524	147.949	85.6227	147.949	85.7316	147.949	85.6382	147.949	85.7091	147.949	85.6601	147.949	85.6847
153.809	86.6263	153.809	86.626	153.809	86.5926	153.809	86.5922	153.809	86.5266	153.809	86.5269	153.809	86.4315	153.809	86.4343	153.809	86.3124	153.809	86.3204	153.809	86.1765	153.809	86.193	153.809	86.0323	153.809	86.0613	153.809	85.8901	153.809	85.9355	153.809	85.7604	153.809	85.8254	153.809	85.6528	153.809	85.7395	153.809	85.5745	153.809	85.6829	153.809	85.5286	153.809	85.6563	153.809	85.5144	153.809	85.6554	153.809	85.5273	153.809	85.6719	153.809	85.5598	153.809	85.6952	153.809	85.6032	153.809	85.7147	153.809	85.6486	153.809	85.7222	153.809	85.6874	153.809	85.7132
159.668	86.7446	159.668	86.7497	159.668	86.6976	159.668	86.7128	159.668	86.6119	159.668	86.6368	159.668	86.4932	159.668	86.5271	159.668	86.35	159.668	86.3919	159.668	86.1927	159.668	86.2409	159.668	86.0324	159.668	86.0848	159.668	85.8804	159.668	85.9342	159.668	85.7467	159.668	85.7986	159.668	85.639	159.668	85.6859	159.668	85.5623	159.668	85.6013	159.668	85.5182	159.668	85.5473	159.668	85.5046	159.668	85.523	159.668	85.5157	159.668	85.5242	159.668	85.5425	159.668	85.5433	159.668	85.5744	159.668	85.5711	159.668	85.6015	159.668	85.5976	159.668	85.616	159.668	85.6143
165.527	86.7085	165.527	86.7054	165.527	86.6688	165.527	86.6602	165.527	86.5879	165.527	86.576	165.527	86.4701	165.527	86.4587	165.527	86.3224	165.527	86.3171	165.527	86.1546	165.527	86.1621	165.527	85.9784	165.527	86.0064	165.527	85.8073	165.527	85.8628	165.527	85.6538	165.527	85.742	165.527	85.5286	165.527	85.6508	165.527	85.4378	165.527	85.5909	165.527	85.3834	165.527	85.5593	165.527	85.363	165.527	85.5493	165.527	85.371	165.527	85.5527	165.527	85.3998	165.527	85.5612	165.527	85.4404	165.527	85.5671	165.527	85.4839	165.527	85.5646	165.527	85.5222	165.527	85.55
171.387	86.4192	171.387	86.4209	171.387	86.3769	171.387	86.3813	171.387	86.2969	171.387	86.3026	171.387	86.1847	171.387	86.1897	171.387	86.0479	171.387	86.0502	171.387	85.8961	171.387	85.895	171.387	85.7402	171.387	85.7369	171.387	85.5916	171.387	85.5902	171.387	85.4609	171.387	85.4679	171.387	85.3566	171.387	85.3797	171.387	85.2838	171.387	85.3293	171.387	85.2436	171.387	85.3138	171.387	85.2333	171.387	85.3248	171.387	85.2473	171.387	85.3509	171.387	85.278	171.387	85.3804	171.387	85.3171	171.387	85.4038	171.387	85.3565	171.387	85.4144	171.387	85.3891	171.387	85.4094
177.246	86.2683	177.246	86.2686	177.246	86.216	177.246	86.2174	177.246	86.1148	177.246	86.1179	177.246	85.9717	177.246	85.9769	177.246	85.797	177.246	85.8035	177.246	85.6048	177.246	85.6099	177.246	85.4111	177.246	85.4105	177.246	85.2327	177.246	85.2212	177.246	85.0837	177.246	85.0573	177.246	84.974	177.246	84.9314	177.246	84.907	177.246	84.851	177.246	84.8797	177.246	84.8162	177.246	84.8845	177.246	84.8205	177.246	84.9108	177.246	84.8527	177.246	84.9473	177.246	84.8995	177.246	84.9835	177.246	84.9484	177.246	85.0106	177.246	84.9893	177.246	85.0222	177.246	85.0151
183.105	86.0575	183.105	86.0783	183.105	85.9834	183.105	86.0459	183.105	85.858	183.105	85.9632	183.105	85.6865	183.105	85.8357	183.105	85.4771	183.105	85.6719	183.105	85.242	183.105	85.4832	183.105	84.9974	183.105	85.2838	183.105	84.7628	183.105	85.0898	183.105	84.559	183.105	84.9168	183.105	84.4047	183.105	84.7776	183.105	84.3115	183.105	84.6797	183.105	84.2808	183.105	84.6234	183.105	84.3036	183.105	84.6027	183.105	84.3631	183.105	84.6068	183.105	84.4401	183.105	84.6237	183.105	84.517	183.105	84.6421	183.105	84.5813	183.105	84.6528	183.105	84.6259	183.105	84.649
188.965	85.8423	188.965	85.8473	188.965	85.788	188.965	85.8043	188.965	85.685	188.965	85.7168	188.965	85.536	188.965	85.5902	188.965	85.3466	188.965	85.4324	188.965	85.1255	188.965	85.254	188.965	84.8852	188.965	85.0676	188.965	84.642	188.965	84.8877	188.965	84.4148	188.965	84.7287	188.965	84.2228	188.965	84.602	188.965	84.0817	188.965	84.5145	188.965	84.0009	188.965	84.4657	188.965	83.9808	188.965	84.4488	188.965	84.0132	188.965	84.4517	188.965	84.0834	188.965	84.4606	188.965	84.1738	188.965	84.4627	188.965	84.267	188.965	84.4481	188.965	84.349	188.965	84.4106
196.289	85.7634	196.289	85.7676	196.289	85.7049	196.289	85.7186	196.289	85.5938	196.289	85.6205	196.289	85.4349	196.289	85.4799	196.289	85.2363	196.289	85.3062	196.289	85.0095	196.289	85.1113	196.289	84.7694	196.289	84.9095	196.289	84.534	196.289	84.7165	196.289	84.3225	196.289	84.548	196.289	84.1532	196.289	84.4169	196.289	84.0388	196.289	84.3306	196.289	83.984	196.289	84.2889	196.289	83.9837	196.289	84.2844	196.289	84.0256	196.289	84.304	196.289	84.0937	196.289	84.3325	196.289	84.1722	196.289	84.3558	196.289	84.2472	196.289	84.3629	196.289	84.3081	196.289	84.3476
203.613	85.541	203.613	85.532	203.613	85.4892	203.613	85.463	203.613	85.3786	203.613	85.3387	203.613	85.2152	203.613	85.1669	203.613	85.0077	203.613	84.9585	203.613	84.7684	203.613	84.7277	203.613	84.5127	203.613	84.4911	203.613	84.2586	203.613	84.2674	203.613	84.0263	203.613	84.076	203.613	83.8358	203.613	83.9345	203.613	83.7039	203.613	83.8545	203.613	83.6405	203.613	83.8385	203.613	83.6452	203.613	83.8773	203.613	83.7071	203.613	83.9518	203.613	83.8072	203.613	84.0378	203.613	83.9224	203.613	84.1117	203.613	84.0303	203.613	84.1546	203.613	84.1123	203.613	84.1556
210.938	85.3087	210.938	85.3132	210.938	85.2427	210.938	85.2562	210.938	85.1188	210.938	85.1418	210.938	84.9441	210.938	84.9783	210.938	84.7297	210.938	84.777	210.938	84.4895	210.938	84.5526	210.938	84.2402	210.938	84.321	210.938	84	210.938	84.0983	210.938	83.7862	210.938	83.8993	210.938	83.6134	210.938	83.7362	210.938	83.4912	210.938	83.6175	210.938	83.423	210.938	83.547	210.938	83.406	210.938	83.5227	210.938	83.4322	210.938	83.5369	210.938	83.4884	210.938	83.5763	210.938	83.5578	210.938	83.6243	210.938	83.6222	210.938	83.6636	210.938	83.666	210.938	83.6801
218.262	85.0523	218.262	85.0654	218.262	84.9745	218.262	85.0135	218.262	84.8358	218.262	84.8999	218.262	84.6428	218.262	84.7321	218.262	84.4057	218.262	84.5219	218.262	84.1387	218.262	84.2852	218.262	83.8603	218.262	84.0412	218.262	83.5938	218.262	83.8102	218.262	83.3644	218.262	83.6115	218.262	83.1953	218.262	83.4604	218.262	83.1007	218.262	83.3658	218.262	83.0819	218.262	83.3286	218.262	83.1268	218.262	83.3412	218.262	83.2146	218.262	83.3895	218.262	83.3215	218.262	83.4552	218.262	83.426	218.262	83.5196	218.262	83.5113	218.262	83.5666	218.262	83.5658	218.262	83.5841
225.586	84.8758	225.586	84.9045	225.586	84.7756	225.586	84.8613	225.586	84.6074	225.586	84.7494	225.586	84.378	225.586	84.5757	225.586	84.0984	225.586	84.3517	225.586	83.7842	225.586	84.0936	225.586	83.4573	225.586	83.8218	225.586	83.1451	225.586	83.5592	225.586	82.8788	225.586	83.3282	225.586	82.6865	225.586	83.1472	225.586	82.5856	225.586	83.0277	225.586	82.577	225.586	82.9733	225.586	82.6456	225.586	82.9786	225.586	82.7657	225.586	83.03	225.586	82.9088	225.586	83.1069	225.586	83.0483	225.586	83.1858	225.586	83.1628	225.586	83.244	225.586	83.2373	225.586	83.2642
232.91	84.8879	232.91	84.9407	232.91	84.7558	232.91	84.9151	232.91	84.5467	232.91	84.8151	232.91	84.2665	232.91	84.6478	232.91	83.925	232.91	84.4237	232.91	83.537	232.91	84.1567	232.91	83.1227	232.91	83.8642	232.91	82.7091	232.91	83.5656	232.91	82.3298	232.91	83.2805	232.91	82.0221	232.91	83.0278	232.91	81.8186	232.91	82.8241	232.91	81.7364	232.91	82.6829	232.91	81.7697	232.91	82.611	232.91	81.8928	232.91	82.6028	232.91	82.0694	232.91	82.6372	232.91	82.2633	232.91	82.6815	232.91	82.4434	232.91	82.7018	232.91	82.5853	232.91	82.673
241.699	85.3287	241.699	85.3753	241.699	85.2015	241.699	85.3511	241.699	84.9862	241.699	85.2668	241.699	84.6784	241.699	85.1333	241.699	84.2777	241.699	84.9611	241.699	83.7901	241.699	84.7598	241.699	83.23	241.699	84.5389	241.699	82.625	241.699	84.308	241.699	82.0197	241.699	84.0768	241.699	81.4772	241.699	83.8533	241.699	81.0682	241.699	83.6401	241.699	80.8453	241.699	83.4328	241.699	80.8169	241.699	83.2235	241.699	80.9441	241.699	83.0074	241.699	81.1655	241.699	82.7874	241.699	81.4253	241.699	82.5709	241.699	81.6859	241.699	82.3608	241.699	81.9286	241.699	82.1507
250.488	85.2484	250.488	85.1538	250.488	85.2646	250.488	84.9875	250.488	85.1996	250.488	84.7613	250.488	85.0551	250.488	84.4918	250.488	84.8372	250.488	84.2015	250.488	84.5557	250.488	83.9177	250.488	84.2235	250.488	83.6698	250.488	83.8555	250.488	83.4819	250.488	83.4685	250.488	83.3645	250.488	83.0825	250.488	83.3094	250.488	82.7235	250.488	83.2937	250.488	82.4249	250.488	83.2905	250.488	82.2221	250.488	83.2787	250.488	82.1401	250.488	83.2475	250.488	82.1788	250.488	83.1927	250.488	82.3107	250.488	83.1122	250.488	82.493	250.488	83.0021	250.488	82.6851	250.488	82.8591
259.277	84.8541	259.277	84.7592	259.277	84.8719	259.277	84.5932	259.277	84.8106	259.277	84.3658	259.277	84.6727	259.277	84.0907	259.277	84.4669	259.277	83.7869	259.277	84.2084	259.277	83.4792	259.277	83.9194	259.277	83.1979	259.277	83.6248	259.277	82.9762	259.277	83.3472	259.277	82.8422	259.277	83.1019	259.277	82.8074	259.277	82.8962	259.277	82.859	259.277	82.7347	259.277	82.9621	259.277	82.6244	259.277	83.0738	259.277	82.5752	259.277	83.1582	259.277	82.5925	259.277	83.1962	259.277	82.6694	259.277	83.1842	259.277	82.7857	259.277	83.1274	259.277	82.915	259.277	83.0342
268.066	84.7446	268.066	84.627	268.066	84.7617	268.066	84.4133	268.066	84.6757	268.066	84.1117	268.066	84.4865	268.066	83.7359	268.066	84.1979	268.066	83.3078	268.066	83.8229	268.066	82.8615	268.066	83.3885	268.066	82.4451	268.066	82.9386	268.066	82.1177	268.066	82.5289	268.066	81.934	268.066	82.2117	268.066	81.9208	268.066	82.0163	268.066	82.0609	268.066	81.9425	268.066	82.3004	268.066	81.9701	268.066	82.5717	268.066	82.0749	268.066	82.8159	268.066	82.2362	268.066	82.9931	268.066	82.4338	268.066	83.0825	268.066	82.6443	268.066	83.08	268.066	82.8402	268.066	82.9935
276.855	84.931	276.855	84.9046	276.855	84.8786	276.855	84.791	276.855	84.7545	276.855	84.5853	276.855	84.5599	276.855	84.2883	276.855	84.2898	276.855	83.9059	276.855	83.9382	276.855	83.4492	276.855	83.509	276.855	82.9389	276.855	83.0265	276.855	82.412	276.855	82.5398	276.855	81.9284	276.855	82.1154	276.855	81.5641	276.855	81.8144	276.855	81.3831	276.855	81.6658	276.855	81.4001	276.855	81.656	276.855	81.5662	276.855	81.7416	276.855	81.796	276.855	81.8725	276.855	82.0104	276.855	82.0082	276.855	82.1621	276.855	82.1237	276.855	82.2383	276.855	82.2063	276.855	82.2481
287.109	84.9266	287.109	84.8515	287.109	84.9003	287.109	84.6754	287.109	84.7808	287.109	84.4081	287.109	84.5826	287.109	84.0675	287.109	84.3213	287.109	83.6775	287.109	84.0082	287.109	83.2642	287.109	83.6486	287.109	82.8516	287.109	83.2469	287.109	82.4611	287.109	82.815	287.109	82.1155	287.109	82.3791	287.109	81.8436	287.109	81.9797	287.109	81.6793	287.109	81.6649	287.109	81.6465	287.109	81.4771	287.109	81.7395	287.109	81.4368	287.109	81.917	287.109	81.5328	287.109	82.1159	287.109	81.7245	287.109	82.273	287.109	81.9548	287.109	82.3426	287.109	82.1645	287.109	82.3042
297.363	84.3409	297.363	84.252	297.363	84.3326	297.363	84.0805	297.363	84.2167	297.363	83.8381	297.363	83.9956	297.363	83.5322	297.363	83.6879	297.363	83.1717	297.363	83.3238	297.363	82.7779	297.363	82.9336	297.363	82.3918	297.363	82.541	297.363	82.068	297.363	82.1669	297.363	81.8529	297.363	81.84	297.363	81.7617	297.363	81.5946	297.363	81.7778	297.363	81.456	297.363	81.8718	297.363	81.4286	297.363	82.0146	297.363	81.5007	297.363	82.1759	297.363	81.6531	297.363	82.3221	297.363	81.8582	297.363	82.4211	297.363	82.0775	297.363	82.4501	297.363	82.2686	297.363	82.3986
307.617	84.4585	307.617	84.4345	307.617	84.3888	307.617	84.3064	307.617	84.2309	307.617	84.0657	307.617	83.9838	307.617	83.7117	307.617	83.6487	307.617	83.255	307.617	83.2426	307.617	82.7193	307.617	82.807	307.617	82.147	307.617	82.3964	307.617	81.6046	307.617	82.0522	307.617	81.1748	307.617	81.7856	307.617	80.9233	307.617	81.5899	307.617	80.8619	307.617	81.4642	307.617	80.9532	307.617	81.4201	307.617	81.146	307.617	81.4661	307.617	81.3969	307.617	81.5912	307.617	81.6629	307.617	81.7628	307.617	81.8963	307.617	81.9356	307.617	82.0537	307.617	82.0637	307.617	82.1099
319.336	84.895	319.336	84.848	319.336	84.818	319.336	84.6851	319.336	84.6092	319.336	84.4126	319.336	84.2633	319.336	84.0342	319.336	83.7805	319.336	83.5523	319.336	83.1736	319.336	82.9746	319.336	82.4796	319.336	82.3284	319.336	81.7735	319.336	81.679	319.336	81.1687	319.336	81.138	319.336	80.7798	319.336	80.8306	319.336	80.6576	319.336	80.814	319.336	80.7621	319.336	81.0255	319.336	81.0068	319.336	81.3375	319.336	81.3146	319.336	81.649	319.336	81.6343	319.336	81.9175	319.336	81.929	319.336	82.1333	319.336	82.1651	319.336	82.2854	319.336	82.3121	319.336	82.3515
329.59	85.1704	329.59	85.1128	329.59	85.1172	329.59	84.9413	329.59	84.9532	329.59	84.6544	329.59	84.6729	329.59	84.2578	329.59	84.268	329.59	83.7658	329.59	83.733	329.59	83.1998	329.59	83.0749	329.59	82.5847	329.59	82.3266	329.59	81.9511	329.59	81.5621	329.59	81.3501	329.59	80.9021	329.59	80.8692	329.59	80.4818	329.59	80.6183	329.59	80.3739	329.59	80.6566	329.59	80.5368	329.59	80.9267	329.59	80.8529	329.59	81.2916	329.59	81.2077	329.59	81.6274	329.59	81.5281	329.59	81.8688	329.59	81.779	329.59	81.9986	329.59	81.9458	329.59	82.0214
341.309	84.811	341.309	84.7668	341.309	84.7326	341.309	84.5992	341.309	84.5347	341.309	84.3085	341.309	84.2248	341.309	83.8968	341.309	83.8126	341.309	83.3748	341.309	83.3086	341.309	82.7727	341.309	82.7262	341.309	82.1468	341.309	82.0924	341.309	81.573	341.309	81.4616	341.309	81.1243	341.309	80.9182	341.309	80.8428	341.309	80.5535	341.309	80.7345	341.309	80.4229	341.309	80.7827	341.309	80.5185	341.309	80.9578	341.309	80.7781	341.309	81.215	341.309	81.1155	341.309	81.4945	341.309	81.4485	341.309	81.7359	341.309	81.7173	341.309	81.8949	341.309	81.8883	341.309	81.9482
353.027	84.8274	353.027	84.7289	353.027	84.8077	353.027	84.5207	353.027	84.6656	353.027	84.2117	353.027	84.4017	353.027	83.8066	353.027	84.0194	353.027	83.3047	353.027	83.5215	353.027	82.7058	353.027	82.9111	353.027	82.0235	353.027	82.2029	353.027	81.3057	353.027	81.4435	353.027	80.6525	353.027	80.7314	353.027	80.21	353.027	80.2039	353.027	80.1016	353.027	79.9688	353.027	80.3234	353.027	80.0317	353.027	80.7345	353.027	80.3058	353.027	81.1643	353.027	80.6804	353.027	81.5044	353.027	81.0652	353.027	81.7177	353.027	81.3979	353.027	81.8063	353.027	81.6416	353.027	81.7794
366.211	84.7358	366.211	84.6762	366.211	84.681	366.211	84.4952	366.211	84.521	366.211	84.1928	366.211	84.2627	366.211	83.7758	366.211	83.9106	366.211	83.2555	366.211	83.4706	366.211	82.6456	366.211	82.9511	366.211	81.9676	366.211	82.3607	366.211	81.2607	366.211	81.708	366.211	80.589	366.211	81.015	366.211	80.04	366.211	80.3436	366.211	79.7104	366.211	79.8157	366.211	79.6689	366.211	79.5769	366.211	79.9031	366.211	79.6892	366.211	80.3063	366.211	80.0617	366.211	80.7357	366.211	80.5226	366.211	81.081	366.211	80.9297	366.211	81.2849	366.211	81.2074	366.211	81.328
379.395	84.9566	379.395	84.9878	379.395	84.8244	379.395	84.9118	379.395	84.5996	379.395	84.7218	379.395	84.2943	379.395	84.4081	379.395	83.9191	379.395	83.9624	379.395	83.4795	379.395	83.3865	379.395	82.978	379.395	82.7044	379.395	82.4301	379.395	81.9742	379.395	81.8794	379.395	81.2892	379.395	81.395	379.395	80.7542	379.395	81.041	379.395	80.4416	379.395	80.8424	379.395	80.3639	379.395	80.7874	379.395	80.4878	379.395	80.8575	379.395	80.7573	379.395	81.0361	379.395	81.1007	379.395	81.2875	379.395	81.4342	379.395	81.5449	379.395	81.6794	379.395	81.7303	379.395	81.7834
392.578	83.9474	392.578	83.8229	392.578	83.9678	392.578	83.6116	392.578	83.8679	392.578	83.3264	392.578	83.6393	392.578	82.9775	392.578	83.2836	392.578	82.5793	392.578	82.8101	392.578	82.1551	392.578	82.2356	392.578	81.7301	392.578	81.5942	392.578	81.3271	392.578	80.9585	392.578	80.979	392.578	80.453	392.578	80.753	392.578	80.2214	392.578	80.7407	392.578	80.3365	392.578	80.9967	392.578	80.7451	392.578	81.4843	392.578	81.3232	392.578	82.0947	392.578	81.9568	392.578	82.7021	392.578	82.5628	392.578	83.1984	392.578	83.0744	392.578	83.5062	392.578	83.4317	392.578	83.585
405.762	84.8671	405.762	84.7494	405.762	84.8288	405.762	84.4861	405.762	84.63	405.762	84.0878	405.762	84.2745	405.762	83.5601	405.762	83.7738	405.762	82.9012	405.762	83.1413	405.762	82.1094	405.762	82.3876	405.762	81.2063	405.762	81.5272	405.762	80.274	405.762	80.6011	405.762	79.4889	405.762	79.7094	405.762	79.0874	405.762	79.0326	405.762	79.2006	405.762	78.7864	405.762	79.7147	405.762	79.0657	405.762	80.3821	405.762	79.7326	405.762	81.0108	405.762	80.5288	405.762	81.5193	405.762	81.2471	405.762	81.8925	405.762	81.7809	405.762	82.1268	405.762	82.0978	405.762	82.2047
420.41	85.494	420.41	85.412	420.41	85.4194	420.41	85.1651	420.41	85.2034	420.41	84.759	420.41	84.8604	420.41	84.2132	420.41	84.3991	420.41	83.5528	420.41	83.821	420.41	82.7945	420.41	83.1201	420.41	81.938	420.41	82.2906	420.41	80.9785	420.41	81.3463	420.41	79.9487	420.41	80.3501	420.41	78.9896	420.41	79.4289	420.41	78.3821	420.41	78.7449	420.41	78.3753	420.41	78.434	420.41	78.9041	420.41	78.5582	420.41	79.667	420.41	79.0653	420.41	80.404	420.41	79.7816	420.41	80.9694	420.41	80.492	420.41	81.2847	420.41	81.0316	420.41	81.3077
435.059	84.8804	435.059	84.8072	435.059	84.8056	435.059	84.6068	435.059	84.5771	435.059	84.2963	435.059	84.2137	435.059	83.8732	435.059	83.7511	435.059	83.3189	435.059	83.2188	435.059	82.6186	435.059	82.6166	435.059	81.7865	435.059	81.9164	435.059	80.8741	435.059	81.0974	435.059	79.9649	435.059	80.1978	435.059	79.1754	435.059	79.3551	435.059	78.6717	435.059	78.7891	435.059	78.6228	435.059	78.6786	435.059	79.0496	435.059	79.0146	435.059	79.7646	435.059	79.6217	435.059	80.5149	435.059	80.3008	435.059	81.1155	435.059	80.9057	435.059	81.469	435.059	81.3406	435.059	81.5413
451.172	85.655	451.172	85.5503	451.172	85.6101	451.172	85.2949	451.172	85.4112	451.172	84.8851	451.172	85.0543	451.172	84.3245	451.172	84.542	451.172	83.6268	451.172	83.8818	451.172	82.8049	451.172	83.0738	451.172	81.8559	451.172	82.1102	451.172	80.7737	451.172	81.0031	451.172	79.6073	451.172	79.8358	451.172	78.5373	451.172	78.7998	451.172	77.8625	451.172	78.1472	451.172	77.8022	451.172	78.0432	451.172	78.305	451.172	78.458	451.172	79.1181	451.172	79.1927	451.172	79.9611	451.172	79.9838	451.172	80.6324	451.172	80.6264	451.172	81.0389	451.172	81.0272	451.172	81.1667
465.82	85.2924	465.82	85.1729	465.82	85.2494	465.82	84.8951	465.82	85.0448	465.82	84.4746	465.82	84.681	465.82	83.9335	465.82	84.1663	465.82	83.2839	465.82	83.5164	465.82	82.5196	465.82	82.7449	465.82	81.63	465.82	81.851	465.82	80.63	465.82	80.8271	465.82	79.5903	465.82	79.6957	465.82	78.6566	465.82	78.5692	465.82	78.0224	465.82	77.7027	465.82	77.8184	465.82	77.4162	465.82	78.0225	465.82	77.802	465.82	78.5293	465.82	78.5971	465.82	79.2202	465.82	79.4579	465.82	79.9341	465.82	80.1667	465.82	80.4821	465.82	80.6109	465.82	80.7242
483.398	85.5042	483.398	85.4216	483.398	85.4558	483.398	85.2155	483.398	85.2787	483.398	84.8981	483.398	84.9809	483.398	84.4739	483.398	84.5677	483.398	83.9313	483.398	84.0372	483.398	83.2462	483.398	83.3752	483.398	82.3981	483.398	82.5553	483.398	81.3895	483.398	81.5547	483.398	80.2743	483.398	80.3973	483.398	79.1937	483.398	79.2139	483.398	78.3821	483.398	78.254	483.398	78.0608	483.398	77.7533	483.398	78.2619	483.398	77.7647	483.398	78.8148	483.398	78.1939	483.398	79.4904	483.398	78.891	483.398	80.0932	483.398	79.649	483.398	80.476	483.398	80.2484	483.398	80.5401
499.512	84.9108	499.512	84.7885	499.512	84.876	499.512	84.5246	499.512	84.6737	499.512	84.1319	499.512	84.31	499.512	83.6213	499.512	83.8069	499.512	83.0042	499.512	83.1851	499.512	82.2908	499.512	82.441	499.512	81.4844	499.512	81.5505	499.512	80.579	499.512	80.5095	499.512	79.5879	499.512	79.3982	499.512	78.6212	499.512	78.4271	499.512	77.966	499.512	77.8804	499.512	77.9474	499.512	77.9085	499.512	78.5503	499.512	78.4072	499.512	79.4283	499.512	79.1534	499.512	80.2692	499.512	79.9463	499.512	80.9127	499.512	80.6391	499.512	81.2862	499.512	81.1315	499.512	81.3586
517.09	85.3832	517.09	85.2545	517.09	85.3281	517.09	84.9049	517.09	85.1116	517.09	84.3165	517.09	84.7297	517.09	83.5106	517.09	84.175	517.09	82.537	517.09	83.4647	517.09	81.4479	517.09	82.6238	517.09	80.2834	517.09	81.6347	517.09	79.0881	517.09	80.4177	517.09	77.9573	517.09	78.895	517.09	77.086	517.09	77.1368	517.09	76.7421	517.09	75.6059	517.09	77.0698	517.09	75.1837	517.09	77.9194	517.09	76.1331	517.09	78.9838	517.09	77.6797	517.09	80.0003	517.09	79.1524	517.09	80.796	517.09	80.2901	517.09	81.2642	517.09	81.025	517.09	81.348
536.133	85.6922	536.133	85.5582	536.133	85.6336	536.133	85.2444	536.133	85.3858	536.133	84.7708	536.133	84.9679	536.133	84.1489	536.133	84.4071	536.133	83.3651	536.133	83.7243	536.133	82.3719	536.133	82.9191	536.133	81.0858	536.133	81.9604	536.133	79.382	536.133	80.7896	536.133	77.0931	536.133	79.3281	536.133	74.0873	536.133	77.4899	536.133	70.9357	536.133	75.2349	536.133	70.4218	536.133	72.8673	536.133	72.6827	536.133	71.782	536.133	75.0068	536.133	73.0751	536.133	76.7856	536.133	75.1983	536.133	78.0228	536.133	76.9776	536.133	78.6928	536.133	78.1717	536.133	78.7477
555.176	86.6697	555.176	86.6662	555.176	86.5682	555.176	86.5418	555.176	86.3711	555.176	86.2823	555.176	86.0751	555.176	85.8746	555.176	85.6709	555.176	85.3027	555.176	85.1527	555.176	84.5474	555.176	84.5176	555.176	83.5943	555.176	83.7523	555.176	82.4377	555.176	82.8299	555.176	81.0726	555.176	81.7256	555.176	79.4748	555.176	80.4333	555.176	77.6051	555.176	78.9688	555.176	75.5188	555.176	77.3616	555.176	73.7025	555.176	75.7078	555.176	73.1414	555.176	74.394	555.176	73.8505	555.176	74.042	555.176	74.7895	555.176	74.5645	555.176	75.3866	555.176	75.213	555.176	75.5264
574.219	86.1754	574.219	86.1604	574.219	86.1029	574.219	86.0386	574.219	85.9357	574.219	85.7837	574.219	85.6545	574.219	85.4036	574.219	85.2443	574.219	84.9405	574.219	84.6956	574.219	84.4094	574.219	84.0085	574.219	83.742	574.219	83.2018	574.219	82.8155	574.219	82.3065	574.219	81.5399	574.219	81.3323	574.219	79.9347	574.219	80.2602	574.219	78.1792	574.219	79.1343	574.219	76.6528	574.219	78.1941	574.219	75.8666	574.219	77.7566	574.219	76.0794	574.219	77.8231	574.219	76.9767	574.219	78.133	574.219	77.9954	574.219	78.5201	574.219	78.7271	574.219	78.874	574.219	79.0051
594.727	85.8638	594.727	85.7721	594.727	85.7458	594.727	85.4994	594.727	85.4569	594.727	85.1094	594.727	85.0721	594.727	84.6345	594.727	84.6428	594.727	84.0635	594.727	84.1632	594.727	83.4016	594.727	83.588	594.727	82.6998	594.727	82.8745	594.727	81.9826	594.727	82.004	594.727	81.1859	594.727	80.9822	594.727	80.2449	594.727	79.8462	594.727	79.2521	594.727	78.6882	594.727	78.47	594.727	77.7059	594.727	78.1331	594.727	77.2469	594.727	78.3348	594.727	77.5825	594.727	79.0201	594.727	78.4804	594.727	79.8708	594.727	79.4514	594.727	80.4624	594.727	80.1961	594.727	80.5686
615.234	85.9188	615.234	85.8074	615.234	85.8462	615.234	85.5165	615.234	85.5973	615.234	85.0717	615.234	85.179	615.234	84.5126	615.234	84.5933	615.234	83.861	615.234	83.8469	615.234	83.0934	615.234	82.9614	615.234	82.164	615.234	81.9653	615.234	81.0487	615.234	80.8639	615.234	79.7422	615.234	79.6225	615.234	78.2373	615.234	78.2353	615.234	76.6675	615.234	76.9154	615.234	75.6997	615.234	76.2025	615.234	76.1204	615.234	76.3908	615.234	77.3359	615.234	77.0841	615.234	78.4247	615.234	77.9051	615.234	79.1707	615.234	78.7264	615.234	79.6121	615.234	79.3902	615.234	79.707
637.207	86.7914	637.207	86.6755	637.207	86.803	637.207	86.4549	637.207	86.6606	637.207	86.1013	637.207	86.3091	637.207	85.6048	637.207	85.7588	637.207	84.9812	637.207	85.0911	637.207	84.2352	637.207	84.376	637.207	83.3298	637.207	83.5894	637.207	82.2058	637.207	82.6277	637.207	80.8237	637.207	81.3771	637.207	79.1833	637.207	79.7763	637.207	77.3613	637.207	77.9259	637.207	75.684	637.207	76.3336	637.207	74.9211	637.207	75.8942	637.207	75.599	637.207	76.7067	637.207	77.0732	637.207	77.8776	637.207	78.4587	637.207	78.8267	637.207	79.3357	637.207	79.425	637.207	79.6286
659.18	86.3391	659.18	86.2937	659.18	86.2202	659.18	86.0611	659.18	85.9758	659.18	85.6468	659.18	85.6446	659.18	85.0897	659.18	85.2303	659.18	84.4305	659.18	84.6807	659.18	83.6675	659.18	83.9326	659.18	82.7532	659.18	82.9856	659.18	81.6289	659.18	81.913	659.18	80.2583	659.18	80.7854	659.18	78.6483	659.18	79.5681	659.18	76.9069	659.18	78.1028	659.18	75.4616	659.18	76.3423	659.18	75.1398	659.18	75.0426	659.18	76.1045	659.18	75.456	659.18	77.492	659.18	76.8305	659.18	78.6047	659.18	78.0102	659.18	79.177	659.18	78.7899	659.18	79.2013
682.617	86.4439	682.617	86.3021	682.617	86.4267	682.617	86.0221	682.617	86.2305	682.617	85.6163	682.617	85.8527	682.617	85.0873	682.617	85.327	682.617	84.437	682.617	84.7123	682.617	83.6687	682.617	84.0317	682.617	82.7691	682.617	83.2264	682.617	81.6903	682.617	82.1753	682.617	80.36	682.617	80.7592	682.617	78.7142	682.617	78.9584	682.617	76.7753	682.617	77.0022	682.617	74.9244	682.617	75.3801	682.617	74.2803	682.617	74.4741	682.617	75.3441	682.617	74.5759	682.617	76.8844	682.617	75.8629	682.617	78.0744	682.617	77.542	682.617	78.8105	682.617	78.6947	682.617	79.0712
707.52	86.1852	707.52	86.0829	707.52	86.1353	707.52	85.8331	707.52	85.969	707.52	85.4571	707.52	85.7099	707.52	84.9625	707.52	85.3166	707.52	84.353	707.52	84.7378	707.52	83.6411	707.52	84.0068	707.52	82.8456	707.52	83.2236	707.52	81.9642	707.52	82.3991	707.52	80.9148	707.52	81.3871	707.52	79.5162	707.52	80.0369	707.52	77.5892	707.52	78.365	707.52	75.2921	707.52	76.6103	707.52	73.7376	707.52	75.3089	707.52	74.0052	707.52	75.1911	707.52	75.3029	707.52	76.1896	707.52	76.7396	707.52	77.4077	707.52	77.8682	707.52	78.2252	707.52	78.3991
732.422	86.2084	732.422	86.1064	732.422	86.1314	732.422	85.8149	732.422	85.9002	732.422	85.3691	732.422	85.5234	732.422	84.8258	732.422	85.0063	732.422	84.1957	732.422	84.3666	732.422	83.4337	732.422	83.6285	732.422	82.5103	732.422	82.8203	732.422	81.4514	732.422	81.9632	732.422	80.2744	732.422	81.0248	732.422	78.8931	732.422	79.8741	732.422	77.1378	732.422	78.3365	732.422	75.0699	732.422	76.4462	732.422	73.7401	732.422	74.9288	732.422	74.4034	732.422	74.8314	732.422	76.0577	732.422	75.8118	732.422	77.5643	732.422	77.0416	732.422	78.5136	732.422	78.119	732.422	78.6972
757.324	86.5011	757.324	86.318	757.324	86.4761	757.324	85.9585	757.324	86.1833	757.324	85.4231	757.324	85.6457	757.324	84.7602	757.324	85.0125	757.324	84.0778	757.324	84.4031	757.324	83.4448	757.324	83.7623	757.324	82.8176	757.324	82.9902	757.324	82.084	757.324	82.1036	757.324	81.1056	757.324	81.113	757.324	79.7083	757.324	79.8375	757.324	77.6977	757.324	78.0447	757.324	75.0248	757.324	75.9225	757.324	72.5102	757.324	74.552	757.324	72.7105	757.324	74.7924	757.324	75.1155	757.324	75.9631	757.324	77.2444	757.324	77.2919	757.324	78.4716	757.324	78.3343	757.324	78.7935
785.156	86.3207	785.156	86.2011	785.156	86.2274	785.156	85.8871	785.156	85.9703	785.156	85.4215	785.156	85.5689	785.156	84.782	785.156	84.9758	785.156	83.9484	785.156	84.1938	785.156	83.0332	785.156	83.348	785.156	82.2115	785.156	82.5577	785.156	81.4847	785.156	81.7845	785.156	80.6574	785.156	80.8902	785.156	79.5195	785.156	79.7875	785.156	77.9242	785.156	78.4518	785.156	75.902	785.156	76.8072	785.156	74.1224	785.156	74.9206	785.156	74.0147	785.156	74.0593	785.156	75.442	785.156	75.4248	785.156	76.9001	785.156	77.0936	785.156	77.7768	785.156	77.9461	785.156	78.1072
811.523	86.1236	811.523	86.0232	811.523	86.0213	811.523	85.6932	811.523	85.7234	811.523	85.1324	811.523	85.2268	811.523	84.4181	811.523	84.5678	811.523	83.6438	811.523	83.8553	811.523	82.803	811.523	83.1844	811.523	81.8798	811.523	82.5009	811.523	80.9676	811.523	81.6693	811.523	80.097	811.523	80.6527	811.523	79.05	811.523	79.4572	811.523	77.5886	811.523	77.9754	811.523	75.8606	811.523	76.2059	811.523	74.6374	811.523	74.7881	811.523	74.7597	811.523	74.7161	811.523	76.0789	811.523	75.8748	811.523	77.6591	811.523	77.3774	811.523	78.7421	811.523	78.5482	811.523	79.0452
840.82	86.3918	840.82	86.2258	840.82	86.2692	840.82	85.8295	840.82	85.8512	840.82	85.2067	840.82	85.2209	840.82	84.3217	840.82	84.4576	840.82	83.2363	840.82	83.5742	840.82	82.1632	840.82	82.5814	840.82	81.266	840.82	81.5548	840.82	80.4424	840.82	80.6017	840.82	79.5127	840.82	79.7243	840.82	78.4672	840.82	78.6972	840.82	77.209	840.82	77.1405	840.82	75.3925	840.82	74.9495	840.82	73.6233	840.82	73.4874	840.82	74.125	840.82	74.4837	840.82	75.8778	840.82	76.2228	840.82	77.4349	840.82	77.6722	840.82	78.6403	840.82	78.7602	840.82	79.1619
870.117	85.6655	870.117	85.6816	870.117	85.5068	870.117	85.4133	870.117	85.2946	870.117	84.8852	870.117	84.9296	870.117	84.2446	870.117	84.278	870.117	83.5344	870.117	83.3845	870.117	82.6921	870.117	82.4664	870.117	81.7509	870.117	81.6595	870.117	80.776	870.117	80.8194	870.117	79.6158	870.117	79.7271	870.117	78.0182	870.117	78.3578	870.117	75.8397	870.117	76.7468	870.117	73.1698	870.117	74.64	870.117	71.1757	870.117	71.9878	870.117	72.4669	870.117	71.9238	870.117	75.5503	870.117	75.1952	870.117	78.0577	870.117	77.9156	870.117	79.5522	870.117	79.4975	870.117	80.031
900.879	85.7573	900.879	85.5656	900.879	85.6758	900.879	85.2612	900.879	85.2539	900.879	84.7497	900.879	84.6477	900.879	83.8614	900.879	83.9465	900.879	82.7854	900.879	83.0747	900.879	81.8556	900.879	82.0441	900.879	80.9734	900.879	81.0048	900.879	79.9314	900.879	80.0556	900.879	79.0221	900.879	79.1865	900.879	78.4202	900.879	78.2583	900.879	77.4659	900.879	76.9644	900.879	75.5359	900.879	75.0387	900.879	72.9044	900.879	72.572	900.879	72.1338	900.879	71.1935	900.879	74.0778	900.879	73.2188	900.879	76.248	900.879	75.9593	900.879	77.7489	900.879	77.6988	900.879	78.2876
933.105	85.1182	933.105	84.9669	933.105	84.9316	933.105	84.4442	933.105	84.5016	933.105	83.6744	933.105	83.8918	933.105	82.8588	933.105	83.0677	933.105	81.9765	933.105	81.98	933.105	80.8498	933.105	80.8056	933.105	79.6075	933.105	79.8427	933.105	78.5754	933.105	79.0082	933.105	77.733	933.105	78.0155	933.105	76.7959	933.105	77.0022	933.105	75.52	933.105	76.1041	933.105	73.7097	933.105	74.6712	933.105	71.4185	933.105	72.1038	933.105	70.9587	933.105	70.324	933.105	73.3263	933.105	72.0552	933.105	75.4562	933.105	74.4828	933.105	76.561	933.105	76.1408	933.105	76.8089
965.332	84.8515	965.332	84.7599	965.332	84.7293	965.332	84.445	965.332	84.3946	965.332	83.8217	965.332	83.8127	965.332	82.7768	965.332	82.9429	965.332	81.4938	965.332	81.8341	965.332	80.4202	965.332	80.6076	965.332	79.583	965.332	79.4084	965.332	78.5955	965.332	78.4216	965.332	77.4662	965.332	77.6637	965.332	76.387	965.332	76.7408	965.332	74.9431	965.332	75.1956	965.332	72.5402	965.332	72.7992	965.332	69.6595	965.332	69.2799	965.332	69.5187	965.332	67.824	965.332	73.2692	965.332	72.6581	965.332	76.5167	965.332	75.9416	965.332	77.92	965.332	77.3496	965.332	77.9587
1,000.49	84.81	1,000.49	84.6362	1,000.49	84.7091	1,000.49	84.0713	1,000.49	84.3547	1,000.49	83.2179	1,000.49	83.6145	1,000.49	82.3155	1,000.49	82.5359	1,000.49	81.3762	1,000.49	81.4109	1,000.49	80.2103	1,000.49	80.3503	1,000.49	78.8471	1,000.49	79.2164	1,000.49	77.6644	1,000.49	78.1216	1,000.49	76.903	1,000.49	77.338	1,000.49	76.1975	1,000.49	76.6048	1,000.49	74.9383	1,000.49	75.3441	1,000.49	72.7811	1,000.49	73.2066	1,000.49	69.5767	1,000.49	70.2733	1,000.49	67.7286	1,000.49	67.4364	1,000.49	70.8442	1,000.49	68.1798	1,000.49	73.3796	1,000.49	71.7623	1,000.49	74.6021	1,000.49	74.2252	1,000.49	75.0049
1,035.64	84.8918	1,035.64	84.6737	1,035.64	84.9115	1,035.64	84.2599	1,035.64	84.6154	1,035.64	83.5398	1,035.64	83.9658	1,035.64	82.4289	1,035.64	83.0267	1,035.64	80.9246	1,035.64	81.8259	1,035.64	79.2559	1,035.64	80.4279	1,035.64	77.9691	1,035.64	79.1536	1,035.64	77.2789	1,035.64	78.3179	1,035.64	76.5475	1,035.64	77.668	1,035.64	75.2991	1,035.64	76.7409	1,035.64	73.9154	1,035.64	75.4946	1,035.64	72.3434	1,035.64	73.83	1,035.64	69.3748	1,035.64	70.8271	1,035.64	67.0449	1,035.64	66.1025	1,035.64	71.018	1,035.64	68.4635	1,035.64	74.4101	1,035.64	72.4704	1,035.64	75.8056	1,035.64	74.479	1,035.64	75.6194
1,072.27	84.7435	1,072.27	84.5502	1,072.27	84.535	1,072.27	83.9595	1,072.27	84.091	1,072.27	83.0586	1,072.27	83.5025	1,072.27	81.9501	1,072.27	82.6923	1,072.27	80.7667	1,072.27	81.6963	1,072.27	79.5306	1,072.27	80.5714	1,072.27	78.2217	1,072.27	79.3163	1,072.27	77.0087	1,072.27	78.292	1,072.27	76.1379	1,072.27	77.6345	1,072.27	75.5607	1,072.27	76.8029	1,072.27	74.5569	1,072.27	75.5625	1,072.27	71.8001	1,072.27	73.9224	1,072.27	65.397	1,072.27	71.2693	1,072.27	64.4791	1,072.27	67.3404	1,072.27	70.6154	1,072.27	67.9083	1,072.27	73.4356	1,072.27	72.6681	1,072.27	74.8157	1,072.27	75.2161	1,072.27	75.5822
1,108.89	84.7621	1,108.89	84.4814	1,108.89	84.8281	1,108.89	83.9804	1,108.89	84.4421	1,108.89	83.0763	1,108.89	83.6	1,108.89	81.7332	1,108.89	82.6115	1,108.89	79.9966	1,108.89	81.5622	1,108.89	78.0962	1,108.89	80.284	1,108.89	76.6069	1,108.89	78.9299	1,108.89	75.7312	1,108.89	77.8167	1,108.89	75.1916	1,108.89	77.0472	1,108.89	74.919	1,108.89	76.8417	1,108.89	74.3405	1,108.89	76.5552	1,108.89	72.5762	1,108.89	74.6677	1,108.89	69.0188	1,108.89	70.8191	1,108.89	61.9352	1,108.89	66.6814	1,108.89	67.4152	1,108.89	67.956	1,108.89	73.0744	1,108.89	72.6236	1,108.89	74.8912	1,108.89	74.7637	1,108.89	75.1483
1,148.44	84.3922	1,148.44	84.1801	1,148.44	84.2794	1,148.44	83.7046	1,148.44	84.0834	1,148.44	83.0509	1,148.44	83.6039	1,148.44	81.9333	1,148.44	82.5001	1,148.44	80.4888	1,148.44	81.0733	1,148.44	78.9637	1,148.44	79.7765	1,148.44	76.9541	1,148.44	78.4758	1,148.44	74.9688	1,148.44	77.1513	1,148.44	74.4417	1,148.44	76.5249	1,148.44	74.5066	1,148.44	76.5265	1,148.44	74.3448	1,148.44	76.321	1,148.44	73.6146	1,148.44	75.6767	1,148.44	70.8824	1,148.44	73.9344	1,148.44	66.0208	1,148.44	69.9965	1,148.44	65.8667	1,148.44	68.0784	1,148.44	69.946	1,148.44	70.9497	1,148.44	73.0289	1,148.44	72.2348	1,148.44	73.3701
1,189.45	83.3559	1,189.45	83.2479	1,189.45	83.3368	1,189.45	82.6625	1,189.45	83.073	1,189.45	81.8181	1,189.45	82.2772	1,189.45	80.6934	1,189.45	81.4697	1,189.45	78.9237	1,189.45	80.7004	1,189.45	77.0378	1,189.45	79.4321	1,189.45	75.5037	1,189.45	78.0179	1,189.45	74.1626	1,189.45	76.9122	1,189.45	73.6302	1,189.45	76.1414	1,189.45	73.6003	1,189.45	75.9285	1,189.45	72.9137	1,189.45	75.6312	1,189.45	71.7855	1,189.45	74.5669	1,189.45	69.0304	1,189.45	72.5485	1,189.45	66.4081	1,189.45	69.4529	1,189.45	70.9442	1,189.45	69.7991	1,189.45	74.3803	1,189.45	73.1995	1,189.45	76.6004	1,189.45	75.7306	1,189.45	77.0776
1,230.47	85.2232	1,230.47	84.9163	1,230.47	85.1109	1,230.47	84.2628	1,230.47	84.6411	1,230.47	83.4036	1,230.47	83.9207	1,230.47	82.3897	1,230.47	82.9137	1,230.47	80.9188	1,230.47	81.6039	1,230.47	78.7881	1,230.47	80.1553	1,230.47	76.4309	1,230.47	78.5127	1,230.47	74.0104	1,230.47	76.5479	1,230.47	72.6426	1,230.47	74.967	1,230.47	73.0959	1,230.47	74.5912	1,230.47	73.0456	1,230.47	74.7562	1,230.47	71.8068	1,230.47	74.3421	1,230.47	69.3035	1,230.47	72.8107	1,230.47	62.469	1,230.47	69.3955	1,230.47	65.9496	1,230.47	66.612	1,230.47	72.8029	1,230.47	71.9139	1,230.47	75.6718	1,230.47	75.1646	1,230.47	76.2905
1,274.41	84.088	1,274.41	83.9505	1,274.41	83.9476	1,274.41	83.5832	1,274.41	83.7818	1,274.41	83.0282	1,274.41	83.3095	1,274.41	81.9034	1,274.41	82.4798	1,274.41	80.3184	1,274.41	81.4603	1,274.41	78.5343	1,274.41	80.1437	1,274.41	76.5518	1,274.41	78.5235	1,274.41	74.4056	1,274.41	76.3811	1,274.41	72.3312	1,274.41	74.5823	1,274.41	71.2444	1,274.41	74.2848	1,274.41	71.8078	1,274.41	73.6918	1,274.41	71.7005	1,274.41	72.5968	1,274.41	68.9161	1,274.41	70.7899	1,274.41	65.0272	1,274.41	67.268	1,274.41	68.7917	1,274.41	66.3498	1,274.41	72.2483	1,274.41	70.2688	1,274.41	74.0591	1,274.41	73.439	1,274.41	74.5449
1,319.82	83.7089	1,319.82	83.6342	1,319.82	83.7197	1,319.82	83.1016	1,319.82	83.704	1,319.82	82.0703	1,319.82	83.3229	1,319.82	80.9003	1,319.82	82.5067	1,319.82	79.5184	1,319.82	81.5289	1,319.82	77.5243	1,319.82	80.1491	1,319.82	74.8433	1,319.82	78.2674	1,319.82	72.0071	1,319.82	76.6717	1,319.82	68.8642	1,319.82	75.4417	1,319.82	67.1859	1,319.82	74.0462	1,319.82	68.7273	1,319.82	73.1488	1,319.82	68.4966	1,319.82	72.8666	1,319.82	66.0657	1,319.82	71.6182	1,319.82	59.7985	1,319.82	68.158	1,319.82	67.6537	1,319.82	66.1309	1,319.82	73.2635	1,319.82	71.1851	1,319.82	75.4483	1,319.82	74.825	1,319.82	75.981
1,366.7	83.8658	1,366.7	83.6865	1,366.7	83.7434	1,366.7	83.1663	1,366.7	83.3698	1,366.7	82.1285	1,366.7	83.0135	1,366.7	80.7471	1,366.7	82.3731	1,366.7	79.3934	1,366.7	81.297	1,366.7	77.7748	1,366.7	80.3526	1,366.7	75.0979	1,366.7	79.1464	1,366.7	71.2818	1,366.7	77.4095	1,366.7	68.4783	1,366.7	75.5945	1,366.7	68.5788	1,366.7	73.774	1,366.7	69.1566	1,366.7	73.1572	1,366.7	69.9445	1,366.7	72.6177	1,366.7	67.1955	1,366.7	70.8845	1,366.7	55.1366	1,366.7	66.2895	1,366.7	67.2508	1,366.7	62.4169	1,366.7	72.3613	1,366.7	66.5461	1,366.7	74.7253	1,366.7	72.3459	1,366.7	75.2214
1,413.57	83.8986	1,413.57	83.063	1,413.57	83.9381	1,413.57	82.4335	1,413.57	83.5555	1,413.57	81.525	1,413.57	83.1774	1,413.57	79.8206	1,413.57	82.5755	1,413.57	78.2395	1,413.57	81.5495	1,413.57	76.4406	1,413.57	79.4022	1,413.57	73.5652	1,413.57	77.2938	1,413.57	69.292	1,413.57	76.2164	1,413.57	66.8723	1,413.57	74.8479	1,413.57	65.2326	1,413.57	72.9054	1,413.57	66.5401	1,413.57	71.806	1,413.57	68.1886	1,413.57	73.3285	1,413.57	66.735	1,413.57	72.4022	1,413.57	59.2777	1,413.57	70.9688	1,413.57	66.2042	1,413.57	68.1888	1,413.57	72.5817	1,413.57	70.9502	1,413.57	74.736	1,413.57	72.1296	1,413.57	73.7393
1,463.38	84.5354	1,463.38	83.661	1,463.38	84.516	1,463.38	82.7903	1,463.38	84.2971	1,463.38	81.2781	1,463.38	84.201	1,463.38	79.9733	1,463.38	83.2933	1,463.38	78.6946	1,463.38	82.5275	1,463.38	77.0191	1,463.38	81.5417	1,463.38	76.0668	1,463.38	80.1121	1,463.38	73.0053	1,463.38	78.5495	1,463.38	69.672	1,463.38	77.2667	1,463.38	69.277	1,463.38	76.0596	1,463.38	68.9813	1,463.38	73.5602	1,463.38	69.4977	1,463.38	73.687	1,463.38	67.7564	1,463.38	74.2807	1,463.38	65.7159	1,463.38	71.9433	1,463.38	57.1593	1,463.38	65.5637	1,463.38	69.2712	1,463.38	68.4047	1,463.38	71.9609	1,463.38	72.8007	1,463.38	73.1291
1,516.11	84.5018	1,516.11	83.81	1,516.11	84.2397	1,516.11	82.7117	1,516.11	84.0711	1,516.11	81.5154	1,516.11	83.9621	1,516.11	80.0325	1,516.11	83.1852	1,516.11	78.857	1,516.11	82.1644	1,516.11	77.2536	1,516.11	81.1937	1,516.11	74.7299	1,516.11	80.2058	1,516.11	72.568	1,516.11	78.7493	1,516.11	68.6655	1,516.11	77.1202	1,516.11	63.1963	1,516.11	75.4673	1,516.11	65.9728	1,516.11	73.7626	1,516.11	68.6558	1,516.11	73.2058	1,516.11	69.005	1,516.11	73.1139	1,516.11	66.2521	1,516.11	71.3256	1,516.11	64.64	1,516.11	68.6734	1,516.11	72.0503	1,516.11	71.5474	1,516.11	73.7138	1,516.11	75.5812	1,516.11	75.0724
1,568.85	85.4511	1,568.85	84.4586	1,568.85	85.3926	1,568.85	83.0277	1,568.85	85.2736	1,568.85	81.6646	1,568.85	84.5252	1,568.85	80.0082	1,568.85	83.3427	1,568.85	78.7475	1,568.85	82.6806	1,568.85	77.273	1,568.85	81.2484	1,568.85	74.8347	1,568.85	80.3805	1,568.85	71.8288	1,568.85	79.6033	1,568.85	68.0533	1,568.85	78.2841	1,568.85	62.1982	1,568.85	75.984	1,568.85	65.2993	1,568.85	73.6197	1,568.85	67.0218	1,568.85	74.5823	1,568.85	67.5379	1,568.85	72.4186	1,568.85	65.6083	1,568.85	69.4964	1,568.85	64.302	1,568.85	65.9219	1,568.85	72.0041	1,568.85	68.9774	1,568.85	74.6362	1,568.85	74.023	1,568.85	75.2833
1,624.51	85.2838	1,624.51	83.972	1,624.51	85.2914	1,624.51	82.3659	1,624.51	85.1343	1,624.51	81.1246	1,624.51	84.5124	1,624.51	79.9699	1,624.51	82.9279	1,624.51	78.6894	1,624.51	82.6315	1,624.51	76.3455	1,624.51	82.0224	1,624.51	72.7874	1,624.51	80.5427	1,624.51	67.8055	1,624.51	80.196	1,624.51	60.7605	1,624.51	79.142	1,624.51	63.6165	1,624.51	76.2966	1,624.51	58.0964	1,624.51	74.0639	1,624.51	66.5354	1,624.51	71.9886	1,624.51	66.6852	1,624.51	69.7389	1,624.51	62.5408	1,624.51	70.0039	1,624.51	69.6843	1,624.51	65.4897	1,624.51	73.3426	1,624.51	62.5476	1,624.51	75.2863	1,624.51	72.7118	1,624.51	74.943
1,681.64	84.3969	1,681.64	83.8473	1,681.64	85.2178	1,681.64	83.3778	1,681.64	84.6479	1,681.64	82.3848	1,681.64	84.5167	1,681.64	80.4618	1,681.64	84.7388	1,681.64	78.0817	1,681.64	83.2605	1,681.64	75.0544	1,681.64	81.4218	1,681.64	74.0195	1,681.64	80.3553	1,681.64	74.0915	1,681.64	78.6397	1,681.64	71.0973	1,681.64	78.3521	1,681.64	67.9265	1,681.64	77.0251	1,681.64	68.6437	1,681.64	74.7038	1,681.64	64.3115	1,681.64	71.9263	1,681.64	61.2935	1,681.64	72.9431	1,681.64	58.4013	1,681.64	72.7917	1,681.64	56.9494	1,681.64	73.3045	1,681.64	70.2969	1,681.64	67.3446	1,681.64	75.4239	1,681.64	68.241	1,681.64	74.3139
1,741.7	84.8842	1,741.7	84.2548	1,741.7	85.7581	1,741.7	83.2426	1,741.7	86.0243	1,741.7	81.7205	1,741.7	85.2315	1,741.7	80.0184	1,741.7	85.37	1,741.7	76.955	1,741.7	85.2426	1,741.7	73.6106	1,741.7	83.1627	1,741.7	73.8205	1,741.7	81.3857	1,741.7	73.107	1,741.7	79.5899	1,741.7	70.0142	1,741.7	78.4613	1,741.7	59.2845	1,741.7	76.7018	1,741.7	68.8664	1,741.7	73.3167	1,741.7	66.87	1,741.7	74.4105	1,741.7	65.4022	1,741.7	74.4781	1,741.7	63.9667	1,741.7	68.9417	1,741.7	70.896	1,741.7	51.2963	1,741.7	74.1106	1,741.7	63.0705	1,741.7	76.559	1,741.7	65.3071	1,741.7	72.7573
1,803.22	85.9071	1,803.22	84.745	1,803.22	85.9798	1,803.22	83.144	1,803.22	85.5533	1,803.22	82.9175	1,803.22	85.5143	1,803.22	80.4849	1,803.22	85.9553	1,803.22	77.1674	1,803.22	84.6431	1,803.22	75.982	1,803.22	82.4294	1,803.22	73.1892	1,803.22	81.2208	1,803.22	69.5968	1,803.22	79.7577	1,803.22	64.2124	1,803.22	78.7972	1,803.22	66.4835	1,803.22	77.7436	1,803.22	60.6575	1,803.22	76.4415	1,803.22	65.4043	1,803.22	74.1216	1,803.22	67.5473	1,803.22	74.8991	1,803.22	66.1459	1,803.22	74.8814	1,803.22	63.6971	1,803.22	74.4744	1,803.22	72.0106	1,803.22	71.1203	1,803.22	66.5742	1,803.22	62.6794	1,803.22	66.1735
1,866.21	85.3477	1,866.21	84.9531	1,866.21	86.054	1,866.21	83.4636	1,866.21	85.5633	1,866.21	82.2284	1,866.21	85.5941	1,866.21	81.7044	1,866.21	85.0421	1,866.21	79.0002	1,866.21	82.9653	1,866.21	76.7129	1,866.21	81.9402	1,866.21	74.8544	1,866.21	81.0765	1,866.21	71.6552	1,866.21	81.1431	1,866.21	68.5715	1,866.21	79.7622	1,866.21	66.3691	1,866.21	78.4509	1,866.21	61.5064	1,866.21	76.7412	1,866.21	71.9276	1,866.21	71.6935	1,866.21	71.7767	1,866.21	73.2391	1,866.21	71.0413	1,866.21	73.8553	1,866.21	69.0245	1,866.21	73.6976	1,866.21	70.7377	1,866.21	70.9108	1,866.21	75.7299	1,866.21	68.2425	1,866.21	76.2713
1,932.13	84.8027	1,932.13	84.298	1,932.13	85.0436	1,932.13	83.1538	1,932.13	85.708	1,932.13	82.9369	1,932.13	84.9511	1,932.13	81.6707	1,932.13	85.2041	1,932.13	79.0181	1,932.13	84.0084	1,932.13	78.0529	1,932.13	81.385	1,932.13	75.1071	1,932.13	80.2272	1,932.13	75.6295	1,932.13	79.4751	1,932.13	72.1408	1,932.13	77.3592	1,932.13	69.1577	1,932.13	73.9357	1,932.13	69.1913	1,932.13	73.5782	1,932.13	66.2331	1,932.13	72.8859	1,932.13	67.417	1,932.13	73.1909	1,932.13	70.1829	1,932.13	72.7724	1,932.13	74.0468	1,932.13	73.2907	1,932.13	74.9383	1,932.13	66.7259	1,932.13	73.9286	1,932.13	72.8688	1,932.13	73.8742
1,999.51	84.5068	1,999.51	83.3651	1,999.51	85.2759	1,999.51	82.5237	1,999.51	85.4552	1,999.51	80.3358	1,999.51	84.6366	1,999.51	78.695	1,999.51	83.8784	1,999.51	78.7807	1,999.51	84.1266	1,999.51	75.196	1,999.51	82.9554	1,999.51	74.5203	1,999.51	80.1866	1,999.51	75.9564	1,999.51	76.5816	1,999.51	67.6468	1,999.51	75.8754	1,999.51	63.5704	1,999.51	75.026	1,999.51	66.582	1,999.51	71.6713	1,999.51	72.2005	1,999.51	72.524	1,999.51	68.3048	1,999.51	70.0961	1,999.51	68.1583	1,999.51	70.794	1,999.51	72.4639	1,999.51	66.8231	1,999.51	71.9965	1,999.51	66.5409	1,999.51	75.0671	1,999.51	69.7747	1,999.51	72.5197
2,069.82	84.1462	2,069.82	83.5545	2,069.82	84.2152	2,069.82	81.5783	2,069.82	85.2878	2,069.82	80.994	2,069.82	84.787	2,069.82	78.6917	2,069.82	84.8234	2,069.82	76.3997	2,069.82	83.6256	2,069.82	76.2459	2,069.82	81.6928	2,069.82	76.4479	2,069.82	82.3896	2,069.82	68.6197	2,069.82	81.2208	2,069.82	59.1052	2,069.82	79.402	2,069.82	67.5214	2,069.82	78.4123	2,069.82	44.849	2,069.82	73.9445	2,069.82	60.6841	2,069.82	71.2521	2,069.82	63.3151	2,069.82	69.929	2,069.82	57.6641	2,069.82	68.6911	2,069.82	64.144	2,069.82	74.1101	2,069.82	70.4802	2,069.82	73.0639	2,069.82	67.065	2,069.82	67.4675	2,069.82	69.3485
2,143.07	84.2056	2,143.07	83.8925	2,143.07	85.3421	2,143.07	83.8032	2,143.07	86.2894	2,143.07	82.1092	2,143.07	86.0274	2,143.07	79.9637	2,143.07	85.1667	2,143.07	79.0153	2,143.07	84.9688	2,143.07	77.6004	2,143.07	84.3489	2,143.07	76.6455	2,143.07	83.0554	2,143.07	74.5191	2,143.07	81.0376	2,143.07	72.4604	2,143.07	80.1894	2,143.07	69.232	2,143.07	80.3902	2,143.07	67.3855	2,143.07	77.7193	2,143.07	50.2341	2,143.07	72.133	2,143.07	66.837	2,143.07	71.6386	2,143.07	62.7189	2,143.07	73.1416	2,143.07	65.7224	2,143.07	73.8025	2,143.07	72.6119	2,143.07	74.1903	2,143.07	75.8024	2,143.07	66.3634	2,143.07	71.6541
2,219.24	85.7806	2,219.24	84.5924	2,219.24	86.6608	2,219.24	84.0664	2,219.24	86.6468	2,219.24	83.9717	2,219.24	86.6479	2,219.24	83.2277	2,219.24	86.3238	2,219.24	81.3941	2,219.24	84.9552	2,219.24	79.4098	2,219.24	84.2517	2,219.24	78.8846	2,219.24	83.5484	2,219.24	75.6956	2,219.24	82.1368	2,219.24	77.8782	2,219.24	80.2963	2,219.24	76.4657	2,219.24	78.1718	2,219.24	71.1222	2,219.24	78.8745	2,219.24	63.8836	2,219.24	78.382	2,219.24	69.1497	2,219.24	73.5206	2,219.24	65.4825	2,219.24	75.7282	2,219.24	69.3702	2,219.24	75.113	2,219.24	72.4265	2,219.24	75.1056	2,219.24	75.8223	2,219.24	73.9306	2,219.24	74.2929
2,296.88	84.1994	2,296.88	83.3367	2,296.88	85.2942	2,296.88	82.5939	2,296.88	85.3925	2,296.88	81.2008	2,296.88	85.9149	2,296.88	81.478	2,296.88	85.5713	2,296.88	79.4289	2,296.88	84.641	2,296.88	79.2354	2,296.88	81.8664	2,296.88	80.5233	2,296.88	80.4369	2,296.88	78.1279	2,296.88	80.7818	2,296.88	76.4533	2,296.88	79.3503	2,296.88	75.8626	2,296.88	76.9578	2,296.88	72.9504	2,296.88	77.4837	2,296.88	72.0723	2,296.88	72.1166	2,296.88	72.1765	2,296.88	59.9678	2,296.88	68.7572	2,296.88	69.3741	2,296.88	71.5546	2,296.88	71.72	2,296.88	71.3052	2,296.88	75.5701	2,296.88	71.345	2,296.88	72.4302	2,296.88	70.4893
2,378.91	82.4486	2,378.91	81.7427	2,378.91	83.9485	2,378.91	81.7947	2,378.91	84.47	2,378.91	81.625	2,378.91	84.7937	2,378.91	81.2471	2,378.91	84.3225	2,378.91	81.0143	2,378.91	83.2628	2,378.91	80.2743	2,378.91	82.1599	2,378.91	78.5103	2,378.91	81.9185	2,378.91	76.4108	2,378.91	79.6617	2,378.91	71.8685	2,378.91	77.3462	2,378.91	71.9814	2,378.91	76.5642	2,378.91	73.0918	2,378.91	72.7874	2,378.91	73.5126	2,378.91	74.2321	2,378.91	71.2493	2,378.91	73.8583	2,378.91	70.1954	2,378.91	67.2782	2,378.91	62.3085	2,378.91	70.3985	2,378.91	71.4494	2,378.91	73.3904	2,378.91	66.237	2,378.91	70.7727	2,378.91	66.8016
2,462.4	82.5321	2,462.4	80.8719	2,462.4	84.2943	2,462.4	80.7659	2,462.4	84.45	2,462.4	80.7625	2,462.4	84.8649	2,462.4	80.8688	2,462.4	84.4931	2,462.4	80.8259	2,462.4	84.0161	2,462.4	79.2101	2,462.4	83.1519	2,462.4	77.5362	2,462.4	81.734	2,462.4	75.5335	2,462.4	80.412	2,462.4	73.4381	2,462.4	78.551	2,462.4	72.3418	2,462.4	76.4824	2,462.4	70.8718	2,462.4	75.5977	2,462.4	70.7213	2,462.4	75.3114	2,462.4	69.8495	2,462.4	73.5439	2,462.4	67.4719	2,462.4	70.6654	2,462.4	66.2566	2,462.4	70.2282	2,462.4	71.9004	2,462.4	73.4637	2,462.4	73.6568	2,462.4	73.104	2,462.4	71.9161
2,548.83	83.6893	2,548.83	82.5221	2,548.83	84.7751	2,548.83	81.9864	2,548.83	85.8325	2,548.83	82.5	2,548.83	85.9932	2,548.83	82.154	2,548.83	85.2882	2,548.83	82.5827	2,548.83	84.348	2,548.83	82.58	2,548.83	83.2006	2,548.83	79.8652	2,548.83	82.6114	2,548.83	77.5779	2,548.83	81.0427	2,548.83	75.3411	2,548.83	79.2985	2,548.83	73.9961	2,548.83	77.5498	2,548.83	73.3791	2,548.83	75.9843	2,548.83	71.5628	2,548.83	75.5317	2,548.83	71.9192	2,548.83	75.0239	2,548.83	71.9636	2,548.83	73.9653	2,548.83	67.8816	2,548.83	73.0546	2,548.83	72.9753	2,548.83	74.9988	2,548.83	74.5927	2,548.83	72.6656	2,548.83	71.5978
2,639.65	83.2647	2,639.65	81.9453	2,639.65	84.1558	2,639.65	81.4159	2,639.65	85.3915	2,639.65	82.7757	2,639.65	85.2547	2,639.65	83.2417	2,639.65	84.5904	2,639.65	82.7937	2,639.65	83.2775	2,639.65	82.9864	2,639.65	82.4264	2,639.65	81.6419	2,639.65	81.7762	2,639.65	78.9892	2,639.65	80.8111	2,639.65	76.6558	2,639.65	79.3773	2,639.65	74.8973	2,639.65	77.3762	2,639.65	73.691	2,639.65	75.7349	2,639.65	73.7023	2,639.65	74.3997	2,639.65	73.7212	2,639.65	74.3865	2,639.65	72.0121	2,639.65	73.4257	2,639.65	70.9201	2,639.65	73.5558	2,639.65	73.4255	2,639.65	75.1024	2,639.65	72.1609	2,639.65	73.3376	2,639.65	70.16
2,731.93	81.8002	2,731.93	80.38	2,731.93	83.2711	2,731.93	79.9808	2,731.93	85.027	2,731.93	82.2876	2,731.93	84.8667	2,731.93	83.0912	2,731.93	84.2786	2,731.93	82.7156	2,731.93	83.2442	2,731.93	82.3167	2,731.93	82.4151	2,731.93	81.5229	2,731.93	81.5223	2,731.93	79.3734	2,731.93	80.8538	2,731.93	76.8294	2,731.93	79.7494	2,731.93	75.8121	2,731.93	78.338	2,731.93	73.3501	2,731.93	76.6748	2,731.93	72.0501	2,731.93	74.5036	2,731.93	75.0697	2,731.93	72.994	2,731.93	74.0156	2,731.93	73.401	2,731.93	69.8632	2,731.93	72.3952	2,731.93	72.6317	2,731.93	74.5751	2,731.93	73.1632	2,731.93	74.8559	2,731.93	69.3439
2,828.61	82.0414	2,828.61	79.4844	2,828.61	84.0214	2,828.61	78.8745	2,828.61	84.1301	2,828.61	80.73	2,828.61	84.3748	2,828.61	82.4451	2,828.61	83.985	2,828.61	83.5022	2,828.61	83.5628	2,828.61	82.7522	2,828.61	82.9014	2,828.61	82.1122	2,828.61	81.8829	2,828.61	81.4176	2,828.61	80.929	2,828.61	78.7336	2,828.61	79.4859	2,828.61	76.3074	2,828.61	78.5461	2,828.61	74.6432	2,828.61	76.8602	2,828.61	72.6104	2,828.61	75.2522	2,828.61	73.361	2,828.61	73.9035	2,828.61	73.372	2,828.61	73.2773	2,828.61	70.6653	2,828.61	73.1326	2,828.61	72.2652	2,828.61	75.1263	2,828.61	70.752	2,828.61	75.678	2,828.61	68.6242
2,928.22	83.9974	2,928.22	83.2986	2,928.22	83.9748	2,928.22	82.6341	2,928.22	82.6621	2,928.22	81.8126	2,928.22	82.9561	2,928.22	82.9498	2,928.22	83.3369	2,928.22	84.1476	2,928.22	83.4939	2,928.22	83.7921	2,928.22	82.9055	2,928.22	83.0367	2,928.22	81.5715	2,928.22	82.4075	2,928.22	80.4925	2,928.22	80.5422	2,928.22	79.1581	2,928.22	78.1489	2,928.22	78.0283	2,928.22	76.8471	2,928.22	76.4421	2,928.22	71.6277	2,928.22	75.6834	2,928.22	74.1931	2,928.22	74.0546	2,928.22	74.6571	2,928.22	72.709	2,928.22	66.8872	2,928.22	72.5957	2,928.22	70.8281	2,928.22	75.2925	2,928.22	72.2561	2,928.22	75.8154	2,928.22	69.4291
3,030.76	85.6919	3,030.76	85.3338	3,030.76	86.1036	3,030.76	85.4763	3,030.76	86.4682	3,030.76	84.6603	3,030.76	86.3601	3,030.76	83.8065	3,030.76	86.2537	3,030.76	83.2924	3,030.76	85.4207	3,030.76	81.9106	3,030.76	83.2218	3,030.76	80.0248	3,030.76	80.6915	3,030.76	78.9948	3,030.76	78.4573	3,030.76	77.4157	3,030.76	76.7375	3,030.76	75.9887	3,030.76	75.325	3,030.76	74.1002	3,030.76	72.5441	3,030.76	72.5608	3,030.76	71.8614	3,030.76	71.0446	3,030.76	71.9151	3,030.76	71.3062	3,030.76	68.2053	3,030.76	66.754	3,030.76	66.6099	3,030.76	66.3136	3,030.76	69.8178	3,030.76	51.4834	3,030.76	72.4058	3,030.76	69.4624
3,137.7	85.2407	3,137.7	84.1789	3,137.7	87.1788	3,137.7	84.0476	3,137.7	88.4211	3,137.7	84.5014	3,137.7	88.1556	3,137.7	84.137	3,137.7	87.3986	3,137.7	83.0288	3,137.7	85.7022	3,137.7	81.4864	3,137.7	83.2595	3,137.7	79.1575	3,137.7	81.291	3,137.7	76.8943	3,137.7	79.2688	3,137.7	73.9818	3,137.7	77.4257	3,137.7	72.5294	3,137.7	75.6368	3,137.7	71.7219	3,137.7	74.6153	3,137.7	70.6376	3,137.7	71.7603	3,137.7	68.4607	3,137.7	71.7686	3,137.7	69.7783	3,137.7	69.603	3,137.7	68.2779	3,137.7	69.0527	3,137.7	65.7841	3,137.7	69.3755	3,137.7	66.9776	3,137.7	71.1204	3,137.7	70.4374
3,249.02	84.8909	3,249.02	82.5349	3,249.02	87.1229	3,249.02	82.499	3,249.02	88.5708	3,249.02	83.3767	3,249.02	88.1097	3,249.02	83.8998	3,249.02	87.0879	3,249.02	83.5151	3,249.02	85.3889	3,249.02	82.0127	3,249.02	83.4435	3,249.02	80.3165	3,249.02	81.2358	3,249.02	77.8598	3,249.02	79.8299	3,249.02	75.3826	3,249.02	78.5342	3,249.02	73.4358	3,249.02	76.5754	3,249.02	72.6223	3,249.02	75.022	3,249.02	71.8681	3,249.02	73.1826	3,249.02	70.6524	3,249.02	71.0254	3,249.02	72.8019	3,249.02	71.5606	3,249.02	70.8241	3,249.02	69.1478	3,249.02	69.8507	3,249.02	69.7404	3,249.02	73.5648	3,249.02	73.2241	3,249.02	73.0345
3,363.28	84.7667	3,363.28	82.0868	3,363.28	87.0582	3,363.28	81.3594	3,363.28	87.8443	3,363.28	83.1358	3,363.28	87.5605	3,363.28	83.987	3,363.28	85.9656	3,363.28	83.924	3,363.28	84.1765	3,363.28	83.0189	3,363.28	83.1337	3,363.28	81.1835	3,363.28	81.5191	3,363.28	78.3069	3,363.28	79.7344	3,363.28	76.9054	3,363.28	78.5988	3,363.28	74.2795	3,363.28	77.2253	3,363.28	72.7064	3,363.28	74.4806	3,363.28	71.4031	3,363.28	72.1931	3,363.28	71.8606	3,363.28	68.6267	3,363.28	73.2774	3,363.28	70.3067	3,363.28	71.5877	3,363.28	68.9994	3,363.28	71.1811	3,363.28	69.4616	3,363.28	73.4381	3,363.28	73.3913	3,363.28	72.576
3,481.93	85.1878	3,481.93	81.8726	3,481.93	86.996	3,481.93	81.5765	3,481.93	87.3891	3,481.93	82.8282	3,481.93	87.3176	3,481.93	84.1808	3,481.93	85.9165	3,481.93	84.0977	3,481.93	85.0617	3,481.93	83.2329	3,481.93	84.1555	3,481.93	81.5576	3,481.93	82.3445	3,481.93	79.3634	3,481.93	80.6529	3,481.93	77.1862	3,481.93	78.6743	3,481.93	75.5217	3,481.93	76.6145	3,481.93	72.7807	3,481.93	74.9526	3,481.93	70.7201	3,481.93	72.2964	3,481.93	73.398	3,481.93	70.2379	3,481.93	74.1735	3,481.93	70.4036	3,481.93	71.1107	3,481.93	71.2039	3,481.93	72.8643	3,481.93	70.5619	3,481.93	71.544	3,481.93	71.8165	3,481.93	69.5793
3,604.98	86.7386	3,604.98	83.1382	3,604.98	88.6943	3,604.98	82.3735	3,604.98	88.7996	3,604.98	83.8272	3,604.98	88.3029	3,604.98	84.8342	3,604.98	87.4594	3,604.98	84.9863	3,604.98	86.9295	3,604.98	84.1665	3,604.98	85.8075	3,604.98	83.054	3,604.98	84.1383	3,604.98	81.6921	3,604.98	82.2901	3,604.98	78.4132	3,604.98	80.2161	3,604.98	75.6419	3,604.98	78.2723	3,604.98	72.3827	3,604.98	76.781	3,604.98	72.9043	3,604.98	73.642	3,604.98	69.9815	3,604.98	72.2617	3,604.98	73.3238	3,604.98	72.8417	3,604.98	71.73	3,604.98	73.5536	3,604.98	72.9123	3,604.98	72.5604	3,604.98	70.1488	3,604.98	74.3362	3,604.98	70.0907
3,732.42	86.5314	3,732.42	84.6591	3,732.42	87.559	3,732.42	82.2758	3,732.42	88.57	3,732.42	83.0576	3,732.42	87.5076	3,732.42	84.4208	3,732.42	87.3653	3,732.42	86.2238	3,732.42	86.7953	3,732.42	85.4352	3,732.42	85.8495	3,732.42	83.642	3,732.42	83.7268	3,732.42	83.0502	3,732.42	82.2644	3,732.42	80.6551	3,732.42	79.0703	3,732.42	77.4817	3,732.42	78.2216	3,732.42	74.5532	3,732.42	76.4446	3,732.42	74.2878	3,732.42	72.5898	3,732.42	70.0676	3,732.42	69.3361	3,732.42	74.1316	3,732.42	70.9758	3,732.42	72.9583	3,732.42	71.0534	3,732.42	71.9167	3,732.42	71.0936	3,732.42	70.6808	3,732.42	74.5695	3,732.42	71.6284
3,864.26	84.6452	3,864.26	84.0437	3,864.26	86.4191	3,864.26	81.0133	3,864.26	87.0951	3,864.26	82.6728	3,864.26	86.6435	3,864.26	84.3476	3,864.26	86.2041	3,864.26	85.2871	3,864.26	85.6963	3,864.26	84.988	3,864.26	84.8661	3,864.26	83.3699	3,864.26	83.2075	3,864.26	80.6107	3,864.26	81.6076	3,864.26	78.9713	3,864.26	78.7115	3,864.26	74.8395	3,864.26	77.2832	3,864.26	73.5815	3,864.26	75.4945	3,864.26	72.7306	3,864.26	73.7364	3,864.26	72.2471	3,864.26	71.5721	3,864.26	74.2775	3,864.26	70.2313	3,864.26	73.2767	3,864.26	71.4033	3,864.26	70.3	3,864.26	71.7478	3,864.26	70.1646	3,864.26	75.1086	3,864.26	73.219
4,000.49	85.731	4,000.49	82.1234	4,000.49	87.9054	4,000.49	82.2206	4,000.49	86.9964	4,000.49	85.5118	4,000.49	87.4734	4,000.49	87.4147	4,000.49	86.7408	4,000.49	86.5145	4,000.49	86.5629	4,000.49	86.738	4,000.49	85.1846	4,000.49	85.7564	4,000.49	83.2294	4,000.49	82.259	4,000.49	81.7377	4,000.49	78.6751	4,000.49	80.6454	4,000.49	75.8065	4,000.49	77.1161	4,000.49	73.8536	4,000.49	75.954	4,000.49	72.7985	4,000.49	75.0677	4,000.49	72.0448	4,000.49	74.3928	4,000.49	73.8193	4,000.49	66.2497	4,000.49	73.2867	4,000.49	72.335	4,000.49	70.8269	4,000.49	71.2241	4,000.49	71.8287	4,000.49	74.5961	4,000.49	72.2864
4,141.11	84.8536	4,141.11	81.2938	4,141.11	86.0614	4,141.11	82.3236	4,141.11	86.2822	4,141.11	85.7229	4,141.11	86.5667	4,141.11	87.533	4,141.11	87.4859	4,141.11	87.6451	4,141.11	86.8724	4,141.11	86.9706	4,141.11	85.2749	4,141.11	84.3868	4,141.11	83.7071	4,141.11	82.935	4,141.11	80.9578	4,141.11	80.2469	4,141.11	77.4806	4,141.11	76.9533	4,141.11	77.3724	4,141.11	76.5849	4,141.11	73.8781	4,141.11	74.2053	4,141.11	73.4729	4,141.11	72.2768	4,141.11	72.0848	4,141.11	73.8134	4,141.11	67.8	4,141.11	74.7398	4,141.11	69.909	4,141.11	71.3659	4,141.11	68.2653	4,141.11	67.5086	4,141.11	72.9601	4,141.11	70.3483
4,287.6	85.4185	4,287.6	85.0582	4,287.6	85.8692	4,287.6	79.4913	4,287.6	87.3942	4,287.6	78.4843	4,287.6	87.7448	4,287.6	83.909	4,287.6	88.3921	4,287.6	87.1687	4,287.6	87.992	4,287.6	85.505	4,287.6	85.8884	4,287.6	83.4778	4,287.6	84.0687	4,287.6	81.9343	4,287.6	81.9251	4,287.6	80.0697	4,287.6	80.1038	4,287.6	76.3926	4,287.6	76.8819	4,287.6	75.9907	4,287.6	74.3564	4,287.6	71.8265	4,287.6	72.8975	4,287.6	70.6556	4,287.6	72.1036	4,287.6	72.7091	4,287.6	68.5993	4,287.6	72.8267	4,287.6	65.0431	4,287.6	71.2717	4,287.6	70.6964	4,287.6	68.2637	4,287.6	74.2889	4,287.6	72.396
4,438.48	86.4923	4,438.48	83.628	4,438.48	87.2949	4,438.48	81.8446	4,438.48	86.6613	4,438.48	82.1928	4,438.48	88.6059	4,438.48	84.6877	4,438.48	87.6516	4,438.48	84.4844	4,438.48	85.9867	4,438.48	85.5773	4,438.48	84.4877	4,438.48	84.2592	4,438.48	82.0749	4,438.48	81.5056	4,438.48	80.6468	4,438.48	78.3562	4,438.48	79.1694	4,438.48	75.9847	4,438.48	77.7735	4,438.48	73.1742	4,438.48	76.0779	4,438.48	72.3684	4,438.48	71.3801	4,438.48	71.1567	4,438.48	71.3944	4,438.48	69.9883	4,438.48	69.3504	4,438.48	72.1145	4,438.48	66.7062	4,438.48	71.9999	4,438.48	70.1726	4,438.48	67.1255	4,438.48	72.3277	4,438.48	73.444
4,595.21	87.6485	4,595.21	86.4522	4,595.21	87.6035	4,595.21	84.9635	4,595.21	88.8938	4,595.21	84.4103	4,595.21	89.37	4,595.21	86.5969	4,595.21	88.702	4,595.21	86.7138	4,595.21	87.7314	4,595.21	86.09	4,595.21	85.183	4,595.21	84.0092	4,595.21	83.0071	4,595.21	80.7983	4,595.21	81.7986	4,595.21	77.9116	4,595.21	80.4842	4,595.21	75.2697	4,595.21	77.197	4,595.21	70.1227	4,595.21	75.0529	4,595.21	69.6003	4,595.21	73.9524	4,595.21	71.5658	4,595.21	71.4994	4,595.21	69.7599	4,595.21	71.254	4,595.21	71.8239	4,595.21	68.3973	4,595.21	70.3288	4,595.21	69.3288	4,595.21	68.9235	4,595.21	72.975	4,595.21	72.813
4,756.35	86.5113	4,756.35	86.3184	4,756.35	86.656	4,756.35	84.0752	4,756.35	88.6643	4,756.35	82.281	4,756.35	87.6335	4,756.35	84.0778	4,756.35	87.6019	4,756.35	86.4493	4,756.35	86.2049	4,756.35	85.1505	4,756.35	84.2473	4,756.35	83.6096	4,756.35	83.8797	4,756.35	80.9972	4,756.35	82.0983	4,756.35	78.2549	4,756.35	78.7817	4,756.35	77.2636	4,756.35	77.8317	4,756.35	73.7183	4,756.35	75.7084	4,756.35	72.8063	4,756.35	73.2769	4,756.35	71.9453	4,756.35	69.1462	4,756.35	71.6308	4,756.35	71.4596	4,756.35	73.2206	4,756.35	67.6114	4,756.35	70.4826	4,756.35	67.334	4,756.35	67.5248	4,756.35	72.4349	4,756.35	71.2574
4,924.8	87.3468	4,924.8	86.579	4,924.8	88.5632	4,924.8	84.01	4,924.8	88.6597	4,924.8	82.9761	4,924.8	88.9638	4,924.8	83.0261	4,924.8	87.5468	4,924.8	84.0007	4,924.8	85.4193	4,924.8	83.8938	4,924.8	85.1734	4,924.8	81.4757	4,924.8	83.0156	4,924.8	78.957	4,924.8	81.3056	4,924.8	76.482	4,924.8	79.0776	4,924.8	72.1283	4,924.8	77.2146	4,924.8	67.7534	4,924.8	76.3925	4,924.8	69.2272	4,924.8	74.001	4,924.8	69.9471	4,924.8	69.6577	4,924.8	71.1425	4,924.8	69.7424	4,924.8	72.9679	4,924.8	67.7745	4,924.8	68.4265	4,924.8	69.5174	4,924.8	63.7016	4,924.8	69.8073	4,924.8	72.2425
5,097.66	87.8252	5,097.66	87.2813	5,097.66	88.4544	5,097.66	85.4097	5,097.66	88.8696	5,097.66	82.8843	5,097.66	88.5313	5,097.66	85.0682	5,097.66	87.1671	5,097.66	86.2531	5,097.66	86.6875	5,097.66	85.4771	5,097.66	84.2803	5,097.66	83.1589	5,097.66	82.0679	5,097.66	81.2779	5,097.66	80.6545	5,097.66	78.65	5,097.66	79.1617	5,097.66	76.7387	5,097.66	76.7912	5,097.66	74.5023	5,097.66	75.5447	5,097.66	64.1548	5,097.66	72.838	5,097.66	71.6597	5,097.66	70.8378	5,097.66	71.6589	5,097.66	70.59	5,097.66	72.6478	5,097.66	64.6896	5,097.66	67.7378	5,097.66	68.2791	5,097.66	64.8511	5,097.66	65.7342	5,097.66	72.0843
5,277.83	88.1593	5,277.83	87.9533	5,277.83	88.522	5,277.83	86.3488	5,277.83	89.0321	5,277.83	83.2257	5,277.83	87.5508	5,277.83	81.88	5,277.83	86.3627	5,277.83	83.316	5,277.83	85.841	5,277.83	82.4944	5,277.83	84.5977	5,277.83	81.5219	5,277.83	82.9283	5,277.83	78.6262	5,277.83	80.9392	5,277.83	75.2066	5,277.83	78.7913	5,277.83	74.3654	5,277.83	77.3705	5,277.83	73.1995	5,277.83	75.211	5,277.83	66.1347	5,277.83	71.2582	5,277.83	71.4657	5,277.83	68.5753	5,277.83	69.7594	5,277.83	66.7697	5,277.83	71.9061	5,277.83	64.0162	5,277.83	65.8003	5,277.83	69.7837	5,277.83	61.7679	5,277.83	68.2258	5,277.83	72.8534
5,463.87	88.385	5,463.87	87.5902	5,463.87	88.4678	5,463.87	86.9944	5,463.87	87.5481	5,463.87	85.2039	5,463.87	86.7905	5,463.87	83.2129	5,463.87	85.3061	5,463.87	82.8967	5,463.87	84.5263	5,463.87	82.8211	5,463.87	83.655	5,463.87	81.3634	5,463.87	80.5581	5,463.87	77.9536	5,463.87	78.4621	5,463.87	75.9268	5,463.87	77.5948	5,463.87	73.2625	5,463.87	75.585	5,463.87	72.5684	5,463.87	71.7581	5,463.87	69.0274	5,463.87	70.6001	5,463.87	68.6814	5,463.87	68.1468	5,463.87	67.8757	5,463.87	66.3797	5,463.87	70.9678	5,463.87	61.7479	5,463.87	66.9226	5,463.87	67.126	5,463.87	61.7893	5,463.87	67.7429	5,463.87	71.4299
5,657.23	89.7219	5,657.23	89.2838	5,657.23	89.4911	5,657.23	88.5466	5,657.23	88.5114	5,657.23	85.7034	5,657.23	87.0857	5,657.23	84.8142	5,657.23	86.4414	5,657.23	84.7256	5,657.23	85.7229	5,657.23	83.854	5,657.23	83.031	5,657.23	81.2158	5,657.23	80.8185	5,657.23	78.0092	5,657.23	79.6429	5,657.23	75.3769	5,657.23	77.4158	5,657.23	71.7345	5,657.23	77.1636	5,657.23	69.2753	5,657.23	72.092	5,657.23	67.9894	5,657.23	69.2101	5,657.23	67.4697	5,657.23	69.5283	5,657.23	67.9063	5,657.23	66.4478	5,657.23	69.5461	5,657.23	65.3855	5,657.23	65.253	5,657.23	65.6015	5,657.23	63.7971	5,657.23	67.58	5,657.23	72.72
5,856.45	88.7017	5,856.45	88.1424	5,856.45	88.2882	5,856.45	87.8565	5,856.45	88.0943	5,856.45	86.0121	5,856.45	86.786	5,856.45	85.155	5,856.45	85.9183	5,856.45	84.9933	5,856.45	84.4292	5,856.45	83.9922	5,856.45	83.1419	5,856.45	81.8711	5,856.45	81.5446	5,856.45	80.0034	5,856.45	80.1653	5,856.45	76.9116	5,856.45	76.9619	5,856.45	74.6989	5,856.45	74.9738	5,856.45	70.8181	5,856.45	73.2721	5,856.45	69.7525	5,856.45	70.39	5,856.45	68.0698	5,856.45	70.1389	5,856.45	68.1618	5,856.45	62.7058	5,856.45	70.7691	5,856.45	67.576	5,856.45	65.3062	5,856.45	65.0857	5,856.45	61.3567	5,856.45	68.5626	5,856.45	73.4266
6,062.99	89.7464	6,062.99	89.1612	6,062.99	90.0099	6,062.99	87.9376	6,062.99	88.9768	6,062.99	86.687	6,062.99	87.7612	6,062.99	85.3094	6,062.99	87.0169	6,062.99	85.475	6,062.99	84.8567	6,062.99	85.0765	6,062.99	83.2544	6,062.99	82.6842	6,062.99	82.3285	6,062.99	80.2004	6,062.99	79.9855	6,062.99	77.0886	6,062.99	78.0222	6,062.99	73.6125	6,062.99	75.4894	6,062.99	72.222	6,062.99	74.5479	6,062.99	70.3028	6,062.99	71.0168	6,062.99	62.2454	6,062.99	71.7751	6,062.99	68.1445	6,062.99	65.2011	6,062.99	71.7942	6,062.99	65.9689	6,062.99	63.0563	6,062.99	63.8675	6,062.99	57.7033	6,062.99	67.3736	6,062.99	73.3915
6,276.86	89.6676	6,276.86	89.1176	6,276.86	89.991	6,276.86	87.6957	6,276.86	88.6269	6,276.86	86.1142	6,276.86	87.1796	6,276.86	83.9555	6,276.86	85.8041	6,276.86	84.7213	6,276.86	84.7467	6,276.86	84.6372	6,276.86	83.5406	6,276.86	82.2084	6,276.86	82.673	6,276.86	79.8946	6,276.86	80.065	6,276.86	78.3077	6,276.86	77.6522	6,276.86	74.7944	6,276.86	74.5135	6,276.86	70.6176	6,276.86	73.3284	6,276.86	69.3101	6,276.86	71.3895	6,276.86	63.6168	6,276.86	69.6956	6,276.86	68.2627	6,276.86	68.2634	6,276.86	69.3945	6,276.86	62.8889	6,276.86	65.2095	6,276.86	66.3647	6,276.86	58.3728	6,276.86	65.8325	6,276.86	70.1024
6,498.05	90.0732	6,498.05	89.0667	6,498.05	89.3501	6,498.05	88.1779	6,498.05	87.4176	6,498.05	85.9188	6,498.05	86.4631	6,498.05	84.5775	6,498.05	84.9176	6,498.05	84.3942	6,498.05	84.8856	6,498.05	83.8995	6,498.05	83.4842	6,498.05	82.3498	6,498.05	81.813	6,498.05	79.6859	6,498.05	79.5962	6,498.05	77.2153	6,498.05	77.9706	6,498.05	73.8846	6,498.05	75.3022	6,498.05	68.5396	6,498.05	73.7646	6,498.05	66.4051	6,498.05	71.8184	6,498.05	64.981	6,498.05	69.3131	6,498.05	68.9941	6,498.05	68.8438	6,498.05	70.2717	6,498.05	62.4678	6,498.05	63.2206	6,498.05	61.3472	6,498.05	56.1285	6,498.05	68.9564	6,498.05	70.3463
6,726.56	90.279	6,726.56	88.5231	6,726.56	89.1976	6,726.56	88.0087	6,726.56	88.3838	6,726.56	86.2047	6,726.56	87.2054	6,726.56	84.5078	6,726.56	86.1809	6,726.56	84.7671	6,726.56	85.6263	6,726.56	84.5509	6,726.56	84.2333	6,726.56	82.1986	6,726.56	81.8103	6,726.56	80.3934	6,726.56	80.0582	6,726.56	76.0522	6,726.56	78.6009	6,726.56	73.112	6,726.56	76.1355	6,726.56	68.313	6,726.56	74.4692	6,726.56	65.7347	6,726.56	72.7505	6,726.56	68.6736	6,726.56	66.7103	6,726.56	70.3077	6,726.56	68.9019	6,726.56	70.5685	6,726.56	60.4849	6,726.56	61.5253	6,726.56	58.6997	6,726.56	60.848	6,726.56	65.4609	6,726.56	72.8165
6,963.87	89.3146	6,963.87	88.4942	6,963.87	88.6658	6,963.87	86.7371	6,963.87	87.7854	6,963.87	85.2541	6,963.87	86.0146	6,963.87	83.1984	6,963.87	85.619	6,963.87	82.4577	6,963.87	85.1153	6,963.87	82.0171	6,963.87	83.5218	6,963.87	80.8105	6,963.87	81.0812	6,963.87	78.7892	6,963.87	78.9427	6,963.87	75.5061	6,963.87	77.1956	6,963.87	71.433	6,963.87	75.1114	6,963.87	69.0868	6,963.87	72.0057	6,963.87	66.2492	6,963.87	70.4851	6,963.87	66.3406	6,963.87	67.8141	6,963.87	69.7523	6,963.87	62.068	6,963.87	70.265	6,963.87	59.3635	6,963.87	63.5547	6,963.87	63.7407	6,963.87	64.9409	6,963.87	68.3889	6,963.87	70.7842
7,209.96	89.8391	7,209.96	89.2124	7,209.96	89.2093	7,209.96	87.8669	7,209.96	88.3041	7,209.96	86.6187	7,209.96	87.0808	7,209.96	84.5383	7,209.96	86.331	7,209.96	83.0987	7,209.96	85.5367	7,209.96	82.1804	7,209.96	82.9613	7,209.96	80.3398	7,209.96	81.1345	7,209.96	78.1946	7,209.96	79.8033	7,209.96	74.3793	7,209.96	77.8184	7,209.96	71.2328	7,209.96	75.7323	7,209.96	70.8039	7,209.96	72.5132	7,209.96	64.1277	7,209.96	71.3449	7,209.96	64.999	7,209.96	68.3648	7,209.96	69.7976	7,209.96	59.5299	7,209.96	70.5371	7,209.96	62.2243	7,209.96	65.1167	7,209.96	64.5437	7,209.96	64.9696	7,209.96	70.0616	7,209.96	71.0104
7,464.84	87.8201	7,464.84	87.3608	7,464.84	88.0492	7,464.84	85.6755	7,464.84	87.4826	7,464.84	86.3311	7,464.84	86.1047	7,464.84	83.6348	7,464.84	86.0009	7,464.84	81.925	7,464.84	84.9526	7,464.84	81.7392	7,464.84	83.0488	7,464.84	79.4133	7,464.84	81.054	7,464.84	77.4404	7,464.84	80.1289	7,464.84	74.1706	7,464.84	78.4205	7,464.84	70.4275	7,464.84	76.4575	7,464.84	70.4058	7,464.84	74.6531	7,464.84	66.0523	7,464.84	69.8985	7,464.84	63.8955	7,464.84	70.6486	7,464.84	68.9367	7,464.84	65.6465	7,464.84	70.2432	7,464.84	64.1864	7,464.84	61.363	7,464.84	63.0629	7,464.84	63.6266	7,464.84	67.9009	7,464.84	69.0809
7,727.05	87.8786	7,727.05	87.0331	7,727.05	87.9747	7,727.05	86.3182	7,727.05	87.4035	7,727.05	86.294	7,727.05	86.5068	7,727.05	84.883	7,727.05	86.4193	7,727.05	83.178	7,727.05	84.5445	7,727.05	81.7343	7,727.05	83.1656	7,727.05	79.6109	7,727.05	81.3367	7,727.05	75.8895	7,727.05	80.4803	7,727.05	74.0847	7,727.05	78.505	7,727.05	70.9727	7,727.05	75.895	7,727.05	70.7894	7,727.05	73.7607	7,727.05	65.9866	7,727.05	70.9432	7,727.05	57.3925	7,727.05	70.0646	7,727.05	66.0278	7,727.05	65.3357	7,727.05	69.3718	7,727.05	61.0585	7,727.05	58.6696	7,727.05	57.5937	7,727.05	64.2525	7,727.05	67.8369	7,727.05	67.9478
7,999.51	87.2088	7,999.51	86.2539	7,999.51	87.9456	7,999.51	85.4272	7,999.51	86.6636	7,999.51	85.6035	7,999.51	86.6407	7,999.51	84.1406	7,999.51	85.2544	7,999.51	82.3272	7,999.51	83.9769	7,999.51	81.1404	7,999.51	82.6037	7,999.51	79.0806	7,999.51	82.2747	7,999.51	77.0732	7,999.51	79.8612	7,999.51	73.837	7,999.51	76.562	7,999.51	70.4288	7,999.51	73.1519	7,999.51	69.513	7,999.51	71.8893	7,999.51	64.9414	7,999.51	70.1773	7,999.51	60.8145	7,999.51	67.3045	7,999.51	64.1304	7,999.51	64.5795	7,999.51	66.4097	7,999.51	61.0121	7,999.51	57.5613	7,999.51	61.2063	7,999.51	61.4672	7,999.51	68.1031	7,999.51	66.2652
8,282.23	87.8427	8,282.23	87.1714	8,282.23	88.5823	8,282.23	86.3888	8,282.23	88.0865	8,282.23	85.9636	8,282.23	87.4093	8,282.23	85.0208	8,282.23	85.718	8,282.23	82.5164	8,282.23	84.8533	8,282.23	81.268	8,282.23	83.953	8,282.23	80.0809	8,282.23	81.4716	8,282.23	77.3393	8,282.23	78.5924	8,282.23	74.5747	8,282.23	75.9546	8,282.23	70.3879	8,282.23	74.4134	8,282.23	66.8883	8,282.23	71.9157	8,282.23	64.2479	8,282.23	70.2112	8,282.23	61.7835	8,282.23	68.0058	8,282.23	63.7368	8,282.23	64.9225	8,282.23	66.8981	8,282.23	63.9354	8,282.23	57.941	8,282.23	62.3612	8,282.23	59.7613	8,282.23	64.9341	8,282.23	66.9964
8,573.73	88.0659	8,573.73	87.6425	8,573.73	88.6322	8,573.73	86.5716	8,573.73	88.3099	8,573.73	85.9247	8,573.73	87.8189	8,573.73	83.8902	8,573.73	86.2116	8,573.73	82.4176	8,573.73	85.9505	8,573.73	81.1783	8,573.73	83.3228	8,573.73	79.5437	8,573.73	80.1976	8,573.73	77.537	8,573.73	78.4459	8,573.73	73.7511	8,573.73	76.4531	8,573.73	71.0916	8,573.73	75.5179	8,573.73	66.4336	8,573.73	72.5088	8,573.73	64.5024	8,573.73	71.106	8,573.73	60.2408	8,573.73	68.1234	8,573.73	63.2253	8,573.73	64.1171	8,573.73	65.1331	8,573.73	64.8354	8,573.73	45.9209	8,573.73	63.3739	8,573.73	59.5759	8,573.73	63.9794	8,573.73	65.9594
8,876.95	88.0127	8,876.95	87.5257	8,876.95	88.1548	8,876.95	86.4739	8,876.95	88.6435	8,876.95	84.8512	8,876.95	87.8304	8,876.95	83.2186	8,876.95	86.6338	8,876.95	82.4066	8,876.95	85.2803	8,876.95	82.0141	8,876.95	82.5539	8,876.95	80.7227	8,876.95	80.3247	8,876.95	77.7512	8,876.95	78.8548	8,876.95	74.2461	8,876.95	77.4452	8,876.95	72.2831	8,876.95	75.8981	8,876.95	68.2465	8,876.95	72.3698	8,876.95	63.8315	8,876.95	69.4327	8,876.95	61.3487	8,876.95	69.4198	8,876.95	66.5997	8,876.95	65.2377	8,876.95	63.9924	8,876.95	63.767	8,876.95	52.2178	8,876.95	62.2559	8,876.95	55.6615	8,876.95	63.9879	8,876.95	64.9969
9,188.96	88.9348	9,188.96	88.6339	9,188.96	88.9022	9,188.96	87.11	9,188.96	88.967	9,188.96	85.1087	9,188.96	87.6394	9,188.96	83.3779	9,188.96	86.4442	9,188.96	82.4055	9,188.96	84.3318	9,188.96	81.9657	9,188.96	82.0712	9,188.96	80.2727	9,188.96	80.1497	9,188.96	77.9349	9,188.96	78.3514	9,188.96	74.8942	9,188.96	75.4761	9,188.96	71.8339	9,188.96	72.4573	9,188.96	69.3082	9,188.96	70.4365	9,188.96	66.9802	9,188.96	68.4013	9,188.96	61.217	9,188.96	66.1628	9,188.96	66.5625	9,188.96	63.2542	9,188.96	57.9337	9,188.96	59.5254	9,188.96	46.1601	9,188.96	56.7469	9,188.96	50.1271	9,188.96	64.0142	9,188.96	62.8676
9,514.16	89.2499	9,514.16	89.1697	9,514.16	88.4975	9,514.16	87.8768	9,514.16	87.6951	9,514.16	84.6559	9,514.16	86.9303	9,514.16	83.7305	9,514.16	86.5822	9,514.16	83.035	9,514.16	83.4305	9,514.16	81.8642	9,514.16	81.9727	9,514.16	80.1708	9,514.16	80.2919	9,514.16	77.7992	9,514.16	75.9374	9,514.16	75.338	9,514.16	74.1311	9,514.16	70.9793	9,514.16	71.073	9,514.16	69.1315	9,514.16	69.3832	9,514.16	67.6753	9,514.16	68.919	9,514.16	60.917	9,514.16	64.837	9,514.16	65.3396	9,514.16	63.2268	9,514.16	62.7163	9,514.16	53.5419	9,514.16	48.6375	9,514.16	43.426	9,514.16	60.1047	9,514.16	63.921	9,514.16	64.5682
9,849.61	88.9977	9,849.61	88.7246	9,849.61	88.6214	9,849.61	87.288	9,849.61	87.7071	9,849.61	85.0154	9,849.61	86.5638	9,849.61	83.9597	9,849.61	84.9831	9,849.61	83.0677	9,849.61	84.182	9,849.61	81.7975	9,849.61	82.6965	9,849.61	79.266	9,849.61	77.8604	9,849.61	76.809	9,849.61	75.3331	9,849.61	73.0945	9,849.61	72.8684	9,849.61	70.9552	9,849.61	68.6893	9,849.61	65.7755	9,849.61	64.5658	9,849.61	63.0446	9,849.61	63.8066	9,849.61	62.0651	9,849.61	58.0642	9,849.61	64.0006	9,849.61	61.637	9,849.61	63.3969	9,849.61	57.4182	9,849.61	35.6926	9,849.61	31.1805	9,849.61	59.0531	9,849.61	59.4414	9,849.61	63.1621
10,196.8	88.6903	10,196.8	87.9963	10,196.8	88.8303	10,196.8	86.493	10,196.8	87.5653	10,196.8	85.2167	10,196.8	86.7472	10,196.8	83.3947	10,196.8	84.6316	10,196.8	83.1822	10,196.8	84.7569	10,196.8	80.8135	10,196.8	81.9845	10,196.8	76.8782	10,196.8	78.9291	10,196.8	72.4087	10,196.8	76.6074	10,196.8	70.6365	10,196.8	73.191	10,196.8	69.6053	10,196.8	70.7136	10,196.8	60.3883	10,196.8	69.183	10,196.8	54.4554	10,196.8	64.1214	10,196.8	61.1604	10,196.8	63.2702	10,196.8	62.3785	10,196.8	64.07	10,196.8	59.679	10,196.8	58.0788	10,196.8	45.4244	10,196.8	53.7035	10,196.8	56.1684	10,196.8	56.4563	10,196.8	60.2086
10,555.7	88.9345	10,555.7	88.0049	10,555.7	88.6544	10,555.7	86.3266	10,555.7	87.8495	10,555.7	84.6644	10,555.7	86.8631	10,555.7	83.0786	10,555.7	85.7739	10,555.7	82.39	10,555.7	84.381	10,555.7	79.8083	10,555.7	81.2046	10,555.7	75.9074	10,555.7	79.5243	10,555.7	71.2555	10,555.7	76.735	10,555.7	68.9841	10,555.7	73.038	10,555.7	67.1973	10,555.7	70.6187	10,555.7	63.1875	10,555.7	69.8263	10,555.7	55.177	10,555.7	64.5174	10,555.7	60.1841	10,555.7	64.582	10,555.7	59.6814	10,555.7	62.7965	10,555.7	62.3642	10,555.7	59.4218	10,555.7	40.3216	10,555.7	52.6203	10,555.7	48.438	10,555.7	53.0285	10,555.7	56.7003
10,927.7	89.7755	10,927.7	88.8675	10,927.7	89.4022	10,927.7	87.0179	10,927.7	88.7731	10,927.7	85.354	10,927.7	87.3131	10,927.7	82.5332	10,927.7	86.0642	10,927.7	80.1555	10,927.7	83.5642	10,927.7	78.1624	10,927.7	81.1274	10,927.7	74.2705	10,927.7	78.4943	10,927.7	70.9943	10,927.7	73.1478	10,927.7	66.1754	10,927.7	70.6434	10,927.7	62.0259	10,927.7	66.7447	10,927.7	63.2879	10,927.7	66.1326	10,927.7	60.2269	10,927.7	61.2369	10,927.7	55.728	10,927.7	61.9597	10,927.7	56.2572	10,927.7	61.7479	10,927.7	59.0248	10,927.7	58.2745	10,927.7	33.1259	10,927.7	51.6305	10,927.7	40.6979	10,927.7	48.1896	10,927.7	51.1449
11,313	90.6132	11,313	89.2542	11,313	90.5124	11,313	87.7808	11,313	89.4971	11,313	86.2975	11,313	87.8934	11,313	82.7817	11,313	86.3209	11,313	79.0728	11,313	83.0613	11,313	77.3907	11,313	80.5018	11,313	72.3125	11,313	75.7311	11,313	70.5004	11,313	69.431	11,313	63.2518	11,313	67.865	11,313	61.2107	11,313	64.4129	11,313	56.1524	11,313	61.7764	11,313	59.6478	11,313	61.0248	11,313	43.6721	11,313	60.477	11,313	52.0164	11,313	58.1076	11,313	56.3192	11,313	54.0722	11,313	43.4472	11,313	36.8378	11,313	42.8741	11,313	44.2427	11,313	43.353
11,712.9	91.4454	11,712.9	89.9638	11,712.9	91.2223	11,712.9	88.5264	11,712.9	90.1783	11,712.9	86.6964	11,712.9	88.3456	11,712.9	83.0672	11,712.9	86.0364	11,712.9	80.0794	11,712.9	82.9861	11,712.9	77.5473	11,712.9	78.7796	11,712.9	72.2549	11,712.9	73.632	11,712.9	67.965	11,712.9	68.7875	11,712.9	63.899	11,712.9	65.5167	11,712.9	60.6178	11,712.9	65.2258	11,712.9	56.3189	11,712.9	59.9371	11,712.9	54.143	11,712.9	58.67	11,712.9	49.8129	11,712.9	58.6179	11,712.9	52.9732	11,712.9	55.418	11,712.9	53.1936	11,712.9	41.9857	11,712.9	52.2714	11,712.9	38.7273	11,712.9	36.8305	11,712.9	52.9532	11,712.9	46.6466
12,126	92.5609	12,126	91.3492	12,126	92.3328	12,126	89.8236	12,126	90.936	12,126	86.9965	12,126	88.8578	12,126	82.9739	12,126	85.6621	12,126	79.9201	12,126	81.942	12,126	76.5569	12,126	74.7275	12,126	71.7516	12,126	70.4941	12,126	66.2023	12,126	63.9955	12,126	60.1522	12,126	59.7597	12,126	58.9796	12,126	60.1372	12,126	56.5207	12,126	55.9144	12,126	52.9673	12,126	52.99	12,126	46.5822	12,126	53.387	12,126	53.2193	12,126	49.9453	12,126	53.2039	12,126	43.1935	12,126	49.8996	12,126	42.0028	12,126	46.3657	12,126	51.682	12,126	37.0973
12,553.7	93.6806	12,553.7	92.307	12,553.7	93.2023	12,553.7	90.5422	12,553.7	91.2513	12,553.7	87.7598	12,553.7	88.7636	12,553.7	82.0848	12,553.7	84.869	12,553.7	78.4934	12,553.7	78.8034	12,553.7	75.6471	12,553.7	69.3991	12,553.7	69.4626	12,553.7	58.959	12,553.7	65.1565	12,553.7	62.4708	12,553.7	59.8098	12,553.7	63.953	12,553.7	52.5256	12,553.7	62.3148	12,553.7	53.5241	12,553.7	61.8309	12,553.7	48.3637	12,553.7	62.2982	12,553.7	46.6055	12,553.7	57.306	12,553.7	51.0232	12,553.7	56.3004	12,553.7	55.6072	12,553.7	49.0535	12,553.7	45.7676	12,553.7	44.137	12,553.7	54.0017	12,553.7	49.4335	12,553.7	50.259
12,996.1	93.7462	12,996.1	92.3635	12,996.1	93.3456	12,996.1	90.731	12,996.1	90.905	12,996.1	87.2121	12,996.1	87.5828	12,996.1	81.4122	12,996.1	83.1992	12,996.1	78.6296	12,996.1	74.4775	12,996.1	74.1671	12,996.1	66.4761	12,996.1	68.9354	12,996.1	70.2165	12,996.1	69.5236	12,996.1	71.3363	12,996.1	66.126	12,996.1	70.3526	12,996.1	63.5241	12,996.1	68.6873	12,996.1	58.8851	12,996.1	66.3401	12,996.1	50.2071	12,996.1	62.917	12,996.1	43.618	12,996.1	58.712	12,996.1	44.028	12,996.1	58.5461	12,996.1	56.3264	12,996.1	53.7827	12,996.1	47.296	12,996.1	48.6443	12,996.1	56.5595	12,996.1	49.4033	12,996.1	50.4306
13,454.6	93.2755	13,454.6	91.7534	13,454.6	93.0055	13,454.6	90.0704	13,454.6	90.4127	13,454.6	85.5999	13,454.6	86.4261	13,454.6	81.9559	13,454.6	82.1538	13,454.6	77.5639	13,454.6	76.3845	13,454.6	72.7585	13,454.6	72.2434	13,454.6	75.1338	13,454.6	75.7973	13,454.6	73.4602	13,454.6	73.2112	13,454.6	69.9085	13,454.6	70.1182	13,454.6	66.495	13,454.6	67.9491	13,454.6	62.1754	13,454.6	66.559	13,454.6	57.3675	13,454.6	62.7879	13,454.6	53.7607	13,454.6	60.4797	13,454.6	46.5098	13,454.6	60.7337	13,454.6	56.0079	13,454.6	51.0488	13,454.6	47.6256	13,454.6	50.8111	13,454.6	59.0208	13,454.6	52.2495	13,454.6	35.5541
13,929.2	92.5153	13,929.2	90.9161	13,929.2	92.1003	13,929.2	88.5676	13,929.2	89.1394	13,929.2	84.1688	13,929.2	85.2116	13,929.2	81.5219	13,929.2	79.548	13,929.2	73.0383	13,929.2	74.4367	13,929.2	74.2249	13,929.2	75.1339	13,929.2	75.3821	13,929.2	74.7663	13,929.2	70.6564	13,929.2	70.4099	13,929.2	68.5276	13,929.2	70.0346	13,929.2	65.0753	13,929.2	66.0156	13,929.2	61.3115	13,929.2	63.0618	13,929.2	55.9323	13,929.2	59.2592	13,929.2	55.4297	13,929.2	61.7351	13,929.2	46.1098	13,929.2	61.079	13,929.2	57.614	13,929.2	43.0107	13,929.2	44.2731	13,929.2	47.2797	13,929.2	62.1119	13,929.2	53.8264	13,929.2	37.7319
14,419.9	90.8678	14,419.9	89.6059	14,419.9	90.2435	14,419.9	86.5334	14,419.9	86.5753	14,419.9	83.6528	14,419.9	81.2787	14,419.9	80.4732	14,419.9	73.9409	14,419.9	71.5457	14,419.9	74.5745	14,419.9	76.5623	14,419.9	77.0226	14,419.9	75.3715	14,419.9	76.9158	14,419.9	73.4011	14,419.9	73.9077	14,419.9	67.1121	14,419.9	71.6428	14,419.9	63.9203	14,419.9	69.1228	14,419.9	60.5039	14,419.9	65.1665	14,419.9	50.8562	14,419.9	63.3903	14,419.9	52.3879	14,419.9	65.4551	14,419.9	34.8854	14,419.9	59.3841	14,419.9	60.5751	14,419.9	51.5417	14,419.9	39.4143	14,419.9	41.2763	14,419.9	63.3962	14,419.9	56.2846	14,419.9	42.7138
14,928.2	89.9368	14,928.2	89.5055	14,928.2	88.3507	14,928.2	86.8496	14,928.2	84.4713	14,928.2	84.0444	14,928.2	78.3206	14,928.2	78.4212	14,928.2	75.0601	14,928.2	72.249	14,928.2	76.6654	14,928.2	73.9037	14,928.2	75.6709	14,928.2	70.8634	14,928.2	76.6777	14,928.2	69.7905	14,928.2	72.9879	14,928.2	64.4164	14,928.2	67.859	14,928.2	61.97	14,928.2	66.583	14,928.2	52.3864	14,928.2	60.5289	14,928.2	55.1487	14,928.2	61.9327	14,928.2	46.9051	14,928.2	60.2931	14,928.2	38.9756	14,928.2	55.0521	14,928.2	57.193	14,928.2	49.6387	14,928.2	47.9995	14,928.2	48.0381	14,928.2	61.783	14,928.2	58.2997	14,928.2	52.4224
15,455.6	90.132	15,455.6	89.5611	15,455.6	87.9322	15,455.6	86.3541	15,455.6	82.8178	15,455.6	81.85	15,455.6	75.1711	15,455.6	70.886	15,455.6	75.204	15,455.6	66.9597	15,455.6	78.2364	15,455.6	70.8097	15,455.6	77.295	15,455.6	74.2427	15,455.6	75.8382	15,455.6	73.5238	15,455.6	71.6397	15,455.6	68.5807	15,455.6	66.6093	15,455.6	64.7232	15,455.6	66.1003	15,455.6	59.6085	15,455.6	61.7628	15,455.6	56.2909	15,455.6	61.11	15,455.6	52.9198	15,455.6	56.4298	15,455.6	50.316	15,455.6	53.2974	15,455.6	57.4353	15,455.6	48.834	15,455.6	53.3857	15,455.6	48.4137	15,455.6	57.0487	15,455.6	55.8277	15,455.6	52.0443
16,000.5	88.9432	16,000.5	88.6425	16,000.5	86.0476	16,000.5	85.2945	16,000.5	80.7957	16,000.5	79.6185	16,000.5	75.8349	16,000.5	66.6967	16,000.5	77.6361	16,000.5	69.0531	16,000.5	77.0628	16,000.5	73.9012	16,000.5	76.182	16,000.5	76.9273	16,000.5	71.8633	16,000.5	75.5595	16,000.5	70.9284	16,000.5	69.6754	16,000.5	65.8554	16,000.5	65.1562	16,000.5	63.1886	16,000.5	61.8562	16,000.5	59.2026	16,000.5	58.3162	16,000.5	58.0829	16,000.5	54.2843	16,000.5	53.2809	16,000.5	50.6255	16,000.5	49.8882	16,000.5	54.2918	16,000.5	39.5731	16,000.5	53.9623	16,000.5	47.6093	16,000.5	52.8012	16,000.5	52.931	16,000.5	51.5373
16,564.5	86.9849	16,564.5	86.5875	16,564.5	83.859	16,564.5	83.2195	16,564.5	79.6806	16,564.5	76.9531	16,564.5	76.898	16,564.5	70.7628	16,564.5	76.8713	16,564.5	72.0183	16,564.5	77.0651	16,564.5	74.7035	16,564.5	72.2287	16,564.5	76.6786	16,564.5	71.1466	16,564.5	74.4965	16,564.5	66.3026	16,564.5	68.6874	16,564.5	59.4797	16,564.5	63.8387	16,564.5	55.2864	16,564.5	61.8149	16,564.5	50.9064	16,564.5	55.6017	16,564.5	55.2828	16,564.5	50.9457	16,564.5	52.4896	16,564.5	47.0091	16,564.5	47.7353	16,564.5	50.597	16,564.5	41.7094	16,564.5	53.0512	16,564.5	39.8222	16,564.5	48.5966	16,564.5	55.3864	16,564.5	49.8363
17,148.9	83.6552	17,148.9	83.2934	17,148.9	81.0961	17,148.9	80.4807	17,148.9	78.3877	17,148.9	74.9505	17,148.9	76.8381	17,148.9	72.5119	17,148.9	76.7654	17,148.9	71.271	17,148.9	75.3145	17,148.9	73.3419	17,148.9	72.2185	17,148.9	73.7779	17,148.9	68.4877	17,148.9	70.2018	17,148.9	65.4945	17,148.9	65.1493	17,148.9	60.2986	17,148.9	59.7284	17,148.9	58.8317	17,148.9	56.212	17,148.9	55.0731	17,148.9	50.0435	17,148.9	54.9003	17,148.9	43.5906	17,148.9	50.9427	17,148.9	43.6333	17,148.9	37.8878	17,148.9	47.4205	17,148.9	45.0493	17,148.9	51.0405	17,148.9	42.0049	17,148.9	41.2578	17,148.9	52.7834	17,148.9	42.6537
17,752.4	80.9508	17,752.4	80.5548	17,752.4	79.475	17,752.4	78.3934	17,752.4	77.7764	17,752.4	74.3746	17,752.4	76.8916	17,752.4	71.6181	17,752.4	75.4705	17,752.4	69.7234	17,752.4	72.3992	17,752.4	69.5782	17,752.4	68.3643	17,752.4	68.1573	17,752.4	63.9147	17,752.4	64.1385	17,752.4	58.5945	17,752.4	60.109	17,752.4	51.7656	17,752.4	54.6463	17,752.4	50.6315	17,752.4	50.1432	17,752.4	45.7249	17,752.4	30.2472	17,752.4	50.801	17,752.4	43.6683	17,752.4	42.5308	17,752.4	41.5353	17,752.4	42.4798	17,752.4	30.3465	17,752.4	39.7731	17,752.4	46.0412	17,752.4	37.8176	17,752.4	42.6907	17,752.4	50.6395	17,752.4	45.0428
18,379.4	79.7892	18,379.4	79.1264	18,379.4	78.6935	18,379.4	76.9834	18,379.4	77.4	18,379.4	73.069	18,379.4	76.1113	18,379.4	69.6562	18,379.4	73.4807	18,379.4	67.0169	18,379.4	69.6491	18,379.4	63.6405	18,379.4	63.0762	18,379.4	62.2902	18,379.4	59.6385	18,379.4	55.5258	18,379.4	51.1621	18,379.4	51.5461	18,379.4	44.804	18,379.4	50.117	18,379.4	39.8309	18,379.4	45.7041	18,379.4	32.503	18,379.4	41.3803	18,379.4	45.535	18,379.4	43.0421	18,379.4	27.2274	18,379.4	40.016	18,379.4	38.5918	18,379.4	38.3531	18,379.4	35.4225	18,379.4	44.2215	18,379.4	43.8072	18,379.4	43.8229	18,379.4	49.762	18,379.4	42.1605
19,026.9	78.7972	19,026.9	77.9331	19,026.9	77.8078	19,026.9	75.8492	19,026.9	77.1871	19,026.9	72.3425	19,026.9	75.5859	19,026.9	68.5042	19,026.9	72.3375	19,026.9	63.7436	19,026.9	66.5406	19,026.9	58.8019	19,026.9	60.1441	19,026.9	52.9282	19,026.9	56.7383	19,026.9	48.0092	19,026.9	53.0664	19,026.9	44.1438	19,026.9	50.0409	19,026.9	43.5358	19,026.9	46.3482	19,026.9	38.6482	19,026.9	41.6129	19,026.9	39.1448	19,026.9	45.5326	19,026.9	27.8265	19,026.9	29.9185	19,026.9	38.5011	19,026.9	36.1211	19,026.9	41.4302	19,026.9	33.8021	19,026.9	41.7475	19,026.9	38.8303	19,026.9	42.5618	19,026.9	46.1476	19,026.9	41.0493
19,697.8	76.8353	19,697.8	75.8212	19,697.8	77.0709	19,697.8	74.5463	19,697.8	76.9986	19,697.8	72.7365	19,697.8	74.3293	19,697.8	67.986	19,697.8	70.1554	19,697.8	61.193	19,697.8	62.0348	19,697.8	54.8822	19,697.8	57.8141	19,697.8	45.1058	19,697.8	59.3602	19,697.8	52.7954	19,697.8	60.4175	19,697.8	47.8907	19,697.8	57.2121	19,697.8	37.2819	19,697.8	53.4872	19,697.8	39.2008	19,697.8	50.8129	19,697.8	44.2468	19,697.8	49.1607	19,697.8	31.7887	19,697.8	34.7304	19,697.8	40.7604	19,697.8	40.3944	19,697.8	44.575	19,697.8	41.1841	19,697.8	45.1189	19,697.8	41.3951	19,697.8	39.1806	19,697.8	37.1596	19,697.8	40.4547
19,999.5	75.8685	19,999.5	74.796	19,999.5	76.7521	19,999.5	73.6108	19,999.5	76.7407	19,999.5	72.7475	19,999.5	73.1961	19,999.5	67.7683	19,999.5	69.077	19,999.5	54.9153	19,999.5	57.8472	19,999.5	53.9324	19,999.5	60.4111	19,999.5	49.1063	19,999.5	62.4275	19,999.5	55.9031	19,999.5	62.1349	19,999.5	48.9192	19,999.5	60.6527	19,999.5	35.0882	19,999.5	54.565	19,999.5	40.7924	19,999.5	52.6212	19,999.5	46.4252	19,999.5	51.7964	19,999.5	22.3852	19,999.5	48.492	19,999.5	24.5963	19,999.5	31.6949	19,999.5	46.4214	19,999.5	43.2901	19,999.5	47.9315	19,999.5	46.5547	19,999.5	34.7165	19,999.5	33.3115	19,999.5	44.3414
