"SPL Horizontal"																																																																							
"On-Axis"		"10°"		"-10°"		"20°"		"-20°"		"30°"		"-30°"		"40°"		"-40°"		"50°"		"-50°"		"60°"		"-60°"		"70°"		"-70°"		"80°"		"-80°"		"90°"		"-90°"		"100°"		"-100°"		"110°"		"-110°"		"120°"		"-120°"		"130°"		"-130°"		"140°"		"-140°"		"150°"		"-150°"		"160°"		"-160°"		"170°"		"-170°"		"180°"	
"Frequency [Hz]"	"Sound Pessure Level [dB]    /  [	2.83	V at 	35	m]"	"Frequency [Hz]"	"Sound Pessure Level [dB]    /  [	2.83	V at 	35	m]"	"Frequency [Hz]"	"Sound Pessure Level [dB]    /  [	2.83	V at 	35	m]"	"Frequency [Hz]"	"Sound Pessure Level [dB]    /  [	2.83	V at 	35	m]"	"Frequency [Hz]"	"Sound Pessure Level [dB]    /  [	2.83	V at 	35	m]"	"Frequency [Hz]"	"Sound Pessure Level [dB]    /  [	2.83	V at 	35	m]"	"Frequency [Hz]"	"Sound Pessure Level [dB]    /  [	2.83	V at 	35	m]"	"Frequency [Hz]"	"Sound Pessure Level [dB]    /  [	2.83	V at 	35	m]"	"Frequency [Hz]"	"Sound Pessure Level [dB]    /  [	2.83	V at 	35	m]"	"Frequency [Hz]"	"Sound Pessure Level [dB]    /  [	2.83	V at 	35	m]"	"Frequency [Hz]"	"Sound Pessure Level [dB]    /  [	2.83	V at 	35	m]"	"Frequency [Hz]"	"Sound Pessure Level [dB]    /  [	2.83	V at 	35	m]"	"Frequency [Hz]"	"Sound Pessure Level [dB]    /  [	2.83	V at 	35	m]"	"Frequency [Hz]"	"Sound Pessure Level [dB]    /  [	2.83	V at 	35	m]"	"Frequency [Hz]"	"Sound Pessure Level [dB]    /  [	2.83	V at 	35	m]"	"Frequency [Hz]"	"Sound Pessure Level [dB]    /  [	2.83	V at 	35	m]"	"Frequency [Hz]"	"Sound Pessure Level [dB]    /  [	2.83	V at 	35	m]"	"Frequency [Hz]"	"Sound Pessure Level [dB]    /  [	2.83	V at 	35	m]"	"Frequency [Hz]"	"Sound Pessure Level [dB]    /  [	2.83	V at 	35	m]"	"Frequency [Hz]"	"Sound Pessure Level [dB]    /  [	2.83	V at 	35	m]"	"Frequency [Hz]"	"Sound Pessure Level [dB]    /  [	2.83	V at 	35	m]"	"Frequency [Hz]"	"Sound Pessure Level [dB]    /  [	2.83	V at 	35	m]"	"Frequency [Hz]"	"Sound Pessure Level [dB]    /  [	2.83	V at 	35	m]"	"Frequency [Hz]"	"Sound Pessure Level [dB]    /  [	2.83	V at 	35	m]"	"Frequency [Hz]"	"Sound Pessure Level [dB]    /  [	2.83	V at 	35	m]"	"Frequency [Hz]"	"Sound Pessure Level [dB]    /  [	2.83	V at 	35	m]"	"Frequency [Hz]"	"Sound Pessure Level [dB]    /  [	2.83	V at 	35	m]"	"Frequency [Hz]"	"Sound Pessure Level [dB]    /  [	2.83	V at 	35	m]"	"Frequency [Hz]"	"Sound Pessure Level [dB]    /  [	2.83	V at 	35	m]"	"Frequency [Hz]"	"Sound Pessure Level [dB]    /  [	2.83	V at 	35	m]"	"Frequency [Hz]"	"Sound Pessure Level [dB]    /  [	2.83	V at 	35	m]"	"Frequency [Hz]"	"Sound Pessure Level [dB]    /  [	2.83	V at 	35	m]"	"Frequency [Hz]"	"Sound Pessure Level [dB]    /  [	2.83	V at 	35	m]"	"Frequency [Hz]"	"Sound Pessure Level [dB]    /  [	2.83	V at 	35	m]"	"Frequency [Hz]"	"Sound Pessure Level [dB]    /  [	2.83	V at 	35	m]"	"Frequency [Hz]"	"Sound Pessure Level [dB]    /  [	2.83	V at 	35	m]"
20.5078	46.2682	20.5078	46.1047	20.5078	46.4223	20.5078	45.94	20.5078	46.5607	20.5078	45.7833	20.5078	46.6792	20.5078	45.6446	20.5078	46.7758	20.5078	45.5339	20.5078	46.8509	20.5078	45.4605	20.5078	46.9068	20.5078	45.4307	20.5078	46.9469	20.5078	45.4474	20.5078	46.9752	20.5078	45.5089	20.5078	46.9951	20.5078	45.6096	20.5078	47.0093	20.5078	45.7411	20.5078	47.0189	20.5078	45.8934	20.5078	47.0235	20.5078	46.057	20.5078	47.0209	20.5078	46.2228	20.5078	47.0077	20.5078	46.3832	20.5078	46.98	20.5078	46.5319	20.5078	46.9338	20.5078	46.6642	20.5078	46.8664	20.5078	46.7763
21.9727	47.6776	21.9727	47.5915	21.9727	47.7625	21.9727	47.5066	21.9727	47.8434	21.9727	47.4248	21.9727	47.9169	21.9727	47.3475	21.9727	47.9796	21.9727	47.2761	21.9727	48.0289	21.9727	47.2118	21.9727	48.0631	21.9727	47.1558	21.9727	48.0819	21.9727	47.1096	21.9727	48.0862	21.9727	47.0745	21.9727	48.0776	21.9727	47.0523	21.9727	48.0577	21.9727	47.0452	21.9727	48.0274	21.9727	47.0552	21.9727	47.9868	21.9727	47.0843	21.9727	47.9349	21.9727	47.1335	21.9727	47.8704	21.9727	47.2024	21.9727	47.7925	21.9727	47.2887	21.9727	47.7017	21.9727	47.3878	21.9727	47.6007	21.9727	47.494
23.4375	41.7133	23.4375	41.6387	23.4375	41.7468	23.4375	41.5276	23.4375	41.7375	23.4375	41.3874	23.4375	41.6874	23.4375	41.2269	23.4375	41.6025	23.4375	41.0556	23.4375	41.4918	23.4375	40.8828	23.4375	41.3662	23.4375	40.7165	23.4375	41.2368	23.4375	40.5632	23.4375	41.1129	23.4375	40.427	23.4375	41.0005	23.4375	40.3107	23.4375	40.9015	23.4375	40.2156	23.4375	40.8137	23.4375	40.1426	23.4375	40.7324	23.4375	40.0927	23.4375	40.6519	23.4375	40.0669	23.4375	40.5679	23.4375	40.0663	23.4375	40.4784	23.4375	40.091	23.4375	40.3852	23.4375	40.1397	23.4375	40.2931	23.4375	40.2089
24.9023	45.3671	24.9023	45.3927	24.9023	45.3282	24.9023	45.4054	24.9023	45.2762	24.9023	45.4054	24.9023	45.2112	24.9023	45.3927	24.9023	45.134	24.9023	45.3671	24.9023	45.0459	24.9023	45.3282	24.9023	44.948	24.9023	45.2751	24.9023	44.8416	24.9023	45.2071	24.9023	44.7283	24.9023	45.1236	24.9023	44.6097	24.9023	45.0244	24.9023	44.4889	24.9023	44.9105	24.9023	44.3698	24.9023	44.784	24.9023	44.258	24.9023	44.6489	24.9023	44.16	24.9023	44.5109	24.9023	44.0826	24.9023	44.3768	24.9023	44.0317	24.9023	44.2542	24.9023	44.0119	24.9023	44.1507	24.9023	44.0257	24.9023	44.0729
26.3672	42.123	26.3672	42.164	26.3672	42.0725	26.3672	42.1949	26.3672	42.0117	26.3672	42.2131	26.3672	41.9387	26.3672	42.2152	26.3672	41.851	26.3672	42.1967	26.3672	41.7464	26.3672	42.1534	26.3672	41.6232	26.3672	42.0818	26.3672	41.4809	26.3672	41.9793	26.3672	41.3203	26.3672	41.8454	26.3672	41.1435	26.3672	41.681	26.3672	40.9547	26.3672	41.4896	26.3672	40.7601	26.3672	41.2767	26.3672	40.5686	26.3672	41.0505	26.3672	40.3912	26.3672	40.8212	26.3672	40.2407	26.3672	40.6011	26.3672	40.1301	26.3672	40.4033	26.3672	40.0703	26.3672	40.2413	26.3672	40.0686	26.3672	40.1268
27.832	46.0619	27.832	46.0663	27.832	46.0314	27.832	46.0441	27.832	45.9754	27.832	45.9951	27.832	45.8943	27.832	45.9196	27.832	45.7885	27.832	45.8185	27.832	45.659	27.832	45.6938	27.832	45.5073	27.832	45.5481	27.832	45.3362	27.832	45.3851	27.832	45.1494	27.832	45.2091	27.832	44.952	27.832	45.0253	27.832	44.7502	27.832	44.8395	27.832	44.5517	27.832	44.6575	27.832	44.3652	27.832	44.4848	27.832	44.2	27.832	44.3261	27.832	44.0648	27.832	44.1859	27.832	43.9664	27.832	44.0681	27.832	43.909	27.832	43.977	27.832	43.8932	27.832	43.9172
29.2969	45.5598	29.2969	45.5016	29.2969	45.6086	29.2969	45.4386	29.2969	45.6441	29.2969	45.3753	29.2969	45.6631	29.2969	45.3165	29.2969	45.6638	29.2969	45.2663	29.2969	45.6459	29.2969	45.2279	29.2969	45.6111	29.2969	45.203	29.2969	45.5622	29.2969	45.1913	29.2969	45.5037	29.2969	45.1909	29.2969	45.4405	29.2969	45.1981	29.2969	45.3776	29.2969	45.2088	29.2969	45.3199	29.2969	45.2193	29.2969	45.2714	29.2969	45.2268	29.2969	45.2346	29.2969	45.2299	29.2969	45.2104	29.2969	45.2285	29.2969	45.198	29.2969	45.2233	29.2969	45.1952	29.2969	45.2155	29.2969	45.1992	29.2969	45.2068
30.7617	46.5564	30.7617	46.5538	30.7617	46.5428	30.7617	46.5379	30.7617	46.5106	30.7617	46.5116	30.7617	46.4586	30.7617	46.4779	30.7617	46.3867	30.7617	46.4399	30.7617	46.2975	30.7617	46.4007	30.7617	46.196	30.7617	46.3632	30.7617	46.09	30.7617	46.3301	30.7617	45.9891	30.7617	46.3037	30.7617	45.9036	30.7617	46.2857	30.7617	45.8426	30.7617	46.2766	30.7617	45.8126	30.7617	46.2753	30.7617	45.8158	30.7617	46.2787	30.7617	45.8498	30.7617	46.2824	30.7617	45.9081	30.7617	46.2806	30.7617	45.9814	30.7617	46.2678	30.7617	46.0595	30.7617	46.2397	30.7617	46.133	30.7617	46.1945
32.2266	47.9225	32.2266	47.9596	32.2266	47.8795	32.2266	47.9924	32.2266	47.8298	32.2266	48.023	32.2266	47.7738	32.2266	48.0537	32.2266	47.7136	32.2266	48.0868	32.2266	47.6533	32.2266	48.1242	32.2266	47.5993	32.2266	48.1674	32.2266	47.559	32.2266	48.2166	32.2266	47.5403	32.2266	48.2713	32.2266	47.5493	32.2266	48.3297	32.2266	47.5894	32.2266	48.3889	32.2266	47.6601	32.2266	48.445	32.2266	47.7574	32.2266	48.4931	32.2266	47.8744	32.2266	48.5279	32.2266	48.0023	32.2266	48.5441	32.2266	48.1318	32.2266	48.5373	32.2266	48.2537	32.2266	48.5046	32.2266	48.3602	32.2266	48.4451
33.6914	49.0512	33.6914	49.0527	33.6914	49.0378	33.6914	49.0413	33.6914	49.0152	33.6914	49.0188	33.6914	48.9884	33.6914	48.989	33.6914	48.9639	33.6914	48.958	33.6914	48.9488	33.6914	48.9337	33.6914	48.9498	33.6914	48.9248	33.6914	48.972	33.6914	48.9399	33.6914	49.018	33.6914	48.985	33.6914	49.0876	33.6914	49.0622	33.6914	49.178	33.6914	49.1687	33.6914	49.2843	33.6914	49.2967	33.6914	49.4003	33.6914	49.4351	33.6914	49.5188	33.6914	49.5706	33.6914	49.6318	33.6914	49.6908	33.6914	49.7309	33.6914	49.7851	33.6914	49.8081	33.6914	49.846	33.6914	49.8562	33.6914	49.8698
35.1562	51.0816	35.1562	51.0613	35.1562	51.0863	35.1562	51.0278	35.1562	51.075	35.1562	50.9854	35.1562	51.0492	35.1562	50.9402	35.1562	51.0125	35.1562	50.8995	35.1562	50.9707	35.1562	50.8719	35.1562	50.9313	35.1562	50.8657	35.1562	50.9031	35.1562	50.8878	35.1562	50.8952	35.1562	50.9425	35.1562	50.9149	35.1562	51.0296	35.1562	50.9666	35.1562	51.1443	35.1562	51.0504	35.1562	51.2776	35.1562	51.1615	35.1562	51.4173	35.1562	51.2909	35.1562	51.5497	35.1562	51.4267	35.1562	51.662	35.1562	51.5559	35.1562	51.7434	35.1562	51.6657	35.1562	51.7863	35.1562	51.7453	35.1562	51.7869
36.6211	50.466	36.6211	50.4589	36.6211	50.4616	36.6211	50.4437	36.6211	50.4463	36.6211	50.4276	36.6211	50.4246	36.6211	50.421	36.6211	50.4045	36.6211	50.4367	36.6211	50.3966	36.6211	50.4878	36.6211	50.4133	36.6211	50.5848	36.6211	50.4667	36.6211	50.7332	36.6211	50.5663	36.6211	50.9314	36.6211	50.7165	36.6211	51.1706	36.6211	50.9154	36.6211	51.4357	36.6211	51.1541	36.6211	51.7081	36.6211	51.4182	36.6211	51.9687	36.6211	51.6899	36.6211	52.1993	36.6211	51.9507	36.6211	52.385	36.6211	52.1831	36.6211	52.5142	36.6211	52.3721	36.6211	52.5792	36.6211	52.5058	36.6211	52.5763
38.0859	52.5677	38.0859	52.5758	38.0859	52.5667	38.0859	52.5938	38.0859	52.5734	38.0859	52.6275	38.0859	52.591	38.0859	52.6843	38.0859	52.6257	38.0859	52.7729	38.0859	52.6856	38.0859	52.9006	38.0859	52.7792	38.0859	53.0719	38.0859	52.9139	38.0859	53.2867	38.0859	53.0937	38.0859	53.5392	38.0859	53.3173	38.0859	53.8189	38.0859	53.5782	38.0859	54.1118	38.0859	53.8647	38.0859	54.4018	38.0859	54.1616	38.0859	54.673	38.0859	54.4525	38.0859	54.9107	38.0859	54.7209	38.0859	55.1025	38.0859	54.9524	38.0859	55.2385	38.0859	55.1348	38.0859	55.3119	38.0859	55.2589	38.0859	55.3188
39.5508	53.837	39.5508	53.848	39.5508	53.8403	39.5508	53.8765	39.5508	53.8584	39.5508	53.9287	39.5508	53.8953	39.5508	54.0129	39.5508	53.9583	39.5508	54.138	39.5508	54.0566	39.5508	54.3114	39.5508	54.1994	39.5508	54.5365	39.5508	54.3938	39.5508	54.8114	39.5508	54.6418	39.5508	55.1279	39.5508	54.939	39.5508	55.4727	39.5508	55.274	39.5508	55.8287	39.5508	55.6308	39.5508	56.1777	39.5508	55.9904	39.5508	56.5018	39.5508	56.3335	39.5508	56.7852	39.5508	56.6428	39.5508	57.0146	39.5508	56.9034	39.5508	57.1799	39.5508	57.1037	39.5508	57.2739	39.5508	57.2352	39.5508	57.2926
41.0156	55.918	41.0156	55.9306	41.0156	55.9236	41.0156	55.9636	41.0156	55.9488	41.0156	56.0225	41.0156	55.9983	41.0156	56.1149	41.0156	56.0793	41.0156	56.2494	41.0156	56.2003	41.0156	56.4327	41.0156	56.3685	41.0156	56.6679	41.0156	56.5881	41.0156	56.9525	41.0156	56.8581	41.0156	57.2777	41.0156	57.1716	41.0156	57.6299	41.0156	57.5163	41.0156	57.9919	41.0156	57.8762	41.0156	58.3455	41.0156	58.2335	41.0156	58.6735	41.0156	58.5706	41.0156	58.9603	41.0156	58.8718	41.0156	59.1934	41.0156	59.1233	41.0156	59.363	41.0156	59.3145	41.0156	59.4623	41.0156	59.4376	41.0156	59.4875
42.4805	58.0281	42.4805	58.0418	42.4805	58.033	42.4805	58.076	42.4805	58.058	42.4805	58.1352	42.4805	58.1069	42.4805	58.226	42.4805	58.186	42.4805	58.3555	42.4805	58.3025	42.4805	58.5297	42.4805	58.4625	42.4805	58.7513	42.4805	58.6698	42.4805	59.0184	42.4805	58.9236	42.4805	59.3237	42.4805	59.218	42.4805	59.6554	42.4805	59.5424	42.4805	59.9979	42.4805	59.8824	42.4805	60.3343	42.4805	60.2215	42.4805	60.6479	42.4805	60.5433	42.4805	60.9234	42.4805	60.8322	42.4805	61.1479	42.4805	61.0749	42.4805	61.3113	42.4805	61.2603	42.4805	61.4066	42.4805	61.3804	42.4805	61.4299
43.9453	59.6875	43.9453	59.6827	43.9453	59.702	43.9453	59.6907	43.9453	59.7273	43.9453	59.7184	43.9453	59.7685	43.9453	59.7757	43.9453	59.8339	43.9453	59.8735	43.9453	59.9331	43.9453	60.0216	43.9453	60.0755	43.9453	60.2255	43.9453	60.2674	43.9453	60.4849	43.9453	60.5105	43.9453	60.7923	43.9453	60.7998	43.9453	61.1342	43.9453	61.1245	43.9453	61.493	43.9453	61.4692	43.9453	61.8491	43.9453	61.8159	43.9453	62.1837	43.9453	62.1461	43.9453	62.4797	43.9453	62.4426	43.9453	62.7228	43.9453	62.6908	43.9453	62.9022	43.9453	62.8787	43.9453	63.0101	43.9453	62.9977	43.9453	63.0422
45.4102	61.3865	45.4102	61.3987	45.4102	61.3859	45.4102	61.4258	45.4102	61.3979	45.4102	61.4748	45.4102	61.4278	45.4102	61.5558	45.4102	61.4843	45.4102	61.6789	45.4102	61.5776	45.4102	61.8528	45.4102	61.7178	45.4102	62.0815	45.4102	61.9115	45.4102	62.3625	45.4102	62.1603	45.4102	62.687	45.4102	62.4592	45.4102	63.0402	45.4102	62.7967	45.4102	63.4041	45.4102	63.1568	45.4102	63.7594	45.4102	63.5208	45.4102	64.088	45.4102	63.8698	45.4102	64.3735	45.4102	64.1861	45.4102	64.6027	45.4102	64.4547	45.4102	64.7655	45.4102	64.6633	45.4102	64.8551	45.4102	64.8029	45.4102	64.8677
46.875	63.0416	46.875	63.0611	46.875	63.034	46.875	63.0945	46.875	63.0406	46.875	63.1476	46.875	63.0676	46.875	63.2288	46.875	63.1242	46.875	63.3477	46.875	63.2209	46.875	63.5128	46.875	63.3674	46.875	63.729	46.875	63.5697	46.875	63.9956	46.875	63.8285	46.875	64.3059	46.875	64.1373	46.875	64.6472	46.875	64.4836	46.875	65.0032	46.875	64.85	46.875	65.3554	46.875	65.2173	46.875	65.6854	46.875	65.5661	46.875	65.9767	46.875	65.8787	46.875	66.2152	46.875	66.1403	46.875	66.3897	46.875	66.3392	46.875	66.4924	46.875	66.467	46.875	66.5187
48.3398	64.5589	48.3398	64.5702	48.3398	64.5544	48.3398	64.59	48.3398	64.5596	48.3398	64.6247	48.3398	64.5819	48.3398	64.684	48.3398	64.6322	48.3398	64.7794	48.3398	64.7228	48.3398	64.922	48.3398	64.865	48.3398	65.119	48.3398	65.0661	48.3398	65.372	48.3398	65.3266	48.3398	65.6755	48.3398	65.6397	48.3398	66.0171	48.3398	65.9915	48.3398	66.3796	48.3398	66.3633	48.3398	66.7431	48.3398	66.7345	48.3398	67.0879	48.3398	67.0849	48.3398	67.3959	48.3398	67.3963	48.3398	67.6518	48.3398	67.6537	48.3398	67.8434	48.3398	67.8454	48.3398	67.9621	48.3398	67.9633	48.3398	68.0027
51.2695	67.3141	51.2695	67.2775	51.2695	67.3713	51.2695	67.2649	51.2695	67.4492	51.2695	67.2827	51.2695	67.5506	51.2695	67.3399	51.2695	67.6802	51.2695	67.4462	51.2695	67.843	51.2695	67.6097	51.2695	68.0429	51.2695	67.8344	51.2695	68.2816	51.2695	68.1182	51.2695	68.5568	51.2695	68.4519	51.2695	68.8624	51.2695	68.8205	51.2695	69.188	51.2695	69.2053	51.2695	69.5209	51.2695	69.5859	51.2695	69.8462	51.2695	69.943	51.2695	70.1492	51.2695	70.2599	51.2695	70.4157	51.2695	70.5229	51.2695	70.6335	51.2695	70.7219	51.2695	70.7923	51.2695	70.8502	51.2695	70.8843	51.2695	70.9045
52.7344	69.1858	52.7344	69.1707	52.7344	69.2163	52.7344	69.1743	52.7344	69.2615	52.7344	69.2026	52.7344	69.3234	52.7344	69.2629	52.7344	69.406	52.7344	69.3629	52.7344	69.5146	52.7344	69.5085	52.7344	69.6542	52.7344	69.7021	52.7344	69.8283	52.7344	69.9416	52.7344	70.0376	52.7344	70.2197	52.7344	70.2791	52.7344	70.5245	52.7344	70.546	52.7344	70.8411	52.7344	70.8282	52.7344	71.1529	52.7344	71.1133	52.7344	71.4438	52.7344	71.3876	52.7344	71.6993	52.7344	71.6374	52.7344	71.907	52.7344	71.85	52.7344	72.0578	52.7344	72.0145	52.7344	72.1454	52.7344	72.1221	52.7344	72.1668
54.1992	70.8604	54.1992	70.8732	54.1992	70.8508	54.1992	70.8909	54.1992	70.8451	54.1992	70.9178	54.1992	70.8471	54.1992	70.9603	54.1992	70.8627	54.1992	71.0255	54.1992	70.8996	54.1992	71.1203	54.1992	70.9655	54.1992	71.2498	54.1992	71.0677	54.1992	71.4159	54.1992	71.2103	54.1992	71.6161	54.1992	71.3937	54.1992	71.8438	54.1992	71.6132	54.1992	72.0882	54.1992	71.8595	54.1992	72.3362	54.1992	72.1195	54.1992	72.5732	54.1992	72.378	54.1992	72.785	54.1992	72.6194	54.1992	72.9587	54.1992	72.8291	54.1992	73.0839	54.1992	72.995	54.1992	73.1528	54.1992	73.1076	54.1992	73.161
55.6641	71.922	55.6641	71.932	55.6641	71.9108	55.6641	71.942	55.6641	71.8999	55.6641	71.9559	55.6641	71.8937	55.6641	71.9801	55.6641	71.8988	55.6641	72.0224	55.6641	71.9237	55.6641	72.0911	55.6641	71.9771	55.6641	72.1932	55.6641	72.0668	55.6641	72.333	55.6641	72.1979	55.6641	72.5106	55.6641	72.371	55.6641	72.7208	55.6641	72.5816	55.6641	72.954	55.6641	72.8201	55.6641	73.1969	55.6641	73.073	55.6641	73.4342	55.6641	73.3246	55.6641	73.6504	55.6641	73.5586	55.6641	73.8316	55.6641	73.7604	55.6641	73.966	55.6641	73.9175	55.6641	74.0452	55.6641	74.0206	55.6641	74.0639
58.5938	74.2388	58.5938	74.2447	58.5938	74.2333	58.5938	74.2524	58.5938	74.2295	58.5938	74.2654	58.5938	74.2309	58.5938	74.2891	58.5938	74.2434	58.5938	74.3304	58.5938	74.274	58.5938	74.3961	58.5938	74.3303	58.5938	74.492	58.5938	74.4186	58.5938	74.6213	58.5938	74.543	58.5938	74.7836	58.5938	74.7034	58.5938	74.9746	58.5938	74.8954	58.5938	75.1855	58.5938	75.1104	58.5938	75.4047	58.5938	75.3362	58.5938	75.619	58.5938	75.5592	58.5938	75.8149	58.5938	75.7654	58.5938	75.9798	58.5938	75.9419	58.5938	76.1036	58.5938	76.0779	58.5938	76.1783	58.5938	76.1654	58.5938	76.1994
60.0586	75.3041	60.0586	75.3067	60.0586	75.3017	60.0586	75.3104	60.0586	75.3006	60.0586	75.3183	60.0586	75.3043	60.0586	75.3354	60.0586	75.318	60.0586	75.3679	60.0586	75.3481	60.0586	75.4226	60.0586	75.4012	60.0586	75.505	60.0586	75.4829	60.0586	75.619	60.0586	75.5969	60.0586	75.7647	60.0586	75.7433	60.0586	75.9384	60.0586	75.9182	60.0586	76.1327	60.0586	76.1139	60.0586	76.3367	60.0586	76.3198	60.0586	76.538	60.0586	76.5233	60.0586	76.7236	60.0586	76.7114	60.0586	76.8815	60.0586	76.8721	60.0586	77.0015	60.0586	76.9951	60.0586	77.076	60.0586	77.0727	60.0586	77.1002
62.9883	77.5399	62.9883	77.5402	62.9883	77.5404	62.9883	77.5422	62.9883	77.5423	62.9883	77.5486	62.9883	77.548	62.9883	77.5634	62.9883	77.5614	62.9883	77.5917	62.9883	77.5872	62.9883	77.6387	62.9883	77.6304	62.9883	77.709	62.9883	77.6958	62.9883	77.8055	62.9883	77.7864	62.9883	77.9284	62.9883	77.903	62.9883	78.0747	62.9883	78.0434	62.9883	78.2381	62.9883	78.2022	62.9883	78.4099	62.9883	78.3713	62.9883	78.5792	62.9883	78.5407	62.9883	78.7352	62.9883	78.6996	62.9883	78.8671	62.9883	78.8374	62.9883	78.9663	62.9883	78.945	62.9883	79.0262	62.9883	79.015	62.9883	79.0427
64.4531	78.6497	64.4531	78.6499	64.4531	78.6494	64.4531	78.6509	64.4531	78.6496	64.4531	78.6553	64.4531	78.6524	64.4531	78.6667	64.4531	78.6613	64.4531	78.69	64.4531	78.6808	64.4531	78.7301	64.4531	78.7156	64.4531	78.7913	64.4531	78.7702	64.4531	78.8765	64.4531	78.8478	64.4531	78.9862	64.4531	78.9497	64.4531	79.1178	64.4531	79.0741	64.4531	79.2659	64.4531	79.2167	64.4531	79.4222	64.4531	79.3702	64.4531	79.577	64.4531	79.5255	64.4531	79.7197	64.4531	79.6725	64.4531	79.8405	64.4531	79.8013	64.4531	79.9309	64.4531	79.9028	64.4531	79.9846	64.4531	79.9699	64.4531	79.9978
67.3828	80.6699	67.3828	80.6736	67.3828	80.6671	67.3828	80.6791	67.3828	80.6658	67.3828	80.6884	67.3828	80.6674	67.3828	80.7046	67.3828	80.6748	67.3828	80.7312	67.3828	80.6915	67.3828	80.772	67.3828	80.7214	67.3828	80.8301	67.3828	80.7682	67.3828	80.9075	67.3828	80.8347	67.3828	81.0043	67.3828	80.9219	67.3828	81.1181	67.3828	81.0288	67.3828	81.2446	67.3828	81.1519	67.3828	81.377	67.3828	81.2852	67.3828	81.5073	67.3828	81.4212	67.3828	81.6268	67.3828	81.5511	67.3828	81.7272	67.3828	81.6661	67.3828	81.8012	67.3828	81.7583	67.3828	81.8431	67.3828	81.8211	67.3828	81.85
68.8477	81.6316	68.8477	81.6404	68.8477	81.6239	68.8477	81.6509	68.8477	81.618	68.8477	81.6646	68.8477	81.6155	68.8477	81.6838	68.8477	81.6191	68.8477	81.7115	68.8477	81.6319	68.8477	81.7509	68.8477	81.6575	68.8477	81.8046	68.8477	81.6992	68.8477	81.8745	68.8477	81.7594	68.8477	81.9608	68.8477	81.839	68.8477	82.0617	68.8477	81.9372	68.8477	82.1737	68.8477	82.0506	68.8477	82.2909	68.8477	82.1741	68.8477	82.4065	68.8477	82.3005	68.8477	82.5126	68.8477	82.4218	68.8477	82.6016	68.8477	82.5298	68.8477	82.6667	68.8477	82.617	68.8477	82.7026	68.8477	82.6772	68.8477	82.7063
71.7773	83.3546	71.7773	83.3611	71.7773	83.3492	71.7773	83.3688	71.7773	83.3452	71.7773	83.379	71.7773	83.3441	71.7773	83.3935	71.7773	83.3479	71.7773	83.4146	71.7773	83.359	71.7773	83.4448	71.7773	83.3802	71.7773	83.4864	71.7773	83.4141	71.7773	83.5412	71.7773	83.4626	71.7773	83.6096	71.7773	83.5268	71.7773	83.6906	71.7773	83.606	71.7773	83.7814	71.7773	83.6979	71.7773	83.8777	71.7773	83.7984	71.7773	83.9736	71.7773	83.9017	71.7773	84.0628	71.7773	84.0013	71.7773	84.1386	71.7773	84.09	71.7773	84.195	71.7773	84.1614	71.7773	84.2273	71.7773	84.2102	71.7773	84.2326
74.707	84.739	74.707	84.7429	74.707	84.7366	74.707	84.7487	74.707	84.7361	74.707	84.7572	74.707	84.7382	74.707	84.7699	74.707	84.7446	74.707	84.7886	74.707	84.757	74.707	84.8154	74.707	84.7777	74.707	84.852	74.707	84.8086	74.707	84.8996	74.707	84.8513	74.707	84.9586	74.707	84.9064	74.707	85.0281	74.707	84.9736	74.707	85.1059	74.707	85.0508	74.707	85.1883	74.707	85.1349	74.707	85.2705	74.707	85.2212	74.707	85.3471	74.707	85.3042	74.707	85.4125	74.707	85.3782	74.707	85.4615	74.707	85.4375	74.707	85.4901	74.707	85.4778	74.707	85.4957
77.6367	85.8017	77.6367	85.8068	77.6367	85.7996	77.6367	85.8149	77.6367	85.8005	77.6367	85.8267	77.6367	85.8053	77.6367	85.8431	77.6367	85.8149	77.6367	85.8653	77.6367	85.8306	77.6367	85.8945	77.6367	85.8537	77.6367	85.9319	77.6367	85.8856	77.6367	85.978	77.6367	85.927	77.6367	86.0328	77.6367	85.9784	77.6367	86.0954	77.6367	86.0391	77.6367	86.1638	77.6367	86.1076	77.6367	86.2351	77.6367	86.1811	77.6367	86.3055	77.6367	86.2559	77.6367	86.3704	77.6367	86.3275	77.6367	86.4254	77.6367	86.3912	77.6367	86.4663	77.6367	86.4425	77.6367	86.4897	77.6367	86.4775	77.6367	86.4936
79.1016	86.2584	79.1016	86.2636	79.1016	86.257	79.1016	86.2727	79.1016	86.2594	79.1016	86.286	79.1016	86.2663	79.1016	86.3043	79.1016	86.2783	79.1016	86.3283	79.1016	86.2965	79.1016	86.359	79.1016	86.3216	79.1016	86.3971	79.1016	86.3547	79.1016	86.4429	79.1016	86.3963	79.1016	86.4961	79.1016	86.4465	79.1016	86.5559	79.1016	86.5046	79.1016	86.6204	79.1016	86.5693	79.1016	86.687	79.1016	86.6379	79.1016	86.7522	79.1016	86.7072	79.1016	86.8121	79.1016	86.7732	79.1016	86.8627	79.1016	86.8318	79.1016	86.9002	79.1016	86.8787	79.1016	86.9218	79.1016	86.9107	79.1016	86.9254
82.0312	87.0332	82.0312	87.0416	82.0312	87.0293	82.0312	87.0544	82.0312	87.0298	82.0312	87.0717	82.0312	87.035	82.0312	87.0939	82.0312	87.0452	82.0312	87.121	82.0312	87.061	82.0312	87.1532	82.0312	87.0827	82.0312	87.1908	82.0312	87.111	82.0312	87.2335	82.0312	87.1461	82.0312	87.281	82.0312	87.1882	82.0312	87.3323	82.0312	87.2368	82.0312	87.386	82.0312	87.2908	82.0312	87.4398	82.0312	87.3486	82.0312	87.4911	82.0312	87.4075	82.0312	87.537	82.0312	87.4647	82.0312	87.5742	82.0312	87.5166	82.0312	87.6	82.0312	87.5598	82.0312	87.6121	82.0312	87.5915	82.0312	87.6092
84.9609	87.5009	84.9609	87.5117	84.9609	87.4958	84.9609	87.528	84.9609	87.4967	84.9609	87.5496	84.9609	87.5038	84.9609	87.576	84.9609	87.5172	84.9609	87.6071	84.9609	87.5371	84.9609	87.6426	84.9609	87.5635	84.9609	87.6824	84.9609	87.5964	84.9609	87.726	84.9609	87.6358	84.9609	87.773	84.9609	87.6811	84.9609	87.8226	84.9609	87.7318	84.9609	87.8737	84.9609	87.7866	84.9609	87.9245	84.9609	87.8438	84.9609	87.9729	84.9609	87.9011	84.9609	88.0163	84.9609	87.9557	84.9609	88.052	84.9609	88.0047	84.9609	88.0772	84.9609	88.0448	84.9609	88.0899	84.9609	88.0734	84.9609	88.0888
87.8906	87.8295	87.8906	87.8298	87.8906	87.8378	87.8906	87.8387	87.8906	87.8544	87.8906	87.856	87.8906	87.8789	87.8906	87.8814	87.8906	87.9104	87.8906	87.9141	87.8906	87.9482	87.8906	87.9535	87.8906	87.9914	87.8906	87.9985	87.8906	88.039	87.8906	88.0482	87.8906	88.0899	87.8906	88.1013	87.8906	88.1431	87.8906	88.1566	87.8906	88.1973	87.8906	88.2126	87.8906	88.2511	87.8906	88.2675	87.8906	88.303	87.8906	88.3196	87.8906	88.3511	87.8906	88.3668	87.8906	88.3935	87.8906	88.4071	87.8906	88.4282	87.8906	88.4387	87.8906	88.4533	87.8906	88.46	87.8906	88.4674	87.8906	88.4697
90.8203	88.2054	90.8203	88.2104	90.8203	88.2058	90.8203	88.2208	90.8203	88.2116	90.8203	88.2364	90.8203	88.2222	90.8203	88.2567	90.8203	88.2371	90.8203	88.2809	90.8203	88.2557	90.8203	88.3082	90.8203	88.2772	90.8203	88.3378	90.8203	88.3009	90.8203	88.3686	90.8203	88.3261	90.8203	88.3998	90.8203	88.3523	90.8203	88.4303	90.8203	88.3789	90.8203	88.4592	90.8203	88.4056	90.8203	88.4855	90.8203	88.432	90.8203	88.5083	90.8203	88.4574	90.8203	88.5268	90.8203	88.4814	90.8203	88.5403	90.8203	88.5031	90.8203	88.548	90.8203	88.5217	90.8203	88.5499	90.8203	88.5362	90.8203	88.5458
95.2148	88.5062	95.2148	88.521	95.2148	88.4966	95.2148	88.5405	95.2148	88.4923	95.2148	88.5638	95.2148	88.493	95.2148	88.59	95.2148	88.4981	95.2148	88.6176	95.2148	88.507	95.2148	88.6452	95.2148	88.5187	95.2148	88.6715	95.2148	88.5325	95.2148	88.6952	95.2148	88.5478	95.2148	88.7155	95.2148	88.5639	95.2148	88.7316	95.2148	88.5805	95.2148	88.7433	95.2148	88.5975	95.2148	88.7504	95.2148	88.6146	95.2148	88.7531	95.2148	88.6318	95.2148	88.7519	95.2148	88.6491	95.2148	88.7469	95.2148	88.6664	95.2148	88.7387	95.2148	88.6833	95.2148	88.7278	95.2148	88.6995	95.2148	88.7145
98.1445	88.6038	98.1445	88.6125	98.1445	88.6002	98.1445	88.6259	98.1445	88.6015	98.1445	88.6433	98.1445	88.6074	98.1445	88.6637	98.1445	88.6172	98.1445	88.6859	98.1445	88.63	98.1445	88.7087	98.1445	88.6449	98.1445	88.7309	98.1445	88.6608	98.1445	88.7513	98.1445	88.6769	98.1445	88.7691	98.1445	88.6927	98.1445	88.7838	98.1445	88.7077	98.1445	88.7951	98.1445	88.7218	98.1445	88.8031	98.1445	88.735	98.1445	88.8081	98.1445	88.7474	98.1445	88.8103	98.1445	88.759	98.1445	88.81	98.1445	88.7699	98.1445	88.8076	98.1445	88.7799	98.1445	88.8031	98.1445	88.789	98.1445	88.7968
101.074	88.5581	101.074	88.5635	101.074	88.5603	101.074	88.5759	101.074	88.57	101.074	88.5946	101.074	88.5866	101.074	88.6186	101.074	88.6093	101.074	88.6463	101.074	88.6371	101.074	88.6762	101.074	88.6686	101.074	88.7068	101.074	88.7022	101.074	88.7369	101.074	88.7366	101.074	88.7653	101.074	88.7703	101.074	88.7913	101.074	88.802	101.074	88.8147	101.074	88.8307	101.074	88.8354	101.074	88.8554	101.074	88.8536	101.074	88.8757	101.074	88.8694	101.074	88.8913	101.074	88.8829	101.074	88.9021	101.074	88.8941	101.074	88.9083	101.074	88.9026	101.074	88.9101	101.074	88.9081
105.469	88.6931	105.469	88.6975	105.469	88.6961	105.469	88.7088	105.469	88.7063	105.469	88.7261	105.469	88.7229	105.469	88.748	105.469	88.7448	105.469	88.7728	105.469	88.7703	105.469	88.7986	105.469	88.7975	105.469	88.8236	105.469	88.8244	105.469	88.8461	105.469	88.8493	105.469	88.8649	105.469	88.8707	105.469	88.8791	105.469	88.8874	105.469	88.8886	105.469	88.8991	105.469	88.8937	105.469	88.9057	105.469	88.8953	105.469	88.9078	105.469	88.8946	105.469	88.9065	105.469	88.8929	105.469	88.9031	105.469	88.8912	105.469	88.8987	105.469	88.8907	105.469	88.8947	105.469	88.8919
108.398	88.7702	108.398	88.7769	108.398	88.771	108.398	88.7907	108.398	88.7791	108.398	88.8107	108.398	88.7933	108.398	88.8354	108.398	88.8124	108.398	88.8629	108.398	88.8346	108.398	88.8911	108.398	88.8581	108.398	88.9179	108.398	88.8811	108.398	88.9417	108.398	88.902	108.398	88.961	108.398	88.9197	108.398	88.9751	108.398	88.9333	108.398	88.9835	108.398	88.9426	108.398	88.9866	108.398	88.9479	108.398	88.985	108.398	88.9499	108.398	88.9799	108.398	88.9498	108.398	88.9727	108.398	88.9488	108.398	88.9649	108.398	88.9483	108.398	88.9577	108.398	88.9492	108.398	88.9524
112.793	88.8574	112.793	88.8641	112.793	88.8591	112.793	88.8787	112.793	88.869	112.793	88.9001	112.793	88.886	112.793	88.9268	112.793	88.9087	112.793	88.9567	112.793	88.9352	112.793	88.9875	112.793	88.9633	112.793	89.0169	112.793	88.9908	112.793	89.0429	112.793	89.0155	112.793	89.0639	112.793	89.0359	112.793	89.0787	112.793	89.0507	112.793	89.0867	112.793	89.0594	112.793	89.0883	112.793	89.0624	112.793	89.0843	112.793	89.0605	112.793	89.0762	112.793	89.0556	112.793	89.0661	112.793	89.0495	112.793	89.056	112.793	89.0444	112.793	89.0478	112.793	89.0418	112.793	89.0429
117.188	88.952	117.188	88.9597	117.188	88.9515	117.188	88.9743	117.188	88.9579	117.188	88.9946	117.188	88.9703	117.188	89.0193	117.188	88.9874	117.188	89.0464	117.188	89.0074	117.188	89.0736	117.188	89.0282	117.188	89.0987	117.188	89.0477	117.188	89.1195	117.188	89.064	117.188	89.1343	117.188	89.0758	117.188	89.1418	117.188	89.0821	117.188	89.1418	117.188	89.0829	117.188	89.1346	117.188	89.0788	117.188	89.1217	117.188	89.0713	117.188	89.1051	117.188	89.0621	117.188	89.0872	117.188	89.0534	117.188	89.0704	117.188	89.0472	117.188	89.057	117.188	89.0451	117.188	89.0483
120.117	88.9731	120.117	88.9827	120.117	88.9696	120.117	88.9982	120.117	88.9719	120.117	89.0187	120.117	88.9792	120.117	89.0426	120.117	88.9901	120.117	89.0682	120.117	89.0031	120.117	89.0931	120.117	89.0162	120.117	89.1152	120.117	89.0278	120.117	89.1326	120.117	89.0364	120.117	89.1434	120.117	89.0409	120.117	89.1467	120.117	89.0408	120.117	89.1421	120.117	89.0364	120.117	89.1303	120.117	89.0285	120.117	89.1124	120.117	89.0188	120.117	89.0905	120.117	89.0091	120.117	89.0668	120.117	89.0017	120.117	89.044	120.117	88.9985	120.117	89.0243	120.117	89.0009	120.117	89.0096
124.512	89.0873	124.512	89.0922	124.512	89.0905	124.512	89.1045	124.512	89.1012	124.512	89.1232	124.512	89.1183	124.512	89.1464	124.512	89.14	124.512	89.1718	124.512	89.1639	124.512	89.1967	124.512	89.1875	124.512	89.2185	124.512	89.2081	124.512	89.2351	124.512	89.2235	124.512	89.2446	124.512	89.2318	124.512	89.2459	124.512	89.232	124.512	89.239	124.512	89.2242	124.512	89.2246	124.512	89.2094	124.512	89.2045	124.512	89.1896	124.512	89.1813	124.512	89.1676	124.512	89.1581	124.512	89.1465	124.512	89.1379	124.512	89.1295	124.512	89.1235	124.512	89.1191	124.512	89.117
128.906	89.2024	128.906	89.2053	128.906	89.2057	128.906	89.2142	128.906	89.2149	128.906	89.2281	128.906	89.2291	128.906	89.2455	128.906	89.2467	128.906	89.2648	128.906	89.2656	128.906	89.2838	128.906	89.2837	128.906	89.3004	128.906	89.2984	128.906	89.3125	128.906	89.3078	128.906	89.3185	128.906	89.3103	128.906	89.3172	128.906	89.3051	128.906	89.3082	128.906	89.2926	128.906	89.2922	128.906	89.274	128.906	89.2708	128.906	89.2515	128.906	89.2462	128.906	89.2277	128.906	89.2217	128.906	89.2057	128.906	89.2002	128.906	89.1886	128.906	89.1847	128.906	89.1786	128.906	89.1772
133.301	89.1814	133.301	89.1964	133.301	89.1753	133.301	89.2193	133.301	89.1783	133.301	89.2482	133.301	89.1896	133.301	89.2805	133.301	89.2075	133.301	89.3136	133.301	89.2298	133.301	89.3446	133.301	89.2538	133.301	89.3709	133.301	89.2767	133.301	89.3902	133.301	89.2961	133.301	89.4012	133.301	89.31	133.301	89.403	133.301	89.317	133.301	89.3958	133.301	89.317	133.301	89.3807	133.301	89.3106	133.301	89.3596	133.301	89.2994	133.301	89.3351	133.301	89.2858	133.301	89.3101	133.301	89.2725	133.301	89.2877	133.301	89.2624	133.301	89.2705	133.301	89.2578	133.301	89.2603
139.16	89.3688	139.16	89.3721	139.16	89.372	139.16	89.3817	139.16	89.3813	139.16	89.3964	139.16	89.3958	139.16	89.4146	139.16	89.4137	139.16	89.4344	139.16	89.4327	139.16	89.4533	139.16	89.4503	139.16	89.469	139.16	89.4641	139.16	89.4793	139.16	89.4719	139.16	89.4824	139.16	89.472	139.16	89.4773	139.16	89.4639	139.16	89.4639	139.16	89.4477	139.16	89.4429	139.16	89.4249	139.16	89.4163	139.16	89.3978	139.16	89.387	139.16	89.3695	139.16	89.3582	139.16	89.3434	139.16	89.3336	139.16	89.3228	139.16	89.3161	139.16	89.3104	139.16	89.3081
143.555	89.4089	143.555	89.4112	143.555	89.4122	143.555	89.4189	143.555	89.4206	143.555	89.4311	143.555	89.4332	143.555	89.4463	143.555	89.4482	143.555	89.4628	143.555	89.4636	143.555	89.4783	143.555	89.4773	143.555	89.4908	143.555	89.4868	143.555	89.4979	143.555	89.4902	143.555	89.4981	143.555	89.486	143.555	89.4902	143.555	89.4737	143.555	89.4739	143.555	89.4534	143.555	89.4501	143.555	89.4268	143.555	89.4207	143.555	89.3962	143.555	89.3884	143.555	89.3649	143.555	89.3568	143.555	89.3365	143.555	89.3295	143.555	89.3146	143.555	89.3099	143.555	89.3019	143.555	89.3003
147.949	89.4859	147.949	89.4923	147.949	89.4842	147.949	89.5029	147.949	89.4872	147.949	89.5165	147.949	89.4942	147.949	89.5317	147.949	89.504	147.949	89.5466	147.949	89.5147	147.949	89.5592	147.949	89.5241	147.949	89.5675	147.949	89.53	147.949	89.5696	147.949	89.5303	147.949	89.5643	147.949	89.5234	147.949	89.5507	147.949	89.5085	147.949	89.5289	147.949	89.486	147.949	89.4999	147.949	89.4573	147.949	89.4658	147.949	89.4249	147.949	89.4293	147.949	89.3923	147.949	89.394	147.949	89.3631	147.949	89.3635	147.949	89.3412	147.949	89.341	147.949	89.3293	147.949	89.3292
153.809	89.4178	153.809	89.4252	153.809	89.4154	153.809	89.4367	153.809	89.4183	153.809	89.4506	153.809	89.426	153.809	89.465	153.809	89.4372	153.809	89.4776	153.809	89.4499	153.809	89.4863	153.809	89.4619	153.809	89.4893	153.809	89.4705	153.809	89.4851	153.809	89.4735	153.809	89.4729	153.809	89.4691	153.809	89.4527	153.809	89.4563	153.809	89.4253	153.809	89.435	153.809	89.3924	153.809	89.4065	153.809	89.3567	153.809	89.3728	153.809	89.3212	153.809	89.3372	153.809	89.2894	153.809	89.3032	153.809	89.2646	153.809	89.2747	153.809	89.2497	153.809	89.255	153.809	89.2463
159.668	89.4497	159.668	89.4518	159.668	89.4517	159.668	89.458	159.668	89.4575	159.668	89.4677	159.668	89.4663	159.668	89.4797	159.668	89.4767	159.668	89.4923	159.668	89.4874	159.668	89.5031	159.668	89.4966	159.668	89.5098	159.668	89.5024	159.668	89.51	159.668	89.5029	159.668	89.502	159.668	89.4965	159.668	89.4849	159.668	89.4822	159.668	89.4591	159.668	89.4602	159.668	89.4262	159.668	89.4312	159.668	89.3892	159.668	89.3976	159.668	89.3518	159.668	89.3621	159.668	89.318	159.668	89.3284	159.668	89.2917	159.668	89.3001	159.668	89.2758	159.668	89.2805	159.668	89.2719
165.527	89.5264	165.527	89.5284	165.527	89.5271	165.527	89.5329	165.527	89.5305	165.527	89.5393	165.527	89.536	165.527	89.5464	165.527	89.5425	165.527	89.5529	165.527	89.5485	165.527	89.5569	165.527	89.5523	165.527	89.5567	165.527	89.552	165.527	89.5505	165.527	89.5461	165.527	89.537	165.527	89.5331	165.527	89.5157	165.527	89.5126	165.527	89.4871	165.527	89.485	165.527	89.4527	165.527	89.4516	165.527	89.4152	165.527	89.4147	165.527	89.3776	165.527	89.3777	165.527	89.3436	165.527	89.3438	165.527	89.3165	165.527	89.3167	165.527	89.2991	165.527	89.2992	165.527	89.2931
171.387	89.4269	171.387	89.4325	171.387	89.4237	171.387	89.4401	171.387	89.4229	171.387	89.4488	171.387	89.424	171.387	89.4576	171.387	89.4263	171.387	89.4652	171.387	89.4283	171.387	89.4699	171.387	89.4282	171.387	89.4699	171.387	89.4244	171.387	89.4638	171.387	89.4149	171.387	89.45	171.387	89.3987	171.387	89.4281	171.387	89.3752	171.387	89.3983	171.387	89.3449	171.387	89.3617	171.387	89.3094	171.387	89.3206	171.387	89.2712	171.387	89.278	171.387	89.2338	171.387	89.2375	171.387	89.2011	171.387	89.2028	171.387	89.1768	171.387	89.1774	171.387	89.1638	171.387	89.164
177.246	89.3108	177.246	89.3186	177.246	89.3047	177.246	89.3273	177.246	89.3005	177.246	89.3364	177.246	89.2984	177.246	89.3449	177.246	89.298	177.246	89.3519	177.246	89.2983	177.246	89.3561	177.246	89.298	177.246	89.3562	177.246	89.2952	177.246	89.3506	177.246	89.288	177.246	89.3382	177.246	89.2745	177.246	89.318	177.246	89.2536	177.246	89.2899	177.246	89.2251	177.246	89.2545	177.246	89.1902	177.246	89.2137	177.246	89.1514	177.246	89.1701	177.246	89.1126	177.246	89.1272	177.246	89.0784	177.246	89.0891	177.246	89.0534	177.246	89.06	177.246	89.041	177.246	89.0433
183.105	89.1678	183.105	89.1776	183.105	89.1581	183.105	89.1867	183.105	89.1495	183.105	89.194	183.105	89.1424	183.105	89.1986	183.105	89.1371	183.105	89.1999	183.105	89.1333	183.105	89.1971	183.105	89.13	183.105	89.1899	183.105	89.1258	183.105	89.178	183.105	89.1191	183.105	89.1614	183.105	89.1083	183.105	89.14	183.105	89.092	183.105	89.114	183.105	89.0701	183.105	89.0838	183.105	89.0431	183.105	89.0507	183.105	89.0129	183.105	89.0163	183.105	88.9823	183.105	88.9833	183.105	88.9549	183.105	88.9547	183.105	88.934	183.105	88.9335	183.105	88.9226	183.105	88.9224
188.965	89.0919	188.965	89.1016	188.965	89.0811	188.965	89.1095	188.965	89.07	188.965	89.1145	188.965	89.0587	188.965	89.1154	188.965	89.0472	188.965	89.111	188.965	89.035	188.965	89.1002	188.965	89.0213	188.965	89.0823	188.965	89.0051	188.965	89.0576	188.965	88.9856	188.965	89.027	188.965	88.9622	188.965	88.9923	188.965	88.9349	188.965	88.9553	188.965	88.9046	188.965	88.9178	188.965	88.8726	188.965	88.8815	188.965	88.8409	188.965	88.8476	188.965	88.8119	188.965	88.8174	188.965	88.7879	188.965	88.7924	188.965	88.771	188.965	88.774	188.965	88.7628	188.965	88.7639
196.289	89.0814	196.289	89.089	196.289	89.0703	196.289	89.0934	196.289	89.0554	196.289	89.0946	196.289	89.0368	196.289	89.0924	196.289	89.0146	196.289	89.0864	196.289	88.9891	196.289	89.0754	196.289	88.9607	196.289	89.0584	196.289	88.9299	196.289	89.0343	196.289	88.8969	196.289	89.0026	196.289	88.8623	196.289	88.9636	196.289	88.8266	196.289	88.9183	196.289	88.7905	196.289	88.869	196.289	88.7551	196.289	88.8183	196.289	88.7215	196.289	88.7694	196.289	88.6915	196.289	88.7254	196.289	88.6672	196.289	88.6892	196.289	88.6506	196.289	88.6628	196.289	88.6436	196.289	88.6474
203.613	88.938	203.613	88.9344	203.613	88.9352	203.613	88.9248	203.613	88.9258	203.613	88.9099	203.613	88.9101	203.613	88.8903	203.613	88.8883	203.613	88.8662	203.613	88.8608	203.613	88.8376	203.613	88.8279	203.613	88.8043	203.613	88.7902	203.613	88.766	203.613	88.7483	203.613	88.7228	203.613	88.7029	203.613	88.6753	203.613	88.6549	203.613	88.625	203.613	88.6052	203.613	88.5738	203.613	88.5552	203.613	88.524	203.613	88.5066	203.613	88.478	203.613	88.462	203.613	88.4381	203.613	88.4241	203.613	88.4065	203.613	88.3958	203.613	88.3851	203.613	88.3793	203.613	88.3757
210.938	88.7793	210.938	88.784	210.938	88.7699	210.938	88.7839	210.938	88.7565	210.938	88.7788	210.938	88.7396	210.938	88.7687	210.938	88.7199	210.938	88.7533	210.938	88.6975	210.938	88.7318	210.938	88.6719	210.938	88.7029	210.938	88.6424	210.938	88.6655	210.938	88.6083	210.938	88.6189	210.938	88.5692	210.938	88.5637	210.938	88.5252	210.938	88.502	210.938	88.4773	210.938	88.4371	210.938	88.427	210.938	88.3736	210.938	88.3762	210.938	88.316	210.938	88.3275	210.938	88.2684	210.938	88.2837	210.938	88.234	210.938	88.2478	210.938	88.2147	210.938	88.2228	210.938	88.2112
218.262	88.6807	218.262	88.6889	218.262	88.6684	218.262	88.6926	218.262	88.6527	218.262	88.6915	218.262	88.6338	218.262	88.6852	218.262	88.6118	218.262	88.6736	218.262	88.5866	218.262	88.6563	218.262	88.558	218.262	88.6328	218.262	88.5259	218.262	88.6023	218.262	88.4909	218.262	88.5643	218.262	88.454	218.262	88.5191	218.262	88.4168	218.262	88.4682	218.262	88.3808	218.262	88.4148	218.262	88.3471	218.262	88.3629	218.262	88.3168	218.262	88.317	218.262	88.2904	218.262	88.2805	218.262	88.2684	218.262	88.2551	218.262	88.2516	218.262	88.2408	218.262	88.2406	218.262	88.2365
225.586	88.6076	225.586	88.61	225.586	88.6008	225.586	88.6076	225.586	88.5891	225.586	88.6003	225.586	88.5719	225.586	88.5878	225.586	88.5482	225.586	88.5701	225.586	88.5172	225.586	88.5474	225.586	88.4791	225.586	88.5197	225.586	88.4352	225.586	88.4873	225.586	88.3876	225.586	88.45	225.586	88.3391	225.586	88.4081	225.586	88.2922	225.586	88.3624	225.586	88.2488	225.586	88.3145	225.586	88.2102	225.586	88.2667	225.586	88.177	225.586	88.2216	225.586	88.1496	225.586	88.182	225.586	88.1287	225.586	88.1501	225.586	88.1152	225.586	88.1271	225.586	88.1099	225.586	88.1137
232.91	88.4801	232.91	88.4757	232.91	88.4752	232.91	88.4621	232.91	88.4618	232.91	88.4404	232.91	88.441	232.91	88.4124	232.91	88.4138	232.91	88.3803	232.91	88.3808	232.91	88.3461	232.91	88.3422	232.91	88.311	232.91	88.2983	232.91	88.2754	232.91	88.2505	232.91	88.2395	232.91	88.201	232.91	88.2038	232.91	88.1529	232.91	88.1691	232.91	88.1096	232.91	88.1369	232.91	88.0738	232.91	88.109	232.91	88.0477	232.91	88.0868	232.91	88.0318	232.91	88.0702	232.91	88.0255	232.91	88.0583	232.91	88.0266	232.91	88.0489	232.91	88.0325	232.91	88.0404
241.699	88.3231	241.699	88.3307	241.699	88.3071	241.699	88.3292	241.699	88.2838	241.699	88.3192	241.699	88.2549	241.699	88.3019	241.699	88.2219	241.699	88.279	241.699	88.1861	241.699	88.2526	241.699	88.1483	241.699	88.2241	241.699	88.109	241.699	88.1947	241.699	88.0687	241.699	88.1651	241.699	88.0283	241.699	88.1361	241.699	87.9896	241.699	88.1088	241.699	87.9546	241.699	88.0843	241.699	87.9258	241.699	88.0634	241.699	87.9061	241.699	88.0458	241.699	87.8976	241.699	88.0297	241.699	87.9013	241.699	88.0121	241.699	87.9165	241.699	87.991	241.699	87.9396	241.699	87.9659
250.488	88.2042	250.488	88.2061	250.488	88.182	250.488	88.1904	250.488	88.1395	250.488	88.1603	250.488	88.0794	250.488	88.1192	250.488	88.0061	250.488	88.0691	250.488	87.9248	250.488	88.0107	250.488	87.8396	250.488	87.9448	250.488	87.7536	250.488	87.8722	250.488	87.6695	250.488	87.7952	250.488	87.5916	250.488	87.717	250.488	87.5252	250.488	87.6419	250.488	87.476	250.488	87.5751	250.488	87.4469	250.488	87.5218	250.488	87.4369	250.488	87.4856	250.488	87.4409	250.488	87.4671	250.488	87.4518	250.488	87.4626	250.488	87.4629	250.488	87.4658	250.488	87.4694	250.488	87.4697
259.277	88.3248	259.277	88.32	259.277	88.3133	259.277	88.3012	259.277	88.2843	259.277	88.2708	259.277	88.2384	259.277	88.2309	259.277	88.1788	259.277	88.1835	259.277	88.1103	259.277	88.1303	259.277	88.038	259.277	88.0729	259.277	87.9656	259.277	88.0131	259.277	87.8949	259.277	87.953	259.277	87.8266	259.277	87.8952	259.277	87.7617	259.277	87.8423	259.277	87.7032	259.277	87.7957	259.277	87.6553	259.277	87.7556	259.277	87.6214	259.277	87.7212	259.277	87.6031	259.277	87.6918	259.277	87.5983	259.277	87.6668	259.277	87.6033	259.277	87.6459	259.277	87.6142	259.277	87.6285
268.066	88.2054	268.066	88.1591	268.066	88.2251	268.066	88.094	268.066	88.2137	268.066	88.0198	268.066	88.1707	268.066	87.9465	268.066	88.1004	268.066	87.8833	268.066	88.0105	268.066	87.8358	268.066	87.9106	268.066	87.8049	268.066	87.8083	268.066	87.7867	268.066	87.7081	268.066	87.7735	268.066	87.6111	268.066	87.7565	268.066	87.5183	268.066	87.7297	268.066	87.4334	268.066	87.6913	268.066	87.3632	268.066	87.6443	268.066	87.3151	268.066	87.5939	268.066	87.2937	268.066	87.5446	268.066	87.2985	268.066	87.4977	268.066	87.3242	268.066	87.4524	268.066	87.3628	268.066	87.4071
276.855	88.1814	276.855	88.1791	276.855	88.1694	276.855	88.1574	276.855	88.1436	276.855	88.1097	276.855	88.0999	276.855	88.0316	276.855	88.0328	276.855	87.9244	276.855	87.9408	276.855	87.7959	276.855	87.8306	276.855	87.6604	276.855	87.7174	276.855	87.5346	276.855	87.6196	276.855	87.4333	276.855	87.5505	276.855	87.3641	276.855	87.5126	276.855	87.3256	276.855	87.4974	276.855	87.3076	276.855	87.4909	276.855	87.297	276.855	87.4798	276.855	87.2843	276.855	87.4556	276.855	87.268	276.855	87.4163	276.855	87.255	276.855	87.3664	276.855	87.2553	276.855	87.3158	276.855	87.2759
287.109	88.3234	287.109	88.3809	287.109	88.2522	287.109	88.4153	287.109	88.1772	287.109	88.4197	287.109	88.1056	287.109	88.3899	287.109	88.0379	287.109	88.3235	287.109	87.9666	287.109	88.2203	287.109	87.8804	287.109	88.0827	287.109	87.7705	287.109	87.9178	287.109	87.6368	287.109	87.7394	287.109	87.4897	287.109	87.5687	287.109	87.347	287.109	87.4309	287.109	87.2288	287.109	87.3456	287.109	87.1507	287.109	87.3174	287.109	87.1197	287.109	87.3324	287.109	87.1329	287.109	87.3648	287.109	87.1788	287.109	87.3891	287.109	87.2422	287.109	87.3889	287.109	87.3073	287.109	87.3599
297.363	88.0342	297.363	87.9521	297.363	88.0832	297.363	87.8536	297.363	88.0922	297.363	87.7611	297.363	88.0628	297.363	87.6961	297.363	88.0007	297.363	87.6719	297.363	87.9103	297.363	87.6901	297.363	87.7945	297.363	87.7401	297.363	87.6587	297.363	87.802	297.363	87.5153	297.363	87.8521	297.363	87.3829	297.363	87.8689	297.363	87.2773	297.363	87.8396	297.363	87.202	297.363	87.7636	297.363	87.1462	297.363	87.651	297.363	87.0949	297.363	87.5164	297.363	87.0404	297.363	87.374	297.363	86.9895	297.363	87.2351	297.363	86.9588	297.363	87.1118	297.363	86.9656	297.363	87.0179
307.617	88.3629	307.617	88.3674	307.617	88.3057	307.617	88.312	307.617	88.2091	307.617	88.1981	307.617	88.0908	307.617	88.0364	307.617	87.9698	307.617	87.8455	307.617	87.8613	307.617	87.6481	307.617	87.7699	307.617	87.4673	307.617	87.6863	307.617	87.3228	307.617	87.5937	307.617	87.2274	307.617	87.4812	307.617	87.1832	307.617	87.355	307.617	87.1818	307.617	87.2393	307.617	87.2104	307.617	87.1656	307.617	87.2596	307.617	87.156	307.617	87.3249	307.617	87.2115	307.617	87.4019	307.617	87.3119	307.617	87.4789	307.617	87.4233	307.617	87.5356	307.617	87.5107	307.617	87.5501
319.336	88.0078	319.336	88.0297	319.336	87.9672	319.336	88.0314	319.336	87.9058	319.336	88.0065	319.336	87.8223	319.336	87.9455	319.336	87.7206	319.336	87.8403	319.336	87.6108	319.336	87.6888	319.336	87.5062	319.336	87.4988	319.336	87.4157	319.336	87.2898	319.336	87.3394	319.336	87.092	319.336	87.2703	319.336	86.9382	319.336	87.2027	319.336	86.8534	319.336	87.1392	319.336	86.8454	319.336	87.0924	319.336	86.9041	319.336	87.0779	319.336	87.0073	319.336	87.1044	319.336	87.1278	319.336	87.1662	319.336	87.2377	319.336	87.2434	319.336	87.3124	319.336	87.3086	319.336	87.3364
329.59	88.0215	329.59	88.0102	329.59	88.0165	329.59	87.9922	329.59	87.9827	329.59	87.9697	329.59	87.909	329.59	87.9364	329.59	87.7908	329.59	87.8808	329.59	87.6331	329.59	87.7923	329.59	87.4516	329.59	87.6664	329.59	87.2702	329.59	87.5066	329.59	87.1136	329.59	87.3258	329.59	86.9971	329.59	87.1442	329.59	86.923	329.59	86.9863	329.59	86.884	329.59	86.8728	329.59	86.8707	329.59	86.8129	329.59	86.8767	329.59	86.8013	329.59	86.8959	329.59	86.8237	329.59	86.9206	329.59	86.8627	329.59	86.9406	329.59	86.9034	329.59	86.9467	329.59	86.9338
341.309	88.0604	341.309	88.034	341.309	88.0363	341.309	87.9592	341.309	87.9658	341.309	87.8469	341.309	87.8566	341.309	87.7161	341.309	87.7173	341.309	87.5891	341.309	87.5567	341.309	87.4825	341.309	87.3841	341.309	87.4	341.309	87.2113	341.309	87.3315	341.309	87.054	341.309	87.2598	341.309	86.9296	341.309	87.1714	341.309	86.8511	341.309	87.0632	341.309	86.8201	341.309	86.9453	341.309	86.8242	341.309	86.8361	341.309	86.8434	341.309	86.7547	341.309	86.8591	341.309	86.7125	341.309	86.8604	341.309	86.7092	341.309	86.8442	341.309	86.7343	341.309	86.8132	341.309	86.7734
353.027	88.0022	353.027	87.9731	353.027	87.9729	353.027	87.8868	353.027	87.8906	353.027	87.7513	353.027	87.7654	353.027	87.5801	353.027	87.6096	353.027	87.3913	353.027	87.4334	353.027	87.2044	353.027	87.2453	353.027	87.0366	353.027	87.0533	353.027	86.8997	353.027	86.8677	353.027	86.7989	353.027	86.7011	353.027	86.7353	353.027	86.5656	353.027	86.7075	353.027	86.47	353.027	86.7111	353.027	86.4187	353.027	86.7374	353.027	86.4113	353.027	86.773	353.027	86.4434	353.027	86.8029	353.027	86.5069	353.027	86.8134	353.027	86.5892	353.027	86.7956	353.027	86.6747	353.027	86.7475
366.211	87.9086	366.211	87.846	366.211	87.919	366.211	87.7337	366.211	87.8808	366.211	87.5811	366.211	87.7994	366.211	87.4005	366.211	87.6778	366.211	87.2037	366.211	87.5151	366.211	87	366.211	87.3107	366.211	86.7978	366.211	87.071	366.211	86.6074	366.211	86.814	366.211	86.4442	366.211	86.569	366.211	86.3281	366.211	86.37	366.211	86.2774	366.211	86.2439	366.211	86.2983	366.211	86.1995	366.211	86.3767	366.211	86.2235	366.211	86.4792	366.211	86.2888	366.211	86.5673	366.211	86.368	366.211	86.6135	366.211	86.4449	366.211	86.6118	366.211	86.5144	366.211	86.5733
379.395	88.0818	379.395	88.0758	379.395	88.0338	379.395	88.0166	379.395	87.9378	379.395	87.9084	379.395	87.8083	379.395	87.7577	379.395	87.6635	379.395	87.5742	379.395	87.5156	379.395	87.3726	379.395	87.3655	379.395	87.1702	379.395	87.2052	379.395	86.9826	379.395	87.0297	379.395	86.8184	379.395	86.8466	379.395	86.6793	379.395	86.6773	379.395	86.566	379.395	86.5484	379.395	86.484	379.395	86.4786	379.395	86.4433	379.395	86.4698	379.395	86.4494	379.395	86.5067	379.395	86.4946	379.395	86.5646	379.395	86.558	379.395	86.6185	379.395	86.6155	379.395	86.6497	379.395	86.6489
392.578	88.0085	392.578	87.9722	392.578	87.9819	392.578	87.874	392.578	87.8934	392.578	87.7178	392.578	87.7486	392.578	87.5158	392.578	87.5599	392.578	87.2894	392.578	87.3449	392.578	87.0645	392.578	87.1194	392.578	86.8608	392.578	86.8924	392.578	86.6859	392.578	86.6675	392.578	86.5373	392.578	86.453	392.578	86.4094	392.578	86.2693	392.578	86.3002	392.578	86.1453	392.578	86.215	392.578	86.1016	392.578	86.1655	392.578	86.1353	392.578	86.1627	392.578	86.2194	392.578	86.2079	392.578	86.3167	392.578	86.2851	392.578	86.3948	392.578	86.3659	392.578	86.4326	392.578	86.4213
405.762	87.9422	405.762	87.8896	405.762	87.9473	405.762	87.7882	405.762	87.9003	405.762	87.6334	405.762	87.7925	405.762	87.4242	405.762	87.6182	405.762	87.1677	405.762	87.3825	405.762	86.8831	405.762	87.1037	405.762	86.6017	405.762	86.8076	405.762	86.362	405.762	86.5183	405.762	86.1978	405.762	86.2532	405.762	86.1223	405.762	86.0282	405.762	86.1194	405.762	85.865	405.762	86.1523	405.762	85.7883	405.762	86.1848	405.762	85.8088	405.762	86.1999	405.762	85.9076	405.762	86.2032	405.762	86.0395	405.762	86.21	405.762	86.1548	405.762	86.2264	405.762	86.2221	405.762	86.2391
420.41	88.2813	420.41	88.2207	420.41	88.2409	420.41	88.0654	420.41	88.104	420.41	87.8302	420.41	87.886	420.41	87.5359	420.41	87.6086	420.41	87.2071	420.41	87.296	420.41	86.8701	420.41	86.9744	420.41	86.5489	420.41	86.6729	420.41	86.2646	420.41	86.4207	420.41	86.0384	420.41	86.2347	420.41	85.8939	420.41	86.1103	420.41	85.8516	420.41	86.0252	420.41	85.9133	420.41	85.9584	420.41	86.0522	420.41	85.9064	420.41	86.2184	420.41	85.8851	420.41	86.3557	420.41	85.9159	420.41	86.4203	420.41	86.0076	420.41	86.3941	420.41	86.145	420.41	86.2897
435.059	87.7658	435.059	87.7307	435.059	87.7616	435.059	87.6675	435.059	87.7114	435.059	87.582	435.059	87.6166	435.059	87.4671	435.059	87.4822	435.059	87.3058	435.059	87.3078	435.059	87.0814	435.059	87.0854	435.059	86.7912	435.059	86.8082	435.059	86.4537	435.059	86.487	435.059	86.1108	435.059	86.1631	435.059	85.8209	435.059	85.9	435.059	85.643	435.059	85.7526	435.059	85.6142	435.059	85.7364	435.059	85.731	435.059	85.8267	435.059	85.9484	435.059	85.9821	435.059	86.1973	435.059	86.1645	435.059	86.4091	435.059	86.3421	435.059	86.5354	435.059	86.484	435.059	86.5574
451.172	88.2525	451.172	88.2076	451.172	88.1994	451.172	88.0605	451.172	88.0566	451.172	87.8173	451.172	87.8348	451.172	87.4981	451.172	87.5485	451.172	87.1342	451.172	87.218	451.172	86.7562	451.172	86.8683	451.172	86.3852	451.172	86.5253	451.172	86.0347	451.172	86.2113	451.172	85.725	451.172	85.9451	451.172	85.4927	451.172	85.7458	451.172	85.375	451.172	85.6318	451.172	85.3807	451.172	85.6077	451.172	85.4791	451.172	85.6509	451.172	85.6198	451.172	85.7192	451.172	85.7542	451.172	85.7788	451.172	85.8483	451.172	85.8217	451.172	85.8886	451.172	85.8564	451.172	85.884
465.82	88.3342	465.82	88.2962	465.82	88.2637	465.82	88.1401	465.82	88.0988	465.82	87.8678	465.82	87.8553	465.82	87.4996	465.82	87.5512	465.82	87.0768	465.82	87.2056	465.82	86.655	465.82	86.834	465.82	86.2854	465.82	86.4446	465.82	85.9906	465.82	86.044	465.82	85.7581	465.82	85.6527	465.82	85.563	465.82	85.3209	465.82	85.3992	465.82	85.1228	465.82	85.2906	465.82	85.1163	465.82	85.2718	465.82	85.2928	465.82	85.356	465.82	85.5701	465.82	85.5191	465.82	85.8396	465.82	85.7141	465.82	86.0195	465.82	85.8955	465.82	86.0786	465.82	86.0276
483.398	88.1653	483.398	88.137	483.398	88.1356	483.398	88.0504	483.398	88.0415	483.398	87.8927	483.398	87.8769	483.398	87.6445	483.398	87.6406	483.398	87.2936	483.398	87.3344	483.398	86.8519	483.398	86.9632	483.398	86.3631	483.398	86.5404	483.398	85.8931	483.398	86.0967	483.398	85.5075	483.398	85.6806	483.398	85.2513	483.398	85.3444	483.398	85.1431	483.398	85.1225	483.398	85.1783	483.398	85.0204	483.398	85.3266	483.398	85.0221	483.398	85.5308	483.398	85.1037	483.398	85.7189	483.398	85.2416	483.398	85.8303	483.398	85.4129	483.398	85.8366	483.398	85.592	483.398	85.7462
499.512	88.2606	499.512	88.1497	499.512	88.273	499.512	87.9755	499.512	88.1616	499.512	87.765	499.512	87.9233	499.512	87.5233	499.512	87.5754	499.512	87.2365	499.512	87.1475	499.512	86.8854	499.512	86.6758	499.512	86.462	499.512	86.2007	499.512	85.9841	499.512	85.7629	499.512	85.505	499.512	85.3974	499.512	85.1046	499.512	85.1309	499.512	84.8544	499.512	84.9854	499.512	84.7783	499.512	84.9754	499.512	84.8472	499.512	85.0928	499.512	85.0094	499.512	85.2943	499.512	85.217	499.512	85.5119	499.512	85.4298	499.512	85.68	499.512	85.6115	499.512	85.7564	499.512	85.7292
517.09	88.4195	517.09	88.4017	517.09	88.3534	517.09	88.2725	517.09	88.217	517.09	88.0053	517.09	88.0079	517.09	87.5967	517.09	87.7169	517.09	87.0774	517.09	87.3385	517.09	86.5034	517.09	86.8776	517.09	85.9356	517.09	86.3534	517.09	85.4285	517.09	85.8021	517.09	85.0326	517.09	85.2792	517.09	84.7895	517.09	84.8557	517.09	84.7053	517.09	84.595	517.09	84.7378	517.09	84.5217	517.09	84.8253	517.09	84.612	517.09	84.9321	517.09	84.8132	517.09	85.0584	517.09	85.0618	517.09	85.2089	517.09	85.2886	517.09	85.3573	517.09	85.4289	517.09	85.4478
536.133	88.034	536.133	87.9604	536.133	88.0176	536.133	87.8126	536.133	87.8959	536.133	87.5962	536.133	87.6646	536.133	87.3058	536.133	87.3333	536.133	86.9331	536.133	86.9211	536.133	86.4761	536.133	86.4502	536.133	85.9439	536.133	85.9428	536.133	85.3612	536.133	85.4225	536.133	84.7807	536.133	84.9178	536.133	84.2952	536.133	84.4676	536.133	84.0163	536.133	84.1274	536.133	84.0085	536.133	83.958	536.133	84.2374	536.133	83.9869	536.133	84.5909	536.133	84.1804	536.133	84.9419	536.133	84.4648	536.133	85.1932	536.133	84.7701	536.133	85.2928	536.133	85.0427	536.133	85.233
555.176	88.3098	555.176	88.2318	555.176	88.2637	555.176	88.0433	555.176	88.1025	555.176	87.7636	555.176	87.856	555.176	87.4007	555.176	87.5546	555.176	86.9542	555.176	87.2088	555.176	86.4382	555.176	86.8022	555.176	85.8952	555.176	86.3018	555.176	85.381	555.176	85.6839	555.176	84.9334	555.176	84.9701	555.176	84.5657	555.176	84.2641	555.176	84.2975	555.176	83.7524	555.176	84.1727	555.176	83.5983	555.176	84.2167	555.176	83.781	555.176	84.3802	555.176	84.1069	555.176	84.5561	555.176	84.3853	555.176	84.6571	555.176	84.5404	555.176	84.6696	555.176	84.6032	555.176	84.6389
574.219	88.0233	574.219	87.9016	574.219	88.0635	574.219	87.7171	574.219	87.9888	574.219	87.4786	574.219	87.7666	574.219	87.1947	574.219	87.3925	574.219	86.8646	574.219	86.903	574.219	86.4583	574.219	86.3582	574.219	85.9245	574.219	85.8046	574.219	85.242	574.219	85.2503	574.219	84.4854	574.219	84.6805	574.219	83.8374	574.219	84.1094	574.219	83.4865	574.219	83.6295	574.219	83.477	574.219	83.3986	574.219	83.6956	574.219	83.5152	574.219	83.9916	574.219	83.8929	574.219	84.2688	574.219	84.3279	574.219	84.4957	574.219	84.6542	574.219	84.6734	574.219	84.8039	574.219	84.7915
594.727	88.0098	594.727	87.9474	594.727	87.9705	594.727	87.7976	594.727	87.8236	594.727	87.5565	594.727	87.5873	594.727	87.2023	594.727	87.2792	594.727	86.7234	594.727	86.8826	594.727	86.1389	594.727	86.3603	594.727	85.4897	594.727	85.7096	594.727	84.8148	594.727	84.9906	594.727	84.1537	594.727	84.2906	594.727	83.5748	594.727	83.6676	594.727	83.177	594.727	83.1506	594.727	83.0327	594.727	82.7957	594.727	83.1385	594.727	82.7038	594.727	83.4369	594.727	82.939	594.727	83.8459	594.727	83.431	594.727	84.259	594.727	83.9934	594.727	84.5545	594.727	84.4325	594.727	84.629
615.234	87.9821	615.234	87.9958	615.234	87.9137	615.234	87.8991	615.234	87.8142	615.234	87.6413	615.234	87.6624	615.234	87.2125	615.234	87.4086	615.234	86.6518	615.234	87.0032	615.234	86.0173	615.234	86.4207	615.234	85.3414	615.234	85.6744	615.234	84.6215	615.234	84.8195	615.234	83.8723	615.234	83.9565	615.234	83.1963	615.234	83.2259	615.234	82.7805	615.234	82.758	615.234	82.7638	615.234	82.6023	615.234	83.0906	615.234	82.711	615.234	83.5609	615.234	82.9832	615.234	83.9905	615.234	83.3268	615.234	84.2742	615.234	83.686	615.234	84.3669	615.234	84.0191	615.234	84.268
637.207	87.9608	637.207	87.7921	637.207	88.0263	637.207	87.5844	637.207	87.9144	637.207	87.3428	637.207	87.6074	637.207	87.0229	637.207	87.1686	637.207	86.5813	637.207	86.6971	637.207	86.0103	637.207	86.2338	637.207	85.3392	637.207	85.7084	637.207	84.6069	637.207	84.9966	637.207	83.8358	637.207	84.0476	637.207	83.0613	637.207	83.0017	637.207	82.4083	637.207	82.2113	637.207	82.0838	637.207	82.0001	637.207	82.1985	637.207	82.318	637.207	82.6355	637.207	82.8468	637.207	83.1645	637.207	83.3286	637.207	83.6	637.207	83.6637	637.207	83.8548	637.207	83.8569	637.207	83.9274
659.18	87.747	659.18	87.6666	659.18	87.7145	659.18	87.4894	659.18	87.5889	659.18	87.2482	659.18	87.3999	659.18	86.9461	659.18	87.1409	659.18	86.5347	659.18	86.7563	659.18	85.947	659.18	86.1998	659.18	85.151	659.18	85.4934	659.18	84.1759	659.18	84.6966	659.18	83.1181	659.18	83.8235	659.18	82.1495	659.18	82.8448	659.18	81.4877	659.18	81.8242	659.18	81.2875	659.18	81.1021	659.18	81.5369	659.18	81.1433	659.18	82.0616	659.18	81.8416	659.18	82.614	659.18	82.605	659.18	83.0042	659.18	83.0803	659.18	83.1959	659.18	83.2584	659.18	83.268
682.617	87.6867	682.617	87.637	682.617	87.6355	682.617	87.4836	682.617	87.5067	682.617	87.2276	682.617	87.3224	682.617	86.8543	682.617	87.0663	682.617	86.3458	682.617	86.6786	682.617	85.7028	682.617	86.0975	682.617	84.9364	682.617	85.3109	682.617	84.0402	682.617	84.3723	682.617	83.0028	682.617	83.3885	682.617	81.9036	682.617	82.4841	682.617	81.0406	682.617	81.7241	682.617	80.8319	682.617	81.1265	682.617	81.3042	682.617	80.8242	682.617	82.0308	682.617	81.0352	682.617	82.687	682.617	81.7374	682.617	83.1946	682.617	82.6031	682.617	83.5266	682.617	83.2823	682.617	83.5906
707.52	87.5553	707.52	87.4806	707.52	87.6154	707.52	87.3674	707.52	87.6068	707.52	87.1447	707.52	87.458	707.52	86.775	707.52	87.1571	707.52	86.2831	707.52	86.7518	707.52	85.7053	707.52	86.2687	707.52	85.0215	707.52	85.6416	707.52	84.16	707.52	84.745	707.52	83.0824	707.52	83.5144	707.52	81.8862	707.52	82.0795	707.52	80.8564	707.52	80.8326	707.52	80.3525	707.52	80.2449	707.52	80.4963	707.52	80.3994	707.52	81.0584	707.52	80.9607	707.52	81.7187	707.52	81.6096	707.52	82.2666	707.52	82.1745	707.52	82.6063	707.52	82.557	707.52	82.7055
732.422	87.633	732.422	87.5717	732.422	87.6397	732.422	87.4479	732.422	87.597	732.422	87.2463	732.422	87.4874	732.422	86.9363	732.422	87.2567	732.422	86.4789	732.422	86.8434	732.422	85.8369	732.422	86.2347	732.422	84.975	732.422	85.4843	732.422	83.8609	732.422	84.6471	732.422	82.492	732.422	83.6772	732.422	80.9645	732.422	82.4459	732.422	79.5998	732.422	80.9663	732.422	78.9969	732.422	79.7218	732.422	79.4736	732.422	79.4586	732.422	80.5222	732.422	80.1235	732.422	81.5275	732.422	81.0613	732.422	82.2396	732.422	81.8743	732.422	82.6193	732.422	82.4265	732.422	82.6783
757.324	88.1333	757.324	88.01	757.324	88.0953	757.324	87.7816	757.324	87.9243	757.324	87.5289	757.324	87.7159	757.324	87.2783	757.324	87.5302	757.324	86.9636	757.324	87.3035	757.324	86.4599	757.324	86.8843	757.324	85.659	757.324	86.1516	757.324	84.5243	757.324	85.0869	757.324	83.0732	757.324	83.7455	757.324	81.3028	757.324	82.1705	757.324	79.2287	757.324	80.3715	757.324	77.3763	757.324	78.561	757.324	77.1869	757.324	77.6332	757.324	78.6651	757.324	78.3499	757.324	80.3026	757.324	79.8067	757.324	81.4632	757.324	81.0527	757.324	82.0788	757.324	81.8489	757.324	82.1932
785.156	87.7922	785.156	87.8071	785.156	87.8705	785.156	87.9055	785.156	87.9019	785.156	87.8886	785.156	87.804	785.156	87.5937	785.156	87.6223	785.156	87.0872	785.156	87.4191	785.156	86.5843	785.156	87.1546	785.156	86.1475	785.156	86.7042	785.156	85.5491	785.156	85.9423	785.156	84.4885	785.156	84.7838	785.156	82.8273	785.156	83.2105	785.156	80.6158	785.156	81.2955	785.156	78.1082	785.156	79.2064	785.156	76.231	785.156	77.3778	785.156	76.492	785.156	76.8695	785.156	78.1917	785.156	78.0169	785.156	79.7748	785.156	79.5269	785.156	80.7349	785.156	80.5772	785.156	80.9951
811.523	87.4513	811.523	87.4602	811.523	87.4689	811.523	87.4237	811.523	87.553	811.523	87.3637	811.523	87.6402	811.523	87.3594	811.523	87.6441	811.523	87.3883	811.523	87.5436	811.523	87.2794	811.523	87.3542	811.523	86.8531	811.523	87.0341	811.523	86.0598	811.523	86.4762	811.523	84.9522	811.523	85.5923	811.523	83.5341	811.523	84.3474	811.523	81.7006	811.523	82.7008	811.523	79.4224	811.523	80.5995	811.523	77.2301	811.523	78.2034	811.523	76.5028	811.523	76.4678	811.523	77.3806	811.523	76.6485	811.523	78.4637	811.523	77.8972	811.523	79.1214	811.523	78.8892	811.523	79.2804
840.82	86.9626	840.82	86.931	840.82	86.887	840.82	86.8565	840.82	86.756	840.82	86.8124	840.82	86.7179	840.82	86.797	840.82	86.8372	840.82	86.7442	840.82	86.9862	840.82	86.5841	840.82	86.9926	840.82	86.2802	840.82	86.7998	840.82	85.8286	840.82	86.4265	840.82	85.2146	840.82	85.8367	840.82	84.333	840.82	84.8964	840.82	82.981	840.82	83.4556	840.82	81.0373	840.82	81.4782	840.82	78.7683	840.82	79.2307	840.82	77.0266	840.82	77.4393	840.82	76.6939	840.82	76.8035	840.82	77.5153	840.82	77.2399	840.82	78.4207	840.82	78.1072	840.82	78.6534
870.117	86.6385	870.117	86.5858	870.117	86.6702	870.117	86.57	870.117	86.5796	870.117	86.5482	870.117	86.3922	870.117	86.4961	870.117	86.2555	870.117	86.4558	870.117	86.2324	870.117	86.4273	870.117	86.206	870.117	86.2911	870.117	86.0434	870.117	85.8928	870.117	85.7149	870.117	85.172	870.117	85.2147	870.117	84.1805	870.117	84.4699	870.117	82.9849	870.117	83.3783	870.117	81.5597	870.117	81.8791	870.117	79.8653	870.117	80.0185	870.117	78.2582	870.117	78.2813	870.117	77.5983	870.117	77.7936	870.117	77.9244	870.117	78.4306	870.117	78.4841	870.117	78.9315	870.117	78.8937
900.879	86.8213	900.879	86.8164	900.879	86.7546	900.879	86.7636	900.879	86.6576	900.879	86.7044	900.879	86.5682	900.879	86.6275	900.879	86.4876	900.879	86.4846	900.879	86.399	900.879	86.2408	900.879	86.2661	900.879	85.8921	900.879	86.0353	900.879	85.4145	900.879	85.6573	900.879	84.7625	900.879	85.0859	900.879	83.8789	900.879	84.2523	900.879	82.7138	900.879	83.0844	900.879	81.2394	900.879	81.5801	900.879	79.5117	900.879	79.8493	900.879	78.0847	900.879	78.1221	900.879	77.9855	900.879	76.9128	900.879	78.7401	900.879	76.8708	900.879	79.0607	900.879	77.7202	900.879	78.6281
933.105	86.3076	933.105	86.4244	933.105	86.1825	933.105	86.2957	933.105	86.1442	933.105	85.9465	933.105	86.0593	933.105	85.7684	933.105	85.866	933.105	85.9633	933.105	85.6817	933.105	86.1807	933.105	85.5823	933.105	86.0501	933.105	85.509	933.105	85.6267	933.105	85.3569	933.105	85.1473	933.105	85.0145	933.105	84.5248	933.105	84.3643	933.105	83.3724	933.105	83.3003	933.105	81.5089	933.105	81.7608	933.105	79.3988	933.105	79.8279	933.105	77.9224	933.105	77.9525	933.105	77.1877	933.105	77.0118	933.105	77.0163	933.105	77.2953	933.105	77.4809	933.105	77.8807	933.105	77.9616
965.332	85.9399	965.332	85.7591	965.332	86.0286	965.332	85.7768	965.332	85.8469	965.332	85.866	965.332	85.5745	965.332	85.7202	965.332	85.3994	965.332	85.4536	965.332	85.2897	965.332	85.4492	965.332	85.182	965.332	85.6384	965.332	85.1034	965.332	85.555	965.332	85.0316	965.332	85.0019	965.332	84.8342	965.332	84.1557	965.332	84.3497	965.332	83.0844	965.332	83.456	965.332	81.5078	965.332	82.0542	965.332	79.3344	965.332	80.0158	965.332	77.4257	965.332	77.5578	965.332	76.9767	965.332	75.9992	965.332	77.3844	965.332	75.9828	965.332	77.5268	965.332	76.5352	965.332	77.1561
1,000.49	85.4418	1,000.49	85.5688	1,000.49	85.0421	1,000.49	85.1042	1,000.49	84.8582	1,000.49	84.5051	1,000.49	84.7919	1,000.49	84.5012	1,000.49	84.4753	1,000.49	84.9038	1,000.49	84.0197	1,000.49	85.03	1,000.49	83.9273	1,000.49	84.9029	1,000.49	84.2921	1,000.49	85.0016	1,000.49	84.7028	1,000.49	85.253	1,000.49	84.8283	1,000.49	85.0622	1,000.49	84.5314	1,000.49	84.078	1,000.49	83.7081	1,000.49	82.4006	1,000.49	82.335	1,000.49	80.2989	1,000.49	80.6416	1,000.49	77.9639	1,000.49	78.9206	1,000.49	75.8959	1,000.49	77.0889	1,000.49	75.1311	1,000.49	75.2217	1,000.49	75.2381	1,000.49	74.4955	1,000.49	74.9629
1,035.64	86.5593	1,035.64	86.3306	1,035.64	86.5814	1,035.64	85.9697	1,035.64	86.2563	1,035.64	85.3883	1,035.64	85.5698	1,035.64	84.4997	1,035.64	84.7595	1,035.64	83.6193	1,035.64	84.1269	1,035.64	83.3877	1,035.64	83.6593	1,035.64	83.7702	1,035.64	83.3122	1,035.64	84.1631	1,035.64	83.4203	1,035.64	84.3851	1,035.64	84.0027	1,035.64	84.5136	1,035.64	84.4435	1,035.64	84.3452	1,035.64	84.3298	1,035.64	83.5675	1,035.64	83.6579	1,035.64	82.2269	1,035.64	82.5578	1,035.64	80.749	1,035.64	81.0895	1,035.64	79.4355	1,035.64	79.3549	1,035.64	78.2088	1,035.64	77.8053	1,035.64	77.2075	1,035.64	76.9541	1,035.64	76.7831
1,072.27	87.603	1,072.27	87.3422	1,072.27	87.511	1,072.27	86.6949	1,072.27	87.1387	1,072.27	85.8436	1,072.27	86.4884	1,072.27	85.0289	1,072.27	85.5994	1,072.27	84.1915	1,072.27	84.6181	1,072.27	83.017	1,072.27	83.7293	1,072.27	81.9533	1,072.27	83.1089	1,072.27	82.2737	1,072.27	82.9074	1,072.27	83.4287	1,072.27	83.2675	1,072.27	83.9816	1,072.27	83.8348	1,072.27	83.7877	1,072.27	83.8933	1,072.27	83.436	1,072.27	83.2909	1,072.27	83.1256	1,072.27	82.671	1,072.27	82.4168	1,072.27	82.3985	1,072.27	81.3049	1,072.27	81.8503	1,072.27	80.5542	1,072.27	80.7719	1,072.27	80.272	1,072.27	79.9495	1,072.27	79.9684
1,108.89	88.4071	1,108.89	88.2882	1,108.89	88.4064	1,108.89	88.0668	1,108.89	88.1999	1,108.89	87.5409	1,108.89	87.7564	1,108.89	86.5255	1,108.89	86.9813	1,108.89	85.1649	1,108.89	85.7832	1,108.89	83.8341	1,108.89	84.3703	1,108.89	82.7053	1,108.89	83.1721	1,108.89	81.649	1,108.89	82.3501	1,108.89	80.9793	1,108.89	81.8833	1,108.89	81.3887	1,108.89	81.7794	1,108.89	82.2495	1,108.89	82.1455	1,108.89	82.4606	1,108.89	82.8085	1,108.89	82.1217	1,108.89	83.0459	1,108.89	82.0117	1,108.89	82.5486	1,108.89	82.1416	1,108.89	81.997	1,108.89	82.0878	1,108.89	82.1899	1,108.89	82.1475	1,108.89	82.6335	1,108.89	82.5351
1,148.44	89.1286	1,148.44	89.0309	1,148.44	89.01	1,148.44	88.634	1,148.44	88.7983	1,148.44	88.081	1,148.44	88.4498	1,148.44	87.5208	1,148.44	87.8816	1,148.44	86.7873	1,148.44	87.1051	1,148.44	85.6015	1,148.44	86.0888	1,148.44	84.0555	1,148.44	84.7893	1,148.44	82.616	1,148.44	83.435	1,148.44	81.4694	1,148.44	82.4496	1,148.44	80.4606	1,148.44	81.8549	1,148.44	80.0731	1,148.44	81.3313	1,148.44	80.7448	1,148.44	80.7133	1,148.44	81.5846	1,148.44	80.6201	1,148.44	81.7989	1,148.44	81.3628	1,148.44	81.7992	1,148.44	82.07	1,148.44	82.2629	1,148.44	82.2149	1,148.44	82.7598	1,148.44	82.3213	1,148.44	82.6926
1,189.45	88.7941	1,189.45	88.5895	1,189.45	88.8001	1,189.45	88.3019	1,189.45	88.5234	1,189.45	87.9342	1,189.45	88.0935	1,189.45	87.4919	1,189.45	87.6542	1,189.45	86.9685	1,189.45	87.147	1,189.45	86.2303	1,189.45	86.4294	1,189.45	85.136	1,189.45	85.4842	1,189.45	83.7811	1,189.45	84.3214	1,189.45	82.4809	1,189.45	83.0438	1,189.45	81.359	1,189.45	81.6313	1,189.45	80.2438	1,189.45	80.0694	1,189.45	79.3975	1,189.45	79.1818	1,189.45	79.264	1,189.45	79.33	1,189.45	79.7459	1,189.45	79.4115	1,189.45	80.7205	1,189.45	79.9244	1,189.45	81.6982	1,189.45	81.202	1,189.45	82.2225	1,189.45	82.198	1,189.45	82.4084
1,230.47	88.2913	1,230.47	88.1825	1,230.47	88.0692	1,230.47	87.8844	1,230.47	87.7007	1,230.47	87.5311	1,230.47	87.4254	1,230.47	87.0624	1,230.47	87.1047	1,230.47	86.5309	1,230.47	86.5358	1,230.47	86.0217	1,230.47	85.7434	1,230.47	85.3388	1,230.47	84.9455	1,230.47	84.3542	1,230.47	84.2718	1,230.47	83.3144	1,230.47	83.5823	1,230.47	82.3862	1,230.47	82.5977	1,230.47	81.2832	1,230.47	81.2303	1,230.47	79.8226	1,230.47	79.6307	1,230.47	78.6729	1,230.47	78.1271	1,230.47	78.8436	1,230.47	77.8988	1,230.47	79.5715	1,230.47	78.6245	1,230.47	80.1933	1,230.47	79.8038	1,230.47	81.1431	1,230.47	81.2833	1,230.47	81.8391
1,274.41	86.997	1,274.41	87.2613	1,274.41	86.836	1,274.41	87.2393	1,274.41	87.0001	1,274.41	86.9175	1,274.41	86.9761	1,274.41	86.4052	1,274.41	86.2721	1,274.41	85.7519	1,274.41	85.2234	1,274.41	85.0865	1,274.41	84.562	1,274.41	84.4936	1,274.41	84.1808	1,274.41	83.8533	1,274.41	83.4852	1,274.41	82.967	1,274.41	82.5487	1,274.41	81.6398	1,274.41	81.7019	1,274.41	79.8168	1,274.41	80.5194	1,274.41	78.1653	1,274.41	78.4726	1,274.41	77.5549	1,274.41	76.4953	1,274.41	77.5732	1,274.41	76.575	1,274.41	78.45	1,274.41	77.919	1,274.41	80.1193	1,274.41	78.8502	1,274.41	80.9322	1,274.41	79.553	1,274.41	80.4583
1,319.82	87.1222	1,319.82	86.6693	1,319.82	87.2794	1,319.82	86.3876	1,319.82	86.7031	1,319.82	86.268	1,319.82	85.7861	1,319.82	86.1049	1,319.82	85.473	1,319.82	85.7802	1,319.82	85.54	1,319.82	85.1964	1,319.82	84.9267	1,319.82	84.305	1,319.82	83.8013	1,319.82	83.3838	1,319.82	83.2613	1,319.82	82.7817	1,319.82	83.0338	1,319.82	82.2453	1,319.82	82.0389	1,319.82	81.0417	1,319.82	80.6049	1,319.82	78.7562	1,319.82	79.4579	1,319.82	76.1971	1,319.82	77.7002	1,319.82	76.0876	1,319.82	75.3685	1,319.82	77.6019	1,319.82	75.3819	1,319.82	78.6095	1,319.82	77.3522	1,319.82	79.3321	1,319.82	79.0947	1,319.82	79.7395
1,366.7	87.9589	1,366.7	87.7997	1,366.7	87.5266	1,366.7	87.0487	1,366.7	87.1628	1,366.7	86.3703	1,366.7	86.9591	1,366.7	85.8774	1,366.7	86.4005	1,366.7	85.1578	1,366.7	85.4636	1,366.7	84.3015	1,366.7	84.619	1,366.7	83.5875	1,366.7	83.9644	1,366.7	82.8883	1,366.7	83.2935	1,366.7	82.2918	1,366.7	82.6735	1,366.7	81.9026	1,366.7	82.1671	1,366.7	81.0824	1,366.7	81.4106	1,366.7	79.3929	1,366.7	80.0002	1,366.7	77.4101	1,366.7	77.901	1,366.7	76.4679	1,366.7	75.9095	1,366.7	77.0773	1,366.7	75.5606	1,366.7	78.4128	1,366.7	77.0848	1,366.7	79.1275	1,366.7	78.4219	1,366.7	79.0449
1,413.57	87.524	1,413.57	87.6064	1,413.57	87.6267	1,413.57	87.5106	1,413.57	87.7075	1,413.57	86.8791	1,413.57	87.3536	1,413.57	85.897	1,413.57	86.5834	1,413.57	85.0702	1,413.57	85.7561	1,413.57	84.4959	1,413.57	85.0198	1,413.57	83.7775	1,413.57	84.2951	1,413.57	82.7838	1,413.57	83.4596	1,413.57	81.9722	1,413.57	82.4161	1,413.57	81.5132	1,413.57	81.4502	1,413.57	80.6571	1,413.57	80.9127	1,413.57	78.9688	1,413.57	80.2069	1,413.57	76.7379	1,413.57	78.4301	1,413.57	74.6342	1,413.57	75.9432	1,413.57	74.6154	1,413.57	74.8304	1,413.57	75.7275	1,413.57	75.8278	1,413.57	76.6118	1,413.57	77.0155	1,413.57	77.2255
1,463.38	88.5052	1,463.38	88.3543	1,463.38	88.5794	1,463.38	88.1074	1,463.38	88.2589	1,463.38	87.5621	1,463.38	87.5827	1,463.38	86.9175	1,463.38	86.934	1,463.38	86.2528	1,463.38	86.3817	1,463.38	85.1963	1,463.38	85.715	1,463.38	83.9457	1,463.38	84.7576	1,463.38	83.249	1,463.38	83.5879	1,463.38	82.6956	1,463.38	82.7714	1,463.38	81.7332	1,463.38	82.5099	1,463.38	80.8821	1,463.38	81.8432	1,463.38	79.9771	1,463.38	80.2421	1,463.38	78.0918	1,463.38	78.7598	1,463.38	75.6878	1,463.38	78.2528	1,463.38	74.7564	1,463.38	77.7855	1,463.38	76.7398	1,463.38	77.0478	1,463.38	78.881	1,463.38	77.3372	1,463.38	78.7418
1,516.11	88.6726	1,516.11	88.5523	1,516.11	88.4596	1,516.11	88.1033	1,516.11	88.3128	1,516.11	87.757	1,516.11	88.0995	1,516.11	87.3107	1,516.11	87.4285	1,516.11	86.3174	1,516.11	86.4401	1,516.11	85.2016	1,516.11	85.487	1,516.11	84.6588	1,516.11	84.6531	1,516.11	84.2467	1,516.11	84.0377	1,516.11	83.2449	1,516.11	83.6101	1,516.11	81.7966	1,516.11	82.9445	1,516.11	80.4381	1,516.11	81.8324	1,516.11	79.0938	1,516.11	80.4843	1,516.11	77.4274	1,516.11	78.9169	1,516.11	75.7168	1,516.11	76.9315	1,516.11	75.0381	1,516.11	75.3354	1,516.11	75.7498	1,516.11	76.135	1,516.11	77.1049	1,516.11	77.8309	1,516.11	78.1672
1,568.85	88.4836	1,568.85	88.3013	1,568.85	88.415	1,568.85	88.028	1,568.85	88.1573	1,568.85	87.6482	1,568.85	87.8195	1,568.85	87.0479	1,568.85	87.11	1,568.85	86.2168	1,568.85	85.9346	1,568.85	85.2409	1,568.85	84.9344	1,568.85	84.2843	1,568.85	84.3689	1,568.85	83.4901	1,568.85	83.6355	1,568.85	82.8658	1,568.85	82.7668	1,568.85	82.301	1,568.85	82.2774	1,568.85	81.3714	1,568.85	81.606	1,568.85	79.7158	1,568.85	79.9626	1,568.85	77.57	1,568.85	77.6486	1,568.85	75.3325	1,568.85	75.7306	1,568.85	74.4129	1,568.85	74.4621	1,568.85	76.5539	1,568.85	75.6434	1,568.85	78.1803	1,568.85	77.7653	1,568.85	78.5111
1,624.51	88.0447	1,624.51	88.0057	1,624.51	87.7926	1,624.51	87.5139	1,624.51	87.4569	1,624.51	86.8846	1,624.51	86.7751	1,624.51	86.4316	1,624.51	85.6661	1,624.51	85.8449	1,624.51	84.5841	1,624.51	84.5359	1,624.51	83.5372	1,624.51	82.8132	1,624.51	82.3312	1,624.51	82.0158	1,624.51	81.7341	1,624.51	82.0163	1,624.51	81.6288	1,624.51	81.5413	1,624.51	80.8743	1,624.51	80.6417	1,624.51	80.1706	1,624.51	79.9802	1,624.51	80.2025	1,624.51	78.4629	1,624.51	78.8619	1,624.51	75.3842	1,624.51	74.7834	1,624.51	73.2877	1,624.51	71.9983	1,624.51	72.9403	1,624.51	72.5312	1,624.51	73.7847	1,624.51	73.0066	1,624.51	74.3836
1,681.64	86.412	1,681.64	86.1527	1,681.64	86.4433	1,681.64	85.975	1,681.64	86.2088	1,681.64	85.8277	1,681.64	85.7841	1,681.64	85.2761	1,681.64	85.173	1,681.64	84.3553	1,681.64	84.2959	1,681.64	83.474	1,681.64	83.1443	1,681.64	82.3009	1,681.64	81.9716	1,681.64	80.2645	1,681.64	80.3918	1,681.64	78.7428	1,681.64	78.3004	1,681.64	79.5476	1,681.64	78.1655	1,681.64	80.8527	1,681.64	79.267	1,681.64	80.9273	1,681.64	79.5319	1,681.64	79.5509	1,681.64	78.6218	1,681.64	77.414	1,681.64	76.8774	1,681.64	74.7579	1,681.64	73.3756	1,681.64	72.57	1,681.64	69.3911	1,681.64	72.0775	1,681.64	69.6509	1,681.64	71.0249
1,741.7	86.4394	1,741.7	86.3326	1,741.7	86.2689	1,741.7	85.8224	1,741.7	86.2289	1,741.7	85.2933	1,741.7	86.0096	1,741.7	84.8584	1,741.7	85.3287	1,741.7	84.4317	1,741.7	84.7392	1,741.7	83.8938	1,741.7	84.342	1,741.7	83.0701	1,741.7	83.4642	1,741.7	81.9123	1,741.7	81.9668	1,741.7	80.1084	1,741.7	80.0223	1,741.7	77.7592	1,741.7	78.0516	1,741.7	76.6246	1,741.7	77.5009	1,741.7	78.0748	1,741.7	78.1478	1,741.7	79.1903	1,741.7	78.2422	1,741.7	78.6256	1,741.7	77.6897	1,741.7	77.6804	1,741.7	77.2841	1,741.7	78.1234	1,741.7	77.2019	1,741.7	78.8005	1,741.7	77.5523	1,741.7	78.4215
1,803.22	88.1517	1,803.22	87.6622	1,803.22	88.313	1,803.22	87.0285	1,803.22	87.913	1,803.22	86.4065	1,803.22	86.893	1,803.22	85.452	1,803.22	85.9155	1,803.22	84.1426	1,803.22	85.39	1,803.22	83.4856	1,803.22	84.8219	1,803.22	83.2334	1,803.22	84.0965	1,803.22	82.2644	1,803.22	83.1446	1,803.22	80.954	1,803.22	81.4861	1,803.22	79.7727	1,803.22	79.8128	1,803.22	78.0368	1,803.22	79.7206	1,803.22	76.7515	1,803.22	79.8316	1,803.22	76.9224	1,803.22	78.5329	1,803.22	76.8959	1,803.22	77	1,803.22	77.0454	1,803.22	76.8358	1,803.22	78.148	1,803.22	76.5137	1,803.22	79.1571	1,803.22	77.1364	1,803.22	78.8098
1,866.21	88.4234	1,866.21	88.0913	1,866.21	88.4603	1,866.21	87.6991	1,866.21	87.9876	1,866.21	86.8121	1,866.21	87.4595	1,866.21	85.4964	1,866.21	86.9224	1,866.21	84.5963	1,866.21	85.8264	1,866.21	84.0099	1,866.21	84.3772	1,866.21	83.0155	1,866.21	83.2703	1,866.21	81.7454	1,866.21	82.1821	1,866.21	80.3817	1,866.21	80.7227	1,866.21	78.7144	1,866.21	79.4526	1,866.21	76.9142	1,866.21	78.0727	1,866.21	75.1472	1,866.21	76.9296	1,866.21	74.3077	1,866.21	77.5873	1,866.21	75.7361	1,866.21	77.7534	1,866.21	77.8033	1,866.21	77.5956	1,866.21	78.8444	1,866.21	78.9854	1,866.21	79.0766	1,866.21	79.8875	1,866.21	79.4312
1,932.13	87.8929	1,932.13	87.4126	1,932.13	87.4901	1,932.13	86.7472	1,932.13	86.617	1,932.13	86.2928	1,932.13	86.2147	1,932.13	85.6944	1,932.13	85.7766	1,932.13	84.7808	1,932.13	84.644	1,932.13	83.9107	1,932.13	83.5153	1,932.13	83.417	1,932.13	82.9255	1,932.13	82.9067	1,932.13	82.5332	1,932.13	81.7564	1,932.13	82.0644	1,932.13	79.9987	1,932.13	80.7074	1,932.13	77.8169	1,932.13	77.8052	1,932.13	75.0878	1,932.13	74.9258	1,932.13	72.2099	1,932.13	72.9388	1,932.13	73.9361	1,932.13	71.1607	1,932.13	76.1868	1,932.13	73.9706	1,932.13	76.5295	1,932.13	76.8528	1,932.13	77.9805	1,932.13	78.6412	1,932.13	79.2568
1,999.51	87.0309	1,999.51	87.1997	1,999.51	86.8331	1,999.51	86.877	1,999.51	86.5347	1,999.51	85.9811	1,999.51	85.8857	1,999.51	84.9064	1,999.51	84.998	1,999.51	83.778	1,999.51	83.7619	1,999.51	82.6758	1,999.51	82.2748	1,999.51	81.772	1,999.51	81.5123	1,999.51	80.9528	1,999.51	81.2811	1,999.51	80.2375	1,999.51	80.2615	1,999.51	79.5585	1,999.51	78.6021	1,999.51	78.3915	1,999.51	77.1583	1,999.51	76.8179	1,999.51	75.4762	1,999.51	75.0325	1,999.51	72.4494	1,999.51	72.7021	1,999.51	68.6966	1,999.51	73.8724	1,999.51	71.4562	1,999.51	76.0841	1,999.51	75.556	1,999.51	77.2029	1,999.51	77.553	1,999.51	77.8632
2,069.82	87.629	2,069.82	87.2761	2,069.82	87.7013	2,069.82	86.7514	2,069.82	87.1704	2,069.82	86.0062	2,069.82	86.1061	2,069.82	84.6045	2,069.82	85.1551	2,069.82	82.8057	2,069.82	83.9538	2,069.82	81.327	2,069.82	82.3373	2,069.82	80.4985	2,069.82	81.4827	2,069.82	80.7543	2,069.82	81.158	2,069.82	81.0921	2,069.82	80.8337	2,069.82	79.8865	2,069.82	80.756	2,069.82	77.7629	2,069.82	79.8116	2,069.82	75.013	2,069.82	77.7597	2,069.82	70.051	2,069.82	75.3576	2,069.82	67.5966	2,069.82	71.1624	2,069.82	71.4558	2,069.82	65.0707	2,069.82	74.6483	2,069.82	70.7688	2,069.82	77.5442	2,069.82	75.0399	2,069.82	77.691
2,143.07	88.739	2,143.07	88.3474	2,143.07	88.7039	2,143.07	88.1355	2,143.07	88.3532	2,143.07	87.3585	2,143.07	87.8859	2,143.07	85.583	2,143.07	86.9497	2,143.07	84.0248	2,143.07	85.4947	2,143.07	82.4595	2,143.07	83.8846	2,143.07	80.4305	2,143.07	82.8493	2,143.07	79.2638	2,143.07	82.1421	2,143.07	79.2413	2,143.07	81.567	2,143.07	79.4157	2,143.07	81.2233	2,143.07	78.3379	2,143.07	80.2249	2,143.07	76.4425	2,143.07	79.1803	2,143.07	73.75	2,143.07	77.407	2,143.07	64.6932	2,143.07	72.8196	2,143.07	68.013	2,143.07	67.5445	2,143.07	74.163	2,143.07	70.7399	2,143.07	76.4283	2,143.07	75.3332	2,143.07	76.7679
2,219.24	89.1825	2,219.24	89.0051	2,219.24	89.3288	2,219.24	88.9626	2,219.24	88.7768	2,219.24	87.918	2,219.24	88.2259	2,219.24	86.7856	2,219.24	87.2982	2,219.24	85.9088	2,219.24	85.6833	2,219.24	84.356	2,219.24	83.8833	2,219.24	82.2843	2,219.24	82.1022	2,219.24	81.1848	2,219.24	80.9089	2,219.24	80.914	2,219.24	80.1974	2,219.24	79.8452	2,219.24	80.6269	2,219.24	79.3536	2,219.24	80.6746	2,219.24	79.2457	2,219.24	78.9924	2,219.24	76.8774	2,219.24	77.7082	2,219.24	72.2975	2,219.24	75.9984	2,219.24	64.1039	2,219.24	69.8051	2,219.24	69.5031	2,219.24	70.1491	2,219.24	75.5482	2,219.24	73.681	2,219.24	76.3529
2,296.88	88.7537	2,296.88	88.6198	2,296.88	88.4195	2,296.88	88.1082	2,296.88	87.7851	2,296.88	87.6017	2,296.88	86.8249	2,296.88	86.5073	2,296.88	85.4063	2,296.88	84.815	2,296.88	84.5498	2,296.88	83.4463	2,296.88	83.1364	2,296.88	81.7324	2,296.88	81.2084	2,296.88	79.8982	2,296.88	80.0685	2,296.88	79.7967	2,296.88	77.8996	2,296.88	80.4154	2,296.88	76.3306	2,296.88	79.5922	2,296.88	78.4439	2,296.88	78.4018	2,296.88	78.365	2,296.88	77.2423	2,296.88	75.6971	2,296.88	74.4628	2,296.88	75.9251	2,296.88	69.0896	2,296.88	71.1675	2,296.88	71.6674	2,296.88	68.7511	2,296.88	75.2308	2,296.88	73.0743	2,296.88	75.4624
2,378.91	87.4095	2,378.91	87.2641	2,378.91	86.9905	2,378.91	86.5258	2,378.91	86.7005	2,378.91	85.7504	2,378.91	86.0111	2,378.91	84.7652	2,378.91	85.3294	2,378.91	83.308	2,378.91	84.2061	2,378.91	81.4641	2,378.91	82.5368	2,378.91	80.4761	2,378.91	80.6224	2,378.91	79.1625	2,378.91	77.5825	2,378.91	76.8896	2,378.91	77.3996	2,378.91	77.0631	2,378.91	77.0364	2,378.91	77.7473	2,378.91	76.3834	2,378.91	77.0274	2,378.91	74.6061	2,378.91	74.3623	2,378.91	75.4108	2,378.91	72.0944	2,378.91	75.4122	2,378.91	68.7852	2,378.91	71.9051	2,378.91	69.9348	2,378.91	65.2584	2,378.91	72.44	2,378.91	68.5745	2,378.91	70.819
2,462.4	87.852	2,462.4	87.4686	2,462.4	87.7724	2,462.4	86.8719	2,462.4	87.4163	2,462.4	85.8859	2,462.4	86.7892	2,462.4	84.739	2,462.4	85.8322	2,462.4	83.3193	2,462.4	84.6004	2,462.4	81.7893	2,462.4	83.3412	2,462.4	79.7808	2,462.4	81.7598	2,462.4	77.4117	2,462.4	80.1358	2,462.4	75.7299	2,462.4	78.3131	2,462.4	75.143	2,462.4	77.2984	2,462.4	76.0904	2,462.4	76.7092	2,462.4	76.1542	2,462.4	76.9099	2,462.4	74.6879	2,462.4	77.0668	2,462.4	71.4753	2,462.4	74.6773	2,462.4	62.4506	2,462.4	69.7731	2,462.4	67.6224	2,462.4	66.976	2,462.4	72.7026	2,462.4	71.0678	2,462.4	74.3163
2,548.83	88.8797	2,548.83	88.6471	2,548.83	88.7652	2,548.83	87.9376	2,548.83	88.2581	2,548.83	86.961	2,548.83	87.4361	2,548.83	85.8918	2,548.83	86.3314	2,548.83	84.8469	2,548.83	85.0114	2,548.83	83.4414	2,548.83	83.8792	2,548.83	82.0355	2,548.83	82.4522	2,548.83	80.2096	2,548.83	80.8439	2,548.83	77.814	2,548.83	79.1829	2,548.83	76.3454	2,548.83	77.5575	2,548.83	76.329	2,548.83	76.6614	2,548.83	77.2304	2,548.83	77.3091	2,548.83	77.5621	2,548.83	77.8659	2,548.83	75.5154	2,548.83	76.4873	2,548.83	69.85	2,548.83	71.2718	2,548.83	64.0602	2,548.83	64.4589	2,548.83	71.7021	2,548.83	70.857	2,548.83	73.1922
2,639.65	88.5077	2,639.65	88.1168	2,639.65	88.2691	2,639.65	87.5478	2,639.65	87.6913	2,639.65	86.5716	2,639.65	86.8131	2,639.65	85.3236	2,639.65	85.4691	2,639.65	83.8578	2,639.65	83.8996	2,639.65	82.3514	2,639.65	82.817	2,639.65	80.9761	2,639.65	81.4571	2,639.65	79.9931	2,639.65	79.6675	2,639.65	78.7304	2,639.65	77.7112	2,639.65	77.0692	2,639.65	76.1539	2,639.65	75.4717	2,639.65	74.4491	2,639.65	75.8806	2,639.65	74.3862	2,639.65	77.1853	2,639.65	76.0078	2,639.65	75.2428	2,639.65	75.8878	2,639.65	71.4712	2,639.65	73.2959	2,639.65	68.3004	2,639.65	68.2796	2,639.65	69.0895	2,639.65	68.315	2,639.65	71.2
2,731.93	87.7963	2,731.93	87.3178	2,731.93	87.5486	2,731.93	86.6732	2,731.93	87.1221	2,731.93	85.6777	2,731.93	86.3972	2,731.93	84.5678	2,731.93	85.0986	2,731.93	82.8578	2,731.93	83.8045	2,731.93	81.2074	2,731.93	82.1501	2,731.93	79.6767	2,731.93	80.8922	2,731.93	78.7531	2,731.93	79.6612	2,731.93	76.9809	2,731.93	77.9881	2,731.93	75.0109	2,731.93	76.2039	2,731.93	74.3741	2,731.93	74.4078	2,731.93	74.7375	2,731.93	73.4655	2,731.93	74.5239	2,731.93	74.5234	2,731.93	73.551	2,731.93	74.4094	2,731.93	70.0735	2,731.93	72.7191	2,731.93	68.8212	2,731.93	69.5984	2,731.93	70.9734	2,731.93	68.9512	2,731.93	72.4174
2,828.61	87.851	2,828.61	87.3683	2,828.61	87.847	2,828.61	86.8159	2,828.61	87.2721	2,828.61	85.6206	2,828.61	86.367	2,828.61	84.3149	2,828.61	85.0992	2,828.61	82.5072	2,828.61	83.6753	2,828.61	80.733	2,828.61	81.9395	2,828.61	79.0204	2,828.61	80.6893	2,828.61	77.7157	2,828.61	79.6143	2,828.61	76.1518	2,828.61	78.2108	2,828.61	74.0475	2,828.61	76.8757	2,828.61	73.7924	2,828.61	74.9703	2,828.61	74.6197	2,828.61	74.8429	2,828.61	74.5007	2,828.61	74.3779	2,828.61	72.5149	2,828.61	73.9298	2,828.61	68.6464	2,828.61	71.8946	2,828.61	65.7117	2,828.61	67.9368	2,828.61	68.5319	2,828.61	69.5321	2,828.61	70.438
2,928.22	87.9734	2,928.22	87.6959	2,928.22	88.013	2,928.22	87.076	2,928.22	87.5161	2,928.22	85.9781	2,928.22	86.7206	2,928.22	84.6228	2,928.22	85.3659	2,928.22	82.8302	2,928.22	83.8556	2,928.22	80.6609	2,928.22	81.7926	2,928.22	78.8673	2,928.22	80.1146	2,928.22	78.2342	2,928.22	78.8271	2,928.22	77.1333	2,928.22	77.4544	2,928.22	75.186	2,928.22	76.1098	2,928.22	72.7644	2,928.22	74.4506	2,928.22	73.5284	2,928.22	74.1845	2,928.22	75.0757	2,928.22	75.0187	2,928.22	75.0689	2,928.22	75.8651	2,928.22	72.8603	2,928.22	73.5028	2,928.22	65.5469	2,928.22	69.7101	2,928.22	67.7706	2,928.22	65.5494	2,928.22	67.7453
3,030.76	88.1507	3,030.76	88.0676	3,030.76	88.1138	3,030.76	87.4373	3,030.76	87.769	3,030.76	86.6993	3,030.76	87.0132	3,030.76	85.3846	3,030.76	85.9397	3,030.76	83.5619	3,030.76	84.6029	3,030.76	81.454	3,030.76	82.7471	3,030.76	78.8598	3,030.76	80.4344	3,030.76	78.2168	3,030.76	78.6352	3,030.76	77.8072	3,030.76	77.7234	3,030.76	76.5491	3,030.76	76.6852	3,030.76	73.3237	3,030.76	75.5165	3,030.76	71.4586	3,030.76	72.9224	3,030.76	73.9525	3,030.76	72.9391	3,030.76	75.7707	3,030.76	74.8594	3,030.76	74.9151	3,030.76	75.2704	3,030.76	72.4773	3,030.76	73.2272	3,030.76	69.954	3,030.76	71.1676	3,030.76	69.7987
3,137.7	88.2294	3,137.7	87.9469	3,137.7	88.317	3,137.7	87.4073	3,137.7	87.7879	3,137.7	86.6347	3,137.7	87.1424	3,137.7	85.5334	3,137.7	86.1448	3,137.7	84.3481	3,137.7	85.2882	3,137.7	82.1939	3,137.7	83.6543	3,137.7	79.7743	3,137.7	81.388	3,137.7	78.1767	3,137.7	78.5407	3,137.7	77.5532	3,137.7	77.4989	3,137.7	77.3323	3,137.7	76.7813	3,137.7	75.3494	3,137.7	75.9411	3,137.7	71.0137	3,137.7	73.1463	3,137.7	71.3472	3,137.7	72.3494	3,137.7	73.6783	3,137.7	73.8429	3,137.7	73.822	3,137.7	75.2119	3,137.7	73.8278	3,137.7	74.4259	3,137.7	72.9782	3,137.7	73.9584	3,137.7	73.1677
3,249.02	88.0557	3,249.02	87.7978	3,249.02	88.046	3,249.02	87.0963	3,249.02	87.6357	3,249.02	86.1519	3,249.02	86.9148	3,249.02	85.2365	3,249.02	86.0087	3,249.02	84.0083	3,249.02	84.9474	3,249.02	82.1354	3,249.02	83.5593	3,249.02	80.0952	3,249.02	81.6699	3,249.02	77.6987	3,249.02	78.8864	3,249.02	76.5936	3,249.02	76.7138	3,249.02	76.5148	3,249.02	76.0765	3,249.02	75.736	3,249.02	75.5439	3,249.02	72.8427	3,249.02	73.8969	3,249.02	71.0036	3,249.02	71.6912	3,249.02	71.7716	3,249.02	73.0317	3,249.02	71.8839	3,249.02	73.5675	3,249.02	72.4811	3,249.02	72.8261	3,249.02	71.7613	3,249.02	73.7757	3,249.02	72.6058
3,363.28	88.0643	3,363.28	87.7755	3,363.28	88.1307	3,363.28	87.0692	3,363.28	87.5674	3,363.28	86.19	3,363.28	86.726	3,363.28	85.1168	3,363.28	85.8258	3,363.28	84.0848	3,363.28	84.6311	3,363.28	82.107	3,363.28	83.3255	3,363.28	80.2029	3,363.28	81.6238	3,363.28	76.7121	3,363.28	79.4251	3,363.28	75.0177	3,363.28	77.2333	3,363.28	75.5439	3,363.28	75.8743	3,363.28	75.4318	3,363.28	75.489	3,363.28	74.1608	3,363.28	72.5486	3,363.28	69.675	3,363.28	71.2842	3,363.28	70.757	3,363.28	70.9354	3,363.28	71.8462	3,363.28	71.1812	3,363.28	71.4953	3,363.28	71.8776	3,363.28	72.269	3,363.28	71.2283	3,363.28	73.0451
3,481.93	88.2752	3,481.93	88.0998	3,481.93	88.0476	3,481.93	87.0129	3,481.93	88.0228	3,481.93	86.0218	3,481.93	86.7877	3,481.93	85.2592	3,481.93	85.8486	3,481.93	84.0457	3,481.93	84.4182	3,481.93	82.272	3,481.93	83.3191	3,481.93	80.7451	3,481.93	81.7187	3,481.93	77.3728	3,481.93	79.7681	3,481.93	75.2834	3,481.93	77.8852	3,481.93	74.3874	3,481.93	76.6277	3,481.93	74.3302	3,481.93	75.491	3,481.93	73.8681	3,481.93	74.3389	3,481.93	73.1264	3,481.93	73.1579	3,481.93	71.8463	3,481.93	69.5097	3,481.93	69.3665	3,481.93	71.1302	3,481.93	70.5897	3,481.93	70.8053	3,481.93	71.7095	3,481.93	71.4395	3,481.93	73.4739
3,604.98	89.1623	3,604.98	88.8434	3,604.98	88.9747	3,604.98	87.8477	3,604.98	88.7592	3,604.98	86.4411	3,604.98	87.5958	3,604.98	84.9866	3,604.98	86.4577	3,604.98	83.0275	3,604.98	85.0872	3,604.98	82.9566	3,604.98	84.2562	3,604.98	81.2733	3,604.98	82.7172	3,604.98	78.822	3,604.98	80.5396	3,604.98	74.7249	3,604.98	77.6581	3,604.98	73.8214	3,604.98	76.8969	3,604.98	73.7296	3,604.98	77.1971	3,604.98	73.2151	3,604.98	76.5534	3,604.98	71.4947	3,604.98	74.4411	3,604.98	70.4053	3,604.98	69.3438	3,604.98	71.8681	3,604.98	72.1832	3,604.98	72.777	3,604.98	74.0171	3,604.98	74.8944	3,604.98	75.4786	3,604.98	76.5158
3,732.42	88.8113	3,732.42	88.3516	3,732.42	88.3817	3,732.42	87.5011	3,732.42	87.8955	3,732.42	86.1933	3,732.42	86.8354	3,732.42	84.5659	3,732.42	85.6049	3,732.42	82.8982	3,732.42	84.4669	3,732.42	82.4426	3,732.42	83.098	3,732.42	81.2249	3,732.42	81.7916	3,732.42	79.1505	3,732.42	79.9155	3,732.42	76.7265	3,732.42	76.7788	3,732.42	74.1163	3,732.42	74.415	3,732.42	74.3772	3,732.42	73.6708	3,732.42	73.2592	3,732.42	75.3786	3,732.42	73.5634	3,732.42	74.3808	3,732.42	71.0355	3,732.42	74.0582	3,732.42	69.2896	3,732.42	68.7526	3,732.42	69.9063	3,732.42	68.676	3,732.42	73.5191	3,732.42	74.2543	3,732.42	75.7824
3,864.26	87.7791	3,864.26	87.1035	3,864.26	87.9285	3,864.26	86.5538	3,864.26	87.0329	3,864.26	85.3854	3,864.26	86.5149	3,864.26	83.9976	3,864.26	84.7937	3,864.26	81.4249	3,864.26	83.5243	3,864.26	80.5914	3,864.26	81.6141	3,864.26	80.0128	3,864.26	80.4943	3,864.26	78.4979	3,864.26	79.9877	3,864.26	74.6123	3,864.26	77.274	3,864.26	72.9548	3,864.26	74.8611	3,864.26	73.7602	3,864.26	73.4897	3,864.26	73.4645	3,864.26	74.715	3,864.26	69.9651	3,864.26	73.4847	3,864.26	70.1143	3,864.26	73.7048	3,864.26	70.7924	3,864.26	69.9458	3,864.26	71.0056	3,864.26	71.0497	3,864.26	73.1535	3,864.26	72.8283	3,864.26	74.3793
4,000.49	88.2501	4,000.49	87.796	4,000.49	88.5586	4,000.49	86.9496	4,000.49	87.4304	4,000.49	86.0579	4,000.49	86.8875	4,000.49	83.9977	4,000.49	85.5522	4,000.49	82.6605	4,000.49	84.2869	4,000.49	80.1872	4,000.49	82.077	4,000.49	79.5077	4,000.49	80.903	4,000.49	78.8914	4,000.49	78.997	4,000.49	76.9615	4,000.49	77.1355	4,000.49	74.2153	4,000.49	75.6332	4,000.49	71.8081	4,000.49	73.9845	4,000.49	74.2724	4,000.49	73.0099	4,000.49	73.9389	4,000.49	75.304	4,000.49	71.805	4,000.49	72.7445	4,000.49	69.9224	4,000.49	68.3113	4,000.49	70.5273	4,000.49	69.506	4,000.49	73.1086	4,000.49	72.2972	4,000.49	73.7499
4,141.11	88.7557	4,141.11	88.1478	4,141.11	89.1239	4,141.11	87.4324	4,141.11	87.7451	4,141.11	86.2222	4,141.11	86.7971	4,141.11	83.8026	4,141.11	85.1754	4,141.11	83.5054	4,141.11	84.0746	4,141.11	81.1465	4,141.11	82.486	4,141.11	78.8089	4,141.11	80.8889	4,141.11	78.3961	4,141.11	79.6877	4,141.11	77.6307	4,141.11	78.335	4,141.11	74.2803	4,141.11	74.3409	4,141.11	71.7708	4,141.11	69.3172	4,141.11	75.0399	4,141.11	71.3134	4,141.11	75.1598	4,141.11	75.1653	4,141.11	73.0098	4,141.11	71.4806	4,141.11	68.1558	4,141.11	71.497	4,141.11	72.4627	4,141.11	68.9247	4,141.11	74.9328	4,141.11	73.5661	4,141.11	75.8396
4,287.6	88.8826	4,287.6	87.9921	4,287.6	88.8029	4,287.6	87.3873	4,287.6	88.4046	4,287.6	85.9691	4,287.6	86.9187	4,287.6	84.8748	4,287.6	86.1206	4,287.6	84.2292	4,287.6	84.3129	4,287.6	82.3052	4,287.6	82.4306	4,287.6	80.1726	4,287.6	81.4758	4,287.6	77.7701	4,287.6	78.7794	4,287.6	77.6528	4,287.6	78.3484	4,287.6	75.0711	4,287.6	76.5778	4,287.6	73.4381	4,287.6	74.1046	4,287.6	71.7383	4,287.6	71.7207	4,287.6	74.9452	4,287.6	72.0529	4,287.6	72.3657	4,287.6	74.3348	4,287.6	68.7311	4,287.6	71.4758	4,287.6	67.4125	4,287.6	65.8853	4,287.6	73.4591	4,287.6	73.4045	4,287.6	75.7884
4,438.48	87.3352	4,438.48	87.8844	4,438.48	87.0565	4,438.48	86.4972	4,438.48	87.7029	4,438.48	85.4977	4,438.48	86.2322	4,438.48	85.8917	4,438.48	85.0571	4,438.48	83.645	4,438.48	83.4837	4,438.48	82.1983	4,438.48	80.7794	4,438.48	80.8682	4,438.48	79.7202	4,438.48	77.3645	4,438.48	78.0059	4,438.48	77.6151	4,438.48	76.5415	4,438.48	75.7784	4,438.48	75.8949	4,438.48	73.1079	4,438.48	75.1547	4,438.48	69.3498	4,438.48	72.6255	4,438.48	70.2409	4,438.48	71.8966	4,438.48	74.6816	4,438.48	73.8804	4,438.48	73.8149	4,438.48	73.2024	4,438.48	59.1225	4,438.48	65.8681	4,438.48	71.5642	4,438.48	66.5346	4,438.48	73.2733
4,595.21	88.7671	4,595.21	89.1671	4,595.21	88.6603	4,595.21	88.5853	4,595.21	88.096	4,595.21	87.5358	4,595.21	87.4711	4,595.21	87.2303	4,595.21	85.731	4,595.21	84.6895	4,595.21	83.1605	4,595.21	81.4471	4,595.21	82.3372	4,595.21	79.5174	4,595.21	80.2743	4,595.21	78.5589	4,595.21	78.4262	4,595.21	76.7613	4,595.21	77.2614	4,595.21	74.0347	4,595.21	76.0967	4,595.21	74.6017	4,595.21	73.8011	4,595.21	72.0252	4,595.21	72.5175	4,595.21	70.0884	4,595.21	71.3989	4,595.21	74.2159	4,595.21	72.4618	4,595.21	73.1953	4,595.21	74.0011	4,595.21	67.7521	4,595.21	69.5669	4,595.21	70.2158	4,595.21	67.9386	4,595.21	72.4184
4,756.35	88.3002	4,756.35	88.0166	4,756.35	88.3258	4,756.35	88.5355	4,756.35	86.7097	4,756.35	86.9593	4,756.35	86.0716	4,756.35	84.9099	4,756.35	84.3107	4,756.35	83.7506	4,756.35	82.675	4,756.35	81.7092	4,756.35	81.562	4,756.35	79.8834	4,756.35	80.0381	4,756.35	78.7796	4,756.35	78.4206	4,756.35	77.1667	4,756.35	77.4189	4,756.35	73.7077	4,756.35	74.8567	4,756.35	76.1666	4,756.35	72.5934	4,756.35	73.5041	4,756.35	73.7667	4,756.35	73.0561	4,756.35	70.043	4,756.35	74.6855	4,756.35	68.7552	4,756.35	73.0385	4,756.35	72.6282	4,756.35	70.6607	4,756.35	70.0659	4,756.35	70.7521	4,756.35	68.297	4,756.35	73.4338
4,924.8	88.0136	4,924.8	87.5967	4,924.8	87.371	4,924.8	87.0449	4,924.8	87.0967	4,924.8	85.5101	4,924.8	85.5181	4,924.8	82.6711	4,924.8	85.0527	4,924.8	81.3137	4,924.8	84.3392	4,924.8	80.5324	4,924.8	82.6743	4,924.8	79.1118	4,924.8	79.8326	4,924.8	75.2894	4,924.8	76.8251	4,924.8	74.3042	4,924.8	77.051	4,924.8	73.7082	4,924.8	75.6573	4,924.8	74.5322	4,924.8	74.4355	4,924.8	71.3069	4,924.8	73.7557	4,924.8	68.5132	4,924.8	70.6824	4,924.8	68.9063	4,924.8	72.8354	4,924.8	71.1348	4,924.8	72.6334	4,924.8	66.2395	4,924.8	71.1536	4,924.8	70.6086	4,924.8	68.13	4,924.8	71.3366
5,097.66	86.051	5,097.66	86.7792	5,097.66	85.9782	5,097.66	85.1493	5,097.66	86.753	5,097.66	84.8696	5,097.66	85.4377	5,097.66	84.6562	5,097.66	85.028	5,097.66	83.1349	5,097.66	83.8207	5,097.66	80.8793	5,097.66	82.0994	5,097.66	79.1739	5,097.66	78.135	5,097.66	78.4611	5,097.66	76.5414	5,097.66	77.095	5,097.66	75.3501	5,097.66	77.6905	5,097.66	74.2541	5,097.66	74.1102	5,097.66	74.795	5,097.66	72.9809	5,097.66	72.3934	5,097.66	70.3688	5,097.66	72.6748	5,097.66	70.0201	5,097.66	70.7222	5,097.66	71.7025	5,097.66	72.1	5,097.66	67.3016	5,097.66	69.5389	5,097.66	69.7135	5,097.66	62.7061	5,097.66	72.0653
5,277.83	86.3117	5,277.83	86.1098	5,277.83	87.487	5,277.83	86.0242	5,277.83	85.7454	5,277.83	85.3718	5,277.83	86.5693	5,277.83	85.1798	5,277.83	84.6177	5,277.83	83.2568	5,277.83	82.7999	5,277.83	81.3076	5,277.83	81.6343	5,277.83	78.0896	5,277.83	79.9798	5,277.83	77.0426	5,277.83	75.9742	5,277.83	72.8011	5,277.83	74.8849	5,277.83	76.2717	5,277.83	74.6425	5,277.83	70.3723	5,277.83	72.5664	5,277.83	71.8657	5,277.83	72.4953	5,277.83	71.497	5,277.83	71.2634	5,277.83	68.7154	5,277.83	67.015	5,277.83	72.0578	5,277.83	70.9105	5,277.83	67.069	5,277.83	68.1738	5,277.83	69.6863	5,277.83	66.4126	5,277.83	72.2977
5,463.87	85.6197	5,463.87	85.1452	5,463.87	85.7642	5,463.87	87.0124	5,463.87	85.5904	5,463.87	85.9361	5,463.87	84.9572	5,463.87	85.0757	5,463.87	84.3019	5,463.87	83.3756	5,463.87	82.8438	5,463.87	81.7021	5,463.87	80.4737	5,463.87	79.8241	5,463.87	78.719	5,463.87	78.5597	5,463.87	79.197	5,463.87	76.5048	5,463.87	74.9486	5,463.87	69.9061	5,463.87	73.8306	5,463.87	71.7545	5,463.87	72.9842	5,463.87	74.0405	5,463.87	71.1217	5,463.87	71.2312	5,463.87	72.0835	5,463.87	69.6442	5,463.87	69.4192	5,463.87	71.8639	5,463.87	70.4211	5,463.87	66.4084	5,463.87	68.7915	5,463.87	64.1966	5,463.87	67.134	5,463.87	69.1237
5,657.23	86.6745	5,657.23	86.9875	5,657.23	85.5037	5,657.23	86.8878	5,657.23	86.6384	5,657.23	87.0769	5,657.23	85.2749	5,657.23	85.3274	5,657.23	85.8515	5,657.23	84.0143	5,657.23	84.3721	5,657.23	82.3811	5,657.23	81.9971	5,657.23	81.8998	5,657.23	79.7598	5,657.23	77.1168	5,657.23	79.8965	5,657.23	77.0065	5,657.23	76.5163	5,657.23	73.2344	5,657.23	74.2106	5,657.23	72.7608	5,657.23	73.4489	5,657.23	72.2101	5,657.23	72.2714	5,657.23	71.1248	5,657.23	72.7261	5,657.23	70.3701	5,657.23	70.3065	5,657.23	70.0134	5,657.23	71.9233	5,657.23	70.4824	5,657.23	71.8733	5,657.23	65.6204	5,657.23	62.8757	5,657.23	66.1472
5,856.45	86.0605	5,856.45	86.2815	5,856.45	86.419	5,856.45	85.6034	5,856.45	85.5862	5,856.45	85.7916	5,856.45	85.9512	5,856.45	85.3389	5,856.45	85.1427	5,856.45	84.2274	5,856.45	83.8776	5,856.45	82.8467	5,856.45	83.0753	5,856.45	81.7267	5,856.45	81.1288	5,856.45	77.6613	5,856.45	77.7639	5,856.45	78.0011	5,856.45	77.4307	5,856.45	77.6891	5,856.45	74.6944	5,856.45	73.7452	5,856.45	72.5976	5,856.45	72.5461	5,856.45	72.2569	5,856.45	71.2588	5,856.45	72.1111	5,856.45	68.9236	5,856.45	68.4626	5,856.45	73.1655	5,856.45	70.8634	5,856.45	71.7119	5,856.45	70.9571	5,856.45	62.9133	5,856.45	65.1716	5,856.45	68.3859
6,062.99	87.3896	6,062.99	87.5807	6,062.99	87.7776	6,062.99	87.4692	6,062.99	86.4979	6,062.99	86.5658	6,062.99	86.6944	6,062.99	87.1343	6,062.99	85.5887	6,062.99	85.2094	6,062.99	84.3851	6,062.99	83.8205	6,062.99	83.608	6,062.99	79.1572	6,062.99	80.9211	6,062.99	79.088	6,062.99	78.7104	6,062.99	75.4621	6,062.99	76.7565	6,062.99	77.2189	6,062.99	74.2213	6,062.99	75.2841	6,062.99	72.745	6,062.99	73.5255	6,062.99	71.3506	6,062.99	72.6693	6,062.99	71.5462	6,062.99	67.3001	6,062.99	67.4178	6,062.99	69.5001	6,062.99	63.9024	6,062.99	70.3123	6,062.99	68.4699	6,062.99	66.2281	6,062.99	64.5635	6,062.99	67.5828
6,276.86	87.7841	6,276.86	87.8997	6,276.86	87.2033	6,276.86	87.859	6,276.86	87.8962	6,276.86	87.2652	6,276.86	86.5465	6,276.86	86.9315	6,276.86	86.232	6,276.86	84.9572	6,276.86	85.5533	6,276.86	84.0166	6,276.86	83.5448	6,276.86	80.1822	6,276.86	81.1802	6,276.86	79.9071	6,276.86	80.0815	6,276.86	77.2351	6,276.86	77.072	6,276.86	75.6127	6,276.86	73.5363	6,276.86	75.3931	6,276.86	73.2089	6,276.86	73.1302	6,276.86	71.1049	6,276.86	73.1506	6,276.86	72.3912	6,276.86	71.0965	6,276.86	71.1811	6,276.86	70.6713	6,276.86	67.8143	6,276.86	70.5964	6,276.86	69.487	6,276.86	68.923	6,276.86	65.8432	6,276.86	67.3028
6,498.05	87.577	6,498.05	87.4602	6,498.05	87.712	6,498.05	87.7824	6,498.05	87.9883	6,498.05	87.3753	6,498.05	87.3315	6,498.05	86.2627	6,498.05	86.0922	6,498.05	85.0138	6,498.05	85.0945	6,498.05	83.2252	6,498.05	83.5423	6,498.05	82.6985	6,498.05	82.3641	6,498.05	80.1676	6,498.05	80.0691	6,498.05	78.9239	6,498.05	76.6204	6,498.05	73.484	6,498.05	74.6986	6,498.05	73.062	6,498.05	72.875	6,498.05	71.7652	6,498.05	71.1474	6,498.05	71.7608	6,498.05	70.5344	6,498.05	73.903	6,498.05	73.0361	6,498.05	69.3328	6,498.05	68.1912	6,498.05	69.8437	6,498.05	70.5975	6,498.05	69.1091	6,498.05	67.3887	6,498.05	68.3452
6,726.56	88.0246	6,726.56	88.1253	6,726.56	88.7677	6,726.56	88.439	6,726.56	88.0756	6,726.56	87.9366	6,726.56	88.4469	6,726.56	86.8919	6,726.56	87.0377	6,726.56	85.0122	6,726.56	85.1361	6,726.56	82.5032	6,726.56	83.7705	6,726.56	82.2953	6,726.56	82.0152	6,726.56	78.6479	6,726.56	77.3185	6,726.56	77.9087	6,726.56	76.9616	6,726.56	75.8027	6,726.56	75.1794	6,726.56	72.8979	6,726.56	73.8973	6,726.56	72.2288	6,726.56	73.5353	6,726.56	70.1244	6,726.56	71.7177	6,726.56	71.204	6,726.56	70.3395	6,726.56	69.5939	6,726.56	69.5919	6,726.56	69.5796	6,726.56	71.2667	6,726.56	63.4089	6,726.56	63.1927	6,726.56	65.4893
6,963.87	88.3141	6,963.87	88.286	6,963.87	87.6919	6,963.87	88.3478	6,963.87	88.0639	6,963.87	86.9963	6,963.87	87.1839	6,963.87	86.51	6,963.87	87.1097	6,963.87	83.5824	6,963.87	84.6032	6,963.87	81.954	6,963.87	82.7104	6,963.87	78.5501	6,963.87	79.1652	6,963.87	77.4002	6,963.87	77.7857	6,963.87	75.2402	6,963.87	75.0747	6,963.87	75.2403	6,963.87	74.3925	6,963.87	72.2847	6,963.87	71.7924	6,963.87	72.141	6,963.87	71.9531	6,963.87	73.2927	6,963.87	70.062	6,963.87	70.0393	6,963.87	69.0062	6,963.87	69.6584	6,963.87	70.7537	6,963.87	69.3309	6,963.87	72.5298	6,963.87	64.2071	6,963.87	69.4003	6,963.87	66.096
7,209.96	88.2885	7,209.96	88.6201	7,209.96	88.524	7,209.96	88.5282	7,209.96	88.533	7,209.96	87.3498	7,209.96	87.3686	7,209.96	86.2952	7,209.96	86.7873	7,209.96	84.3694	7,209.96	85.0082	7,209.96	82.3087	7,209.96	83.4616	7,209.96	79.2691	7,209.96	81.9279	7,209.96	77.3376	7,209.96	78.0951	7,209.96	74.7733	7,209.96	76.3948	7,209.96	72.6356	7,209.96	74.0124	7,209.96	69.8849	7,209.96	72.7761	7,209.96	69.9243	7,209.96	70.6331	7,209.96	72.0856	7,209.96	69.155	7,209.96	71.6979	7,209.96	70.2961	7,209.96	69.6689	7,209.96	72.2344	7,209.96	68.7483	7,209.96	69.3349	7,209.96	64.4053	7,209.96	69.2818	7,209.96	66.8838
7,464.84	87.9535	7,464.84	87.7733	7,464.84	88.2543	7,464.84	87.5916	7,464.84	87.6227	7,464.84	86.7263	7,464.84	86.9714	7,464.84	84.9439	7,464.84	85.5922	7,464.84	83.8656	7,464.84	83.0826	7,464.84	80.4443	7,464.84	82.4829	7,464.84	78.4788	7,464.84	80.8011	7,464.84	76.5167	7,464.84	77.4753	7,464.84	74.4948	7,464.84	75.7318	7,464.84	71.7595	7,464.84	74.2691	7,464.84	65.4042	7,464.84	70.6961	7,464.84	71.7009	7,464.84	70.8173	7,464.84	67.8784	7,464.84	70.1832	7,464.84	67.4526	7,464.84	70.2164	7,464.84	69.8316	7,464.84	68.1279	7,464.84	68.4586	7,464.84	67.807	7,464.84	59.0583	7,464.84	63.2853	7,464.84	62.9041
7,727.05	87.8953	7,727.05	87.5958	7,727.05	87.9311	7,727.05	87.119	7,727.05	87.5184	7,727.05	86.7056	7,727.05	87.0072	7,727.05	85.3002	7,727.05	85.7219	7,727.05	83.6418	7,727.05	83.5057	7,727.05	80.7563	7,727.05	81.4281	7,727.05	79.8357	7,727.05	79.3596	7,727.05	76.749	7,727.05	77.2041	7,727.05	73.9985	7,727.05	76.6089	7,727.05	73.859	7,727.05	72.3258	7,727.05	72.1484	7,727.05	72.0211	7,727.05	71.6718	7,727.05	70.7492	7,727.05	66.5168	7,727.05	66.6523	7,727.05	71.3935	7,727.05	69.2688	7,727.05	69.1549	7,727.05	67.8618	7,727.05	67.96	7,727.05	67.4658	7,727.05	63.9956	7,727.05	65.4214	7,727.05	64.1592
7,999.51	87.5549	7,999.51	86.7314	7,999.51	86.8896	7,999.51	86.0983	7,999.51	86.596	7,999.51	86.1474	7,999.51	85.5195	7,999.51	85.4331	7,999.51	85.0638	7,999.51	81.8984	7,999.51	84.2144	7,999.51	81.7027	7,999.51	81.1536	7,999.51	79.552	7,999.51	80.1217	7,999.51	76.3349	7,999.51	76.154	7,999.51	73.539	7,999.51	75.9242	7,999.51	72.9091	7,999.51	73.3188	7,999.51	73.3544	7,999.51	72.0323	7,999.51	70.8553	7,999.51	67.2481	7,999.51	67.2253	7,999.51	69.1376	7,999.51	69.6974	7,999.51	68.9829	7,999.51	68.3171	7,999.51	67.0147	7,999.51	68.3429	7,999.51	68.9046	7,999.51	62.0134	7,999.51	68.2814	7,999.51	64.1185
8,282.23	86.9119	8,282.23	87.1047	8,282.23	87.3206	8,282.23	86.3829	8,282.23	86.813	8,282.23	85.6741	8,282.23	86.2534	8,282.23	84.8183	8,282.23	84.7243	8,282.23	84.1855	8,282.23	83.5164	8,282.23	81.6837	8,282.23	81.6586	8,282.23	78.5554	8,282.23	80.1439	8,282.23	76.4952	8,282.23	77.7949	8,282.23	74.6872	8,282.23	75.8447	8,282.23	73.036	8,282.23	74.1711	8,282.23	72.2923	8,282.23	70.491	8,282.23	68.6479	8,282.23	70.3334	8,282.23	67.2409	8,282.23	68.0273	8,282.23	68.6056	8,282.23	65.6804	8,282.23	67.8708	8,282.23	66.1388	8,282.23	67.493	8,282.23	70.1352	8,282.23	60.16	8,282.23	67.4809	8,282.23	61.1109
8,573.73	86.6529	8,573.73	86.9311	8,573.73	87.0691	8,573.73	86.2741	8,573.73	86.8188	8,573.73	85.5099	8,573.73	86.6286	8,573.73	85.1929	8,573.73	85.7151	8,573.73	82.8821	8,573.73	84.2761	8,573.73	80.9009	8,573.73	83.1453	8,573.73	78.3658	8,573.73	78.622	8,573.73	75.6891	8,573.73	78.2794	8,573.73	74.2731	8,573.73	74.9726	8,573.73	71.3332	8,573.73	74.8112	8,573.73	70.9785	8,573.73	70.8228	8,573.73	66.2465	8,573.73	70.6694	8,573.73	67.4564	8,573.73	66.2558	8,573.73	67.0923	8,573.73	66.072	8,573.73	65.418	8,573.73	67.2657	8,573.73	67.5197	8,573.73	68.1719	8,573.73	63.3091	8,573.73	68.3244	8,573.73	59.9497
8,876.95	86.8003	8,876.95	86.975	8,876.95	86.6747	8,876.95	86.0377	8,876.95	86.3089	8,876.95	85.8879	8,876.95	85.8647	8,876.95	85.0271	8,876.95	85.7745	8,876.95	83.0299	8,876.95	84.5837	8,876.95	82.0666	8,876.95	82.488	8,876.95	79.4015	8,876.95	79.7418	8,876.95	76.7625	8,876.95	77.3423	8,876.95	73.9262	8,876.95	74.997	8,876.95	70.5929	8,876.95	73.3323	8,876.95	71.4818	8,876.95	71.002	8,876.95	65.5598	8,876.95	66.9327	8,876.95	64.7279	8,876.95	66.9317	8,876.95	65.1216	8,876.95	65.4829	8,876.95	65.5326	8,876.95	67.4101	8,876.95	68.3745	8,876.95	67.1948	8,876.95	57.8703	8,876.95	64.91	8,876.95	58.8472
9,188.96	87.7126	9,188.96	86.4759	9,188.96	87.225	9,188.96	86.7985	9,188.96	87.0785	9,188.96	86.2616	9,188.96	86.8366	9,188.96	85.156	9,188.96	85.8545	9,188.96	83.958	9,188.96	84.7977	9,188.96	81.32	9,188.96	83.1871	9,188.96	79.1286	9,188.96	79.173	9,188.96	76.8783	9,188.96	79.1915	9,188.96	74.4185	9,188.96	74.7281	9,188.96	72.4929	9,188.96	74.6829	9,188.96	70.2783	9,188.96	69.9385	9,188.96	68.3787	9,188.96	70.9555	9,188.96	64.4793	9,188.96	67.7986	9,188.96	64.9663	9,188.96	66.3758	9,188.96	67.4509	9,188.96	68.7396	9,188.96	69.056	9,188.96	69.3136	9,188.96	60.457	9,188.96	65.9719	9,188.96	61.5286
9,514.16	87.1878	9,514.16	86.9763	9,514.16	87.6332	9,514.16	86.7532	9,514.16	86.8574	9,514.16	86.6388	9,514.16	86.5409	9,514.16	85.533	9,514.16	85.9528	9,514.16	83.8072	9,514.16	85.1653	9,514.16	82.0205	9,514.16	82.8066	9,514.16	77.9392	9,514.16	79.9958	9,514.16	76.8078	9,514.16	76.8389	9,514.16	74.1151	9,514.16	74.1901	9,514.16	70.9822	9,514.16	72.3573	9,514.16	66.7285	9,514.16	70.2681	9,514.16	69.604	9,514.16	68.48	9,514.16	64.5676	9,514.16	65.3617	9,514.16	64.7728	9,514.16	66.3997	9,514.16	67.799	9,514.16	69.7938	9,514.16	69.1579	9,514.16	67.9215	9,514.16	58.6013	9,514.16	66.6905	9,514.16	62.2436
9,849.61	87.756	9,849.61	87.144	9,849.61	87.6754	9,849.61	87.3081	9,849.61	87.7842	9,849.61	86.623	9,849.61	86.727	9,849.61	85.9143	9,849.61	85.9741	9,849.61	83.7701	9,849.61	84.3592	9,849.61	81.1635	9,849.61	82.3685	9,849.61	79.2793	9,849.61	79.9087	9,849.61	76.2052	9,849.61	76.8019	9,849.61	71.2521	9,849.61	74.3717	9,849.61	71.3438	9,849.61	71.164	9,849.61	66.5256	9,849.61	68.8361	9,849.61	67.3392	9,849.61	67.3463	9,849.61	66.1457	9,849.61	68.3198	9,849.61	64.3021	9,849.61	67.2313	9,849.61	69.3365	9,849.61	68.7073	9,849.61	66.9604	9,849.61	66.1679	9,849.61	60.3776	9,849.61	66.4555	9,849.61	62.2199
10,196.8	87.7581	10,196.8	87.4052	10,196.8	87.8578	10,196.8	86.9097	10,196.8	86.5478	10,196.8	85.8154	10,196.8	86.3198	10,196.8	85.2762	10,196.8	85.7618	10,196.8	82.7237	10,196.8	83.7311	10,196.8	80.4708	10,196.8	81.6475	10,196.8	77.2194	10,196.8	79.7885	10,196.8	75.1757	10,196.8	75.4532	10,196.8	72.5235	10,196.8	73.9321	10,196.8	70.6057	10,196.8	70.9068	10,196.8	67.8146	10,196.8	67.2381	10,196.8	68.4044	10,196.8	66.9054	10,196.8	67.0831	10,196.8	64.7934	10,196.8	64.6589	10,196.8	61.6929	10,196.8	67.6743	10,196.8	68.0963	10,196.8	65.3494	10,196.8	65.6943	10,196.8	64.5969	10,196.8	67.6547	10,196.8	58.488
10,555.7	87.4599	10,555.7	86.9502	10,555.7	87.1185	10,555.7	86.3626	10,555.7	86.966	10,555.7	85.3173	10,555.7	85.7357	10,555.7	84.3601	10,555.7	84.5403	10,555.7	81.3416	10,555.7	82.7959	10,555.7	79.2287	10,555.7	81.1295	10,555.7	76.5655	10,555.7	79.0808	10,555.7	73.6957	10,555.7	74.6511	10,555.7	72.4975	10,555.7	73.6887	10,555.7	67.6249	10,555.7	70.4716	10,555.7	66.0926	10,555.7	67.1469	10,555.7	66.1369	10,555.7	67.1009	10,555.7	69.6675	10,555.7	63.2442	10,555.7	64.4235	10,555.7	63.6495	10,555.7	65.9762	10,555.7	66.3685	10,555.7	65.413	10,555.7	62.3607	10,555.7	63.9931	10,555.7	65.7898	10,555.7	53.4151
10,927.7	87.5535	10,927.7	86.9937	10,927.7	87.4366	10,927.7	86.0744	10,927.7	86.3809	10,927.7	84.9038	10,927.7	85.8637	10,927.7	83.5752	10,927.7	84.6569	10,927.7	81.0459	10,927.7	82.5108	10,927.7	78.2819	10,927.7	81.3731	10,927.7	76.6735	10,927.7	79.2593	10,927.7	73.4599	10,927.7	74.8818	10,927.7	71.7778	10,927.7	73.7611	10,927.7	68.0479	10,927.7	69.9814	10,927.7	66.7297	10,927.7	69.4991	10,927.7	64.7319	10,927.7	66.1644	10,927.7	64.6283	10,927.7	65.3494	10,927.7	63.1546	10,927.7	65.7037	10,927.7	63.3669	10,927.7	65.8389	10,927.7	64.3408	10,927.7	60.0241	10,927.7	64.1104	10,927.7	65.6431	10,927.7	56.7475
11,313	87.1573	11,313	86.7132	11,313	87.2495	11,313	85.8281	11,313	86.6515	11,313	84.9021	11,313	85.5253	11,313	83.3649	11,313	84.4914	11,313	80.8586	11,313	82.8768	11,313	78.8222	11,313	80.7694	11,313	76.4596	11,313	78.0949	11,313	73.8457	11,313	76.1492	11,313	70.5598	11,313	72.3573	11,313	66.986	11,313	70.8308	11,313	65.2104	11,313	69.1891	11,313	62.9008	11,313	65.6153	11,313	58.2238	11,313	63.9594	11,313	63.0755	11,313	65.6245	11,313	64.4236	11,313	65.5517	11,313	62.9185	11,313	64.3728	11,313	61.8803	11,313	65.7958	11,313	58.5107
11,712.9	87.7961	11,712.9	87.5064	11,712.9	87.8488	11,712.9	86.1619	11,712.9	86.8932	11,712.9	85.2516	11,712.9	85.9308	11,712.9	83.2487	11,712.9	84.9049	11,712.9	81.5991	11,712.9	83.5527	11,712.9	78.8067	11,712.9	81.1157	11,712.9	75.7612	11,712.9	77.8871	11,712.9	73.553	11,712.9	75.649	11,712.9	71.4674	11,712.9	73.7373	11,712.9	69.098	11,712.9	71.4139	11,712.9	67.0754	11,712.9	69.0289	11,712.9	66.0205	11,712.9	67.1355	11,712.9	63.0121	11,712.9	66.3413	11,712.9	63.3124	11,712.9	66.1044	11,712.9	65.4768	11,712.9	64.0496	11,712.9	61.235	11,712.9	63.6317	11,712.9	63.2233	11,712.9	65.0758	11,712.9	55.4526
12,126	87.8635	12,126	87.3684	12,126	87.8775	12,126	86.1773	12,126	86.8827	12,126	84.9464	12,126	85.5514	12,126	83.6856	12,126	84.8207	12,126	81.1917	12,126	83.1695	12,126	79.0354	12,126	80.9907	12,126	75.783	12,126	78.1632	12,126	73.8506	12,126	75.3837	12,126	69.6364	12,126	73.2358	12,126	66.0244	12,126	69.66	12,126	67.6919	12,126	67.2965	12,126	64.1649	12,126	66.3436	12,126	65.7237	12,126	67.0351	12,126	64.3083	12,126	63.9415	12,126	63.0397	12,126	63.5236	12,126	61.4353	12,126	60.0293	12,126	62.3908	12,126	64.2209	12,126	56.4409
12,553.7	87.8204	12,553.7	87.2817	12,553.7	87.546	12,553.7	85.9316	12,553.7	86.7393	12,553.7	84.6274	12,553.7	85.3679	12,553.7	83.6267	12,553.7	84.308	12,553.7	81.2517	12,553.7	83.0678	12,553.7	79.0056	12,553.7	80.7867	12,553.7	76.2838	12,553.7	78.5301	12,553.7	72.129	12,553.7	75.6397	12,553.7	71.3916	12,553.7	72.9555	12,553.7	66.9992	12,553.7	70.6348	12,553.7	65.9429	12,553.7	66.3748	12,553.7	63.6389	12,553.7	68.0355	12,553.7	65.9217	12,553.7	62.3897	12,553.7	62.7477	12,553.7	60.1036	12,553.7	61.7371	12,553.7	64.572	12,553.7	60.966	12,553.7	62.834	12,553.7	56.2991	12,553.7	62.085	12,553.7	51.504
12,996.1	87.6971	12,996.1	86.6819	12,996.1	87.3185	12,996.1	85.9177	12,996.1	86.5847	12,996.1	84.3642	12,996.1	85.2414	12,996.1	83.3558	12,996.1	83.9255	12,996.1	80.567	12,996.1	82.679	12,996.1	79.2217	12,996.1	80.6146	12,996.1	77.0028	12,996.1	78.096	12,996.1	73.9715	12,996.1	76.0315	12,996.1	69.8856	12,996.1	72.0071	12,996.1	67.8402	12,996.1	69.9784	12,996.1	65.177	12,996.1	67.466	12,996.1	62.7787	12,996.1	64.6156	12,996.1	66.2007	12,996.1	65.2144	12,996.1	62.0071	12,996.1	63.5619	12,996.1	64.2361	12,996.1	64.884	12,996.1	60.2185	12,996.1	61.8501	12,996.1	59.3896	12,996.1	62.9639	12,996.1	48.501
13,454.6	87.5609	13,454.6	87.1543	13,454.6	87.0951	13,454.6	85.6585	13,454.6	86.5155	13,454.6	83.441	13,454.6	85.3801	13,454.6	82.3939	13,454.6	83.69	13,454.6	80.5928	13,454.6	82.2358	13,454.6	78.1516	13,454.6	80.1556	13,454.6	75.4232	13,454.6	78.0358	13,454.6	72.2543	13,454.6	74.6693	13,454.6	69.1475	13,454.6	72.0077	13,454.6	67.0856	13,454.6	67.3644	13,454.6	62.4415	13,454.6	66.7875	13,454.6	61.4486	13,454.6	63.747	13,454.6	61.8891	13,454.6	63.0577	13,454.6	63.6056	13,454.6	62.0445	13,454.6	61.638	13,454.6	63.4401	13,454.6	59.3741	13,454.6	61.8004	13,454.6	60.6181	13,454.6	61.2081	13,454.6	48.4759
13,929.2	87.0838	13,929.2	86.684	13,929.2	87.487	13,929.2	85.3268	13,929.2	86.2107	13,929.2	84.0781	13,929.2	84.6366	13,929.2	81.7371	13,929.2	83.0169	13,929.2	79.817	13,929.2	81.9078	13,929.2	77.9837	13,929.2	80.0699	13,929.2	73.9449	13,929.2	77.7747	13,929.2	72.507	13,929.2	73.2942	13,929.2	70.157	13,929.2	71.0645	13,929.2	66.3048	13,929.2	67.2986	13,929.2	66.2114	13,929.2	65.7929	13,929.2	62.4025	13,929.2	62.8567	13,929.2	61.2164	13,929.2	62.6599	13,929.2	61.4825	13,929.2	60.9639	13,929.2	61.5732	13,929.2	60.1971	13,929.2	59.6507	13,929.2	59.5183	13,929.2	59.4017	13,929.2	58.992	13,929.2	47.0728
14,419.9	87.2534	14,419.9	86.3031	14,419.9	87.5149	14,419.9	85.4823	14,419.9	86.2326	14,419.9	82.9401	14,419.9	84.726	14,419.9	81.6774	14,419.9	83.3356	14,419.9	79.8235	14,419.9	81.9665	14,419.9	77.9977	14,419.9	79.7072	14,419.9	74.1043	14,419.9	77.2911	14,419.9	71.2785	14,419.9	74.2031	14,419.9	69.2299	14,419.9	71.3027	14,419.9	64.8343	14,419.9	68.0729	14,419.9	65.5575	14,419.9	65.4222	14,419.9	61.883	14,419.9	64.3951	14,419.9	54.6341	14,419.9	60.2984	14,419.9	58.8157	14,419.9	60.4765	14,419.9	57.4849	14,419.9	62.3538	14,419.9	57.9658	14,419.9	61.0261	14,419.9	59.3303	14,419.9	60.7496	14,419.9	45.9938
14,928.2	87.8851	14,928.2	87.1526	14,928.2	87.7231	14,928.2	85.2207	14,928.2	86.7945	14,928.2	82.7722	14,928.2	84.859	14,928.2	82.1187	14,928.2	83.3786	14,928.2	79.3687	14,928.2	82.1727	14,928.2	77.4271	14,928.2	80.0212	14,928.2	74.652	14,928.2	77.2242	14,928.2	70.8875	14,928.2	74.2445	14,928.2	67.3964	14,928.2	70.648	14,928.2	64.7245	14,928.2	67.573	14,928.2	64.1037	14,928.2	66.2027	14,928.2	59.6108	14,928.2	63.2851	14,928.2	60.491	14,928.2	60.6796	14,928.2	49.8937	14,928.2	61.6235	14,928.2	59.8233	14,928.2	62.5026	14,928.2	58.5404	14,928.2	59.1564	14,928.2	58.077	14,928.2	60.5534	14,928.2	45.3425
15,455.6	88.1592	15,455.6	87.6454	15,455.6	87.9616	15,455.6	85.6082	15,455.6	86.8568	15,455.6	83.3312	15,455.6	85.0319	15,455.6	81.9192	15,455.6	83.6276	15,455.6	79.4744	15,455.6	81.8619	15,455.6	77.2931	15,455.6	79.4209	15,455.6	73.4866	15,455.6	76.0586	15,455.6	69.6286	15,455.6	72.9538	15,455.6	67.4892	15,455.6	69.4578	15,455.6	62.7249	15,455.6	67.6424	15,455.6	62.1298	15,455.6	64.5983	15,455.6	57.3647	15,455.6	63.5244	15,455.6	59.4411	15,455.6	59.1207	15,455.6	56.4531	15,455.6	58.2025	15,455.6	58.6692	15,455.6	61.5827	15,455.6	56.8285	15,455.6	59.4458	15,455.6	54.1819	15,455.6	57.5168	15,455.6	50.7017
16,000.5	88.064	16,000.5	87.1922	16,000.5	87.9514	16,000.5	85.5549	16,000.5	86.9956	16,000.5	83.3309	16,000.5	84.8943	16,000.5	81.5647	16,000.5	83.2561	16,000.5	78.6651	16,000.5	81.3947	16,000.5	76.3334	16,000.5	78.8225	16,000.5	72.1628	16,000.5	75.4581	16,000.5	69.2631	16,000.5	72.1272	16,000.5	65.7039	16,000.5	69.0395	16,000.5	63.3134	16,000.5	66.0319	16,000.5	60.1357	16,000.5	63.8523	16,000.5	57.7441	16,000.5	62.2953	16,000.5	57.1331	16,000.5	54.4292	16,000.5	52.2689	16,000.5	57.7032	16,000.5	59.112	16,000.5	61.0855	16,000.5	56.7127	16,000.5	60.364	16,000.5	51.5528	16,000.5	55.0548	16,000.5	47.3469
16,564.5	87.9134	16,564.5	86.9927	16,564.5	87.9924	16,564.5	85.4584	16,564.5	86.8203	16,564.5	82.827	16,564.5	84.8524	16,564.5	81.3366	16,564.5	82.8088	16,564.5	77.8887	16,564.5	81.2007	16,564.5	75.2438	16,564.5	78.2918	16,564.5	70.4679	16,564.5	75.5346	16,564.5	67.0413	16,564.5	71.0778	16,564.5	63.2684	16,564.5	68.5796	16,564.5	61.2105	16,564.5	64.4547	16,564.5	58.1623	16,564.5	62.7674	16,564.5	55.05	16,564.5	62.0682	16,564.5	60.4521	16,564.5	48.8037	16,564.5	49.9747	16,564.5	56.8193	16,564.5	52.5776	16,564.5	57.012	16,564.5	55.9136	16,564.5	58.8299	16,564.5	52.7977	16,564.5	55.7806	16,564.5	45.5892
17,148.9	88.0214	17,148.9	86.901	17,148.9	87.9326	17,148.9	85.0831	17,148.9	86.6227	17,148.9	82.6816	17,148.9	84.7346	17,148.9	80.955	17,148.9	82.6738	17,148.9	76.8712	17,148.9	80.8427	17,148.9	73.6364	17,148.9	77.6916	17,148.9	68.5891	17,148.9	74.7774	17,148.9	64.3981	17,148.9	70.3056	17,148.9	62.972	17,148.9	68.2466	17,148.9	58.9378	17,148.9	63.8074	17,148.9	55.5882	17,148.9	63.8751	17,148.9	56.4394	17,148.9	60.2555	17,148.9	56.8057	17,148.9	53.1147	17,148.9	49.2127	17,148.9	56.1775	17,148.9	52.6255	17,148.9	58.5136	17,148.9	50.7678	17,148.9	57.9731	17,148.9	52.5333	17,148.9	56.7898	17,148.9	37.5849
17,752.4	87.9605	17,752.4	86.9246	17,752.4	87.7349	17,752.4	84.9675	17,752.4	86.4785	17,752.4	82.3751	17,752.4	84.4023	17,752.4	80.0171	17,752.4	82.2579	17,752.4	75.2407	17,752.4	79.9909	17,752.4	71.4998	17,752.4	77.263	17,752.4	67.2871	17,752.4	74.8275	17,752.4	61.6967	17,752.4	70.4164	17,752.4	61.2505	17,752.4	68.0873	17,752.4	56.4001	17,752.4	64.677	17,752.4	56.4895	17,752.4	62.9128	17,752.4	51.379	17,752.4	59.1321	17,752.4	54.1927	17,752.4	55.0821	17,752.4	49.6274	17,752.4	58.3052	17,752.4	53.9332	17,752.4	59.1002	17,752.4	52.3771	17,752.4	60.4262	17,752.4	54.4271	17,752.4	55.4527	17,752.4	39.2098
18,379.4	87.7302	18,379.4	86.715	18,379.4	87.4888	18,379.4	85.029	18,379.4	86.0889	18,379.4	82.0667	18,379.4	83.7657	18,379.4	79.1377	18,379.4	81.6047	18,379.4	74.4174	18,379.4	79.4534	18,379.4	69.9454	18,379.4	76.7879	18,379.4	64.5561	18,379.4	73.9883	18,379.4	63.4372	18,379.4	68.7687	18,379.4	62.0822	18,379.4	67.083	18,379.4	58.9673	18,379.4	63.2652	18,379.4	57.2689	18,379.4	62.284	18,379.4	54.3781	18,379.4	58.8598	18,379.4	57.2893	18,379.4	48.9108	18,379.4	50.3243	18,379.4	56.4631	18,379.4	52.8548	18,379.4	57.8128	18,379.4	49.6705	18,379.4	55.6715	18,379.4	57.7385	18,379.4	55.7993	18,379.4	43.6084
19,026.9	87.1828	19,026.9	86.2789	19,026.9	86.8873	19,026.9	84.591	19,026.9	85.2338	19,026.9	81.6571	19,026.9	83.1151	19,026.9	78.8942	19,026.9	80.8064	19,026.9	73.9913	19,026.9	78.7776	19,026.9	70.7303	19,026.9	75.5962	19,026.9	67.4475	19,026.9	72.8201	19,026.9	65.7845	19,026.9	68.7677	19,026.9	64.2914	19,026.9	65.6759	19,026.9	60.317	19,026.9	62.6781	19,026.9	60.1112	19,026.9	59.7728	19,026.9	55.4022	19,026.9	57.2191	19,026.9	52.5438	19,026.9	50.8071	19,026.9	53.1501	19,026.9	54.7758	19,026.9	53.7138	19,026.9	55.9423	19,026.9	51.9187	19,026.9	54.5686	19,026.9	55.2164	19,026.9	52.0757	19,026.9	47.4285
19,697.8	86.594	19,697.8	85.6848	19,697.8	86.1454	19,697.8	83.7729	19,697.8	84.5517	19,697.8	80.637	19,697.8	82.3221	19,697.8	77.9746	19,697.8	79.7378	19,697.8	73.4496	19,697.8	77.7653	19,697.8	71.2131	19,697.8	74.7236	19,697.8	68.8883	19,697.8	71.7583	19,697.8	66.0148	19,697.8	68.2419	19,697.8	62.7842	19,697.8	64.8325	19,697.8	61.65	19,697.8	61.5892	19,697.8	58.7711	19,697.8	60.1333	19,697.8	55.5788	19,697.8	55.4494	19,697.8	56.1254	19,697.8	54.0701	19,697.8	53.5532	19,697.8	54.6775	19,697.8	54.7691	19,697.8	54.8206	19,697.8	53.6469	19,697.8	54.387	19,697.8	49.6509	19,697.8	50.1459	19,697.8	49.0529
19,999.5	86.2027	19,999.5	84.9613	19,999.5	85.9321	19,999.5	83.912	19,999.5	84.196	19,999.5	79.982	19,999.5	81.7511	19,999.5	77.8243	19,999.5	79.7872	19,999.5	74.4515	19,999.5	77.4503	19,999.5	71.3515	19,999.5	73.623	19,999.5	67.7266	19,999.5	70.8414	19,999.5	66.5095	19,999.5	66.4916	19,999.5	64.2233	19,999.5	62.3929	19,999.5	57.8887	19,999.5	62.0521	19,999.5	57.1355	19,999.5	58.126	19,999.5	55.9074	19,999.5	53.4565	19,999.5	62.039	19,999.5	52.2497	19,999.5	56.3827	19,999.5	53.6687	19,999.5	49.6931	19,999.5	55.4934	19,999.5	50.2296	19,999.5	57.0614	19,999.5	54.0445	19,999.5	43.01	19,999.5	45.7366
