"SPL Vertical"																																																																							
"On-Axis"		"10°"		"-10°"		"20°"		"-20°"		"30°"		"-30°"		"40°"		"-40°"		"50°"		"-50°"		"60°"		"-60°"		"70°"		"-70°"		"80°"		"-80°"		"90°"		"-90°"		"100°"		"-100°"		"110°"		"-110°"		"120°"		"-120°"		"130°"		"-130°"		"140°"		"-140°"		"150°"		"-150°"		"160°"		"-160°"		"170°"		"-170°"		"180°"	
"Frequency [Hz]"	"Sound Pessure Level [dB]    /  [	2.83	V at 	35	m]"	"Frequency [Hz]"	"Sound Pessure Level [dB]    /  [	2.83	V at 	35	m]"	"Frequency [Hz]"	"Sound Pessure Level [dB]    /  [	2.83	V at 	35	m]"	"Frequency [Hz]"	"Sound Pessure Level [dB]    /  [	2.83	V at 	35	m]"	"Frequency [Hz]"	"Sound Pessure Level [dB]    /  [	2.83	V at 	35	m]"	"Frequency [Hz]"	"Sound Pessure Level [dB]    /  [	2.83	V at 	35	m]"	"Frequency [Hz]"	"Sound Pessure Level [dB]    /  [	2.83	V at 	35	m]"	"Frequency [Hz]"	"Sound Pessure Level [dB]    /  [	2.83	V at 	35	m]"	"Frequency [Hz]"	"Sound Pessure Level [dB]    /  [	2.83	V at 	35	m]"	"Frequency [Hz]"	"Sound Pessure Level [dB]    /  [	2.83	V at 	35	m]"	"Frequency [Hz]"	"Sound Pessure Level [dB]    /  [	2.83	V at 	35	m]"	"Frequency [Hz]"	"Sound Pessure Level [dB]    /  [	2.83	V at 	35	m]"	"Frequency [Hz]"	"Sound Pessure Level [dB]    /  [	2.83	V at 	35	m]"	"Frequency [Hz]"	"Sound Pessure Level [dB]    /  [	2.83	V at 	35	m]"	"Frequency [Hz]"	"Sound Pessure Level [dB]    /  [	2.83	V at 	35	m]"	"Frequency [Hz]"	"Sound Pessure Level [dB]    /  [	2.83	V at 	35	m]"	"Frequency [Hz]"	"Sound Pessure Level [dB]    /  [	2.83	V at 	35	m]"	"Frequency [Hz]"	"Sound Pessure Level [dB]    /  [	2.83	V at 	35	m]"	"Frequency [Hz]"	"Sound Pessure Level [dB]    /  [	2.83	V at 	35	m]"	"Frequency [Hz]"	"Sound Pessure Level [dB]    /  [	2.83	V at 	35	m]"	"Frequency [Hz]"	"Sound Pessure Level [dB]    /  [	2.83	V at 	35	m]"	"Frequency [Hz]"	"Sound Pessure Level [dB]    /  [	2.83	V at 	35	m]"	"Frequency [Hz]"	"Sound Pessure Level [dB]    /  [	2.83	V at 	35	m]"	"Frequency [Hz]"	"Sound Pessure Level [dB]    /  [	2.83	V at 	35	m]"	"Frequency [Hz]"	"Sound Pessure Level [dB]    /  [	2.83	V at 	35	m]"	"Frequency [Hz]"	"Sound Pessure Level [dB]    /  [	2.83	V at 	35	m]"	"Frequency [Hz]"	"Sound Pessure Level [dB]    /  [	2.83	V at 	35	m]"	"Frequency [Hz]"	"Sound Pessure Level [dB]    /  [	2.83	V at 	35	m]"	"Frequency [Hz]"	"Sound Pessure Level [dB]    /  [	2.83	V at 	35	m]"	"Frequency [Hz]"	"Sound Pessure Level [dB]    /  [	2.83	V at 	35	m]"	"Frequency [Hz]"	"Sound Pessure Level [dB]    /  [	2.83	V at 	35	m]"	"Frequency [Hz]"	"Sound Pessure Level [dB]    /  [	2.83	V at 	35	m]"	"Frequency [Hz]"	"Sound Pessure Level [dB]    /  [	2.83	V at 	35	m]"	"Frequency [Hz]"	"Sound Pessure Level [dB]    /  [	2.83	V at 	35	m]"	"Frequency [Hz]"	"Sound Pessure Level [dB]    /  [	2.83	V at 	35	m]"	"Frequency [Hz]"	"Sound Pessure Level [dB]    /  [	2.83	V at 	35	m]"
20.5078	46.2682	20.5078	46.2252	20.5078	46.314	20.5078	46.1829	20.5078	46.3654	20.5078	46.1396	20.5078	46.4241	20.5078	46.095	20.5078	46.4915	20.5078	46.0504	20.5078	46.5672	20.5078	46.0084	20.5078	46.6499	20.5078	45.973	20.5078	46.737	20.5078	45.9487	20.5078	46.8248	20.5078	45.9404	20.5078	46.909	20.5078	45.9524	20.5078	46.9845	20.5078	45.9881	20.5078	47.0459	20.5078	46.0492	20.5078	47.0881	20.5078	46.1353	20.5078	47.1062	20.5078	46.2437	20.5078	47.0966	20.5078	46.3696	20.5078	47.0574	20.5078	46.5059	20.5078	46.9888	20.5078	46.6444	20.5078	46.8935	20.5078	46.7763
21.9727	47.6776	21.9727	47.6309	21.9727	47.7171	21.9727	47.5762	21.9727	47.7511	21.9727	47.5129	21.9727	47.781	21.9727	47.4421	21.9727	47.8082	21.9727	47.3655	21.9727	47.8332	21.9727	47.2864	21.9727	47.8565	21.9727	47.2091	21.9727	47.8777	21.9727	47.1384	21.9727	47.8959	21.9727	47.0796	21.9727	47.9097	21.9727	47.0378	21.9727	47.9172	21.9727	47.0173	21.9727	47.916	21.9727	47.0214	21.9727	47.9032	21.9727	47.0516	21.9727	47.8761	21.9727	47.107	21.9727	47.8325	21.9727	47.1848	21.9727	47.771	21.9727	47.2798	21.9727	47.6922	21.9727	47.3854	21.9727	47.5984	21.9727	47.494
23.4375	41.7133	23.4375	41.5182	23.4375	41.8756	23.4375	41.2942	23.4375	42.0027	23.4375	41.0479	23.4375	42.0945	23.4375	40.7873	23.4375	42.152	23.4375	40.5221	23.4375	42.1771	23.4375	40.2624	23.4375	42.1721	23.4375	40.0188	23.4375	42.1391	23.4375	39.801	23.4375	42.0798	23.4375	39.618	23.4375	41.9952	23.4375	39.4777	23.4375	41.8859	23.4375	39.3865	23.4375	41.7516	23.4375	39.3493	23.4375	41.5919	23.4375	39.3689	23.4375	41.4069	23.4375	39.4453	23.4375	41.1976	23.4375	39.5754	23.4375	40.9667	23.4375	39.7528	23.4375	40.7194	23.4375	39.9678	23.4375	40.4634	23.4375	40.2089
24.9023	45.3671	24.9023	45.3007	24.9023	45.4201	24.9023	45.2212	24.9023	45.4596	24.9023	45.1289	24.9023	45.4849	24.9023	45.0243	24.9023	45.4952	24.9023	44.9085	24.9023	45.4894	24.9023	44.7834	24.9023	45.4664	24.9023	44.6517	24.9023	45.425	24.9023	44.5169	24.9023	45.3644	24.9023	44.3833	24.9023	45.2843	24.9023	44.2559	24.9023	45.1848	24.9023	44.1403	24.9023	45.0671	24.9023	44.0422	24.9023	44.9333	24.9023	43.9675	24.9023	44.7869	24.9023	43.9212	24.9023	44.6326	24.9023	43.9075	24.9023	44.4766	24.9023	43.9285	24.9023	44.3261	24.9023	43.9845	24.9023	44.189	24.9023	44.0729
26.3672	42.123	26.3672	42.0013	26.3672	42.2293	26.3672	41.8651	26.3672	42.3186	26.3672	41.7148	26.3672	42.3881	26.3672	41.5509	26.3672	42.4346	26.3672	41.3742	26.3672	42.4543	26.3672	41.1868	26.3672	42.4435	26.3672	40.9917	26.3672	42.3987	26.3672	40.7932	26.3672	42.3176	26.3672	40.5969	26.3672	42.1985	26.3672	40.409	26.3672	42.0413	26.3672	40.2369	26.3672	41.8478	26.3672	40.0883	26.3672	41.6216	26.3672	39.9715	26.3672	41.3691	26.3672	39.8952	26.3672	41.0996	26.3672	39.8674	26.3672	40.8256	26.3672	39.895	26.3672	40.5618	26.3672	39.9818	26.3672	40.3239	26.3672	40.1268
27.832	46.0619	27.832	46.0013	27.832	46.0966	27.832	45.9152	27.832	46.1053	27.832	45.8043	27.832	46.0875	27.832	45.6698	27.832	46.0428	27.832	45.5144	27.832	45.9704	27.832	45.3418	27.832	45.8702	27.832	45.1571	27.832	45.7426	27.832	44.9663	27.832	45.589	27.832	44.776	27.832	45.4122	27.832	44.5926	27.832	45.2167	27.832	44.4221	27.832	45.0085	27.832	44.2694	27.832	44.7956	27.832	44.1385	27.832	44.5871	27.832	44.0325	27.832	44.3927	27.832	43.9543	27.832	44.2219	27.832	43.9069	27.832	44.0825	27.832	43.8935	27.832	43.9801	27.832	43.9172
29.2969	45.5598	29.2969	45.4527	29.2969	45.6584	29.2969	45.3425	29.2969	45.7436	29.2969	45.2345	29.2969	45.8112	29.2969	45.134	29.2969	45.8578	29.2969	45.0462	29.2969	45.8809	29.2969	44.9757	29.2969	45.8799	29.2969	44.9259	29.2969	45.8554	29.2969	44.8989	29.2969	45.8096	29.2969	44.8949	29.2969	45.7462	29.2969	44.9115	29.2969	45.6703	29.2969	44.9446	29.2969	45.5876	29.2969	44.9883	29.2969	45.5046	29.2969	45.0362	29.2969	45.4269	29.2969	45.0827	29.2969	45.3593	29.2969	45.1234	29.2969	45.3045	29.2969	45.1567	29.2969	45.2626	29.2969	45.1834	29.2969	45.2315	29.2969	45.2068
30.7617	46.5564	30.7617	46.5198	30.7617	46.5839	30.7617	46.4767	30.7617	46.6	30.7617	46.43	30.7617	46.6023	30.7617	46.3829	30.7617	46.5882	30.7617	46.3394	30.7617	46.5561	30.7617	46.304	30.7617	46.5053	30.7617	46.2807	30.7617	46.4367	30.7617	46.2721	30.7617	46.3536	30.7617	46.2788	30.7617	46.2614	30.7617	46.2986	30.7617	46.1681	30.7617	46.3262	30.7617	46.0831	30.7617	46.3543	30.7617	46.0162	30.7617	46.3749	30.7617	45.9761	30.7617	46.3803	30.7617	45.9681	30.7617	46.3649	30.7617	45.9926	30.7617	46.3268	30.7617	46.0451	30.7617	46.2679	30.7617	46.1162	30.7617	46.1945
32.2266	47.9225	32.2266	47.8631	32.2266	47.9815	32.2266	47.809	32.2266	48.0348	32.2266	47.766	32.2266	48.078	32.2266	47.7401	32.2266	48.1075	32.2266	47.7364	32.2266	48.1215	32.2266	47.7589	32.2266	48.1195	32.2266	47.8093	32.2266	48.1036	32.2266	47.8864	32.2266	48.0778	32.2266	47.9858	32.2266	48.0485	32.2266	48.1	32.2266	48.0234	32.2266	48.219	32.2266	48.0107	32.2266	48.3318	32.2266	48.0175	32.2266	48.4279	32.2266	48.0485	32.2266	48.4981	32.2266	48.1044	32.2266	48.5358	32.2266	48.1813	32.2266	48.5382	32.2266	48.2711	32.2266	48.5063	32.2266	48.363	32.2266	48.4451
33.6914	49.0512	33.6914	49.0229	33.6914	49.0785	33.6914	49.0002	33.6914	49.0986	33.6914	48.9906	33.6914	49.1074	33.6914	49.0009	33.6914	49.102	33.6914	49.0368	33.6914	49.0823	33.6914	49.1017	33.6914	49.0505	33.6914	49.196	33.6914	49.0114	33.6914	49.3164	33.6914	48.9727	33.6914	49.456	33.6914	48.9438	33.6914	49.605	33.6914	48.9353	33.6914	49.7513	33.6914	48.9565	33.6914	49.8824	33.6914	49.0143	33.6914	49.9865	33.6914	49.1103	33.6914	50.0536	33.6914	49.2408	33.6914	50.0767	33.6914	49.3962	33.6914	50.0525	33.6914	49.5631	33.6914	49.9818	33.6914	49.726	33.6914	49.8698
35.1562	51.0816	35.1562	51.0529	35.1562	51.0996	35.1562	51.0199	35.1562	51.1025	35.1562	50.9903	35.1562	51.0877	35.1562	50.9726	35.1562	51.0547	35.1562	50.9752	35.1562	51.0058	35.1562	51.0048	35.1562	50.9456	35.1562	51.0657	35.1562	50.8819	35.1562	51.1579	35.1562	50.8244	35.1562	51.2772	35.1562	50.7847	35.1562	51.4149	35.1562	50.7744	35.1562	51.5593	35.1562	50.8028	35.1562	51.6969	35.1562	50.8749	35.1562	51.8142	35.1562	50.9894	35.1562	51.8993	35.1562	51.1386	35.1562	51.9427	35.1562	51.3093	35.1562	51.9387	35.1562	51.4852	35.1562	51.8858	35.1562	51.6494	35.1562	51.7869
36.6211	50.466	36.6211	50.4448	36.6211	50.4866	36.6211	50.4353	36.6211	50.4976	36.6211	50.4514	36.6211	50.4936	36.6211	50.5067	36.6211	50.474	36.6211	50.6119	36.6211	50.4427	36.6211	50.772	36.6211	50.4083	36.6211	50.985	36.6211	50.3837	36.6211	51.2414	36.6211	50.3849	36.6211	51.5258	36.6211	50.4283	36.6211	51.8192	36.6211	50.5279	36.6211	52.1016	36.6211	50.6909	36.6211	52.3543	36.6211	50.9153	36.6211	52.5608	36.6211	51.1896	36.6211	52.708	36.6211	51.4948	36.6211	52.7866	36.6211	51.8079	36.6211	52.791	36.6211	52.1058	36.6211	52.7199	36.6211	52.3675	36.6211	52.5763
38.0859	52.5677	38.0859	52.5823	38.0859	52.571	38.0859	52.6259	38.0859	52.5834	38.0859	52.709	38.0859	52.5989	38.0859	52.8403	38.0859	52.6159	38.0859	53.0239	38.0859	52.6367	38.0859	53.2583	38.0859	52.6682	38.0859	53.5361	38.0859	52.7204	38.0859	53.8444	38.0859	52.8052	38.0859	54.1671	38.0859	52.9335	38.0859	54.4868	38.0859	53.1126	38.0859	54.7861	38.0859	53.3436	38.0859	55.0492	38.0859	53.6204	38.0859	55.2626	38.0859	53.9298	38.0859	55.4156	38.0859	54.254	38.0859	55.5005	38.0859	54.5732	38.0859	55.5129	38.0859	54.8678	38.0859	55.4515	38.0859	55.121	38.0859	55.3188
39.5508	53.837	39.5508	53.8822	39.5508	53.8181	39.5508	53.9651	39.5508	53.8162	39.5508	54.0968	39.5508	53.8257	39.5508	54.2853	39.5508	53.8453	39.5508	54.5333	39.5508	53.8789	39.5508	54.8367	39.5508	53.9349	39.5508	55.1847	39.5508	54.0249	39.5508	55.5611	39.5508	54.1614	39.5508	55.9471	39.5508	54.3547	39.5508	56.3229	39.5508	54.6093	39.5508	56.6701	39.5508	54.922	39.5508	56.9724	39.5508	55.2811	39.5508	57.2161	39.5508	55.6684	39.5508	57.3908	39.5508	56.0621	39.5508	57.4888	39.5508	56.44	39.5508	57.5055	39.5508	56.7818	39.5508	57.4395	39.5508	57.0704	39.5508	57.2926
41.0156	55.918	41.0156	55.9626	41.0156	55.9046	41.0156	56.0499	41.0156	55.9123	41.0156	56.1904	41.0156	55.9349	41.0156	56.391	41.0156	55.9702	41.0156	56.6528	41.0156	56.0213	41.0156	56.9699	41.0156	56.0954	41.0156	57.3299	41.0156	56.2032	41.0156	57.7161	41.0156	56.3559	41.0156	58.1092	41.0156	56.5627	41.0156	58.49	41.0156	56.8271	41.0156	58.8405	41.0156	57.1456	41.0156	59.1453	41.0156	57.5064	41.0156	59.3913	41.0156	57.8921	41.0156	59.5684	41.0156	58.2818	41.0156	59.6694	41.0156	58.654	41.0156	59.69	41.0156	58.9894	41.0156	59.6287	41.0156	59.2714	41.0156	59.4875
42.4805	58.0281	42.4805	58.0774	42.4805	58.0093	42.4805	58.1679	42.4805	58.012	42.4805	58.3088	42.4805	58.0296	42.4805	58.5061	42.4805	58.06	42.4805	58.7604	42.4805	58.1051	42.4805	59.0662	42.4805	58.1715	42.4805	59.4119	42.4805	58.2687	42.4805	59.7818	42.4805	58.4076	42.4805	60.1578	42.4805	58.5975	42.4805	60.5215	42.4805	58.8432	42.4805	60.8558	42.4805	59.1423	42.4805	61.1455	42.4805	59.4853	42.4805	61.3777	42.4805	59.8558	42.4805	61.5426	42.4805	60.2338	42.4805	61.633	42.4805	60.5983	42.4805	61.6446	42.4805	60.9298	42.4805	61.5762	42.4805	61.2114	42.4805	61.4299
43.9453	59.6875	43.9453	59.7239	43.9453	59.6754	43.9453	59.7975	43.9453	59.6768	43.9453	59.921	43.9453	59.6849	43.9453	60.1034	43.9453	59.6977	43.9453	60.3477	43.9453	59.7191	43.9453	60.6493	43.9453	59.7578	43.9453	60.9967	43.9453	59.8267	43.9453	61.373	43.9453	59.9401	43.9453	61.7582	43.9453	60.1108	43.9453	62.1322	43.9453	60.3457	43.9453	62.4763	43.9453	60.6437	43.9453	62.7741	43.9453	60.9942	43.9453	63.0119	43.9453	61.3788	43.9453	63.1794	43.9453	61.7751	43.9453	63.2689	43.9453	62.1594	43.9453	63.2762	43.9453	62.5101	43.9453	63.1999	43.9453	62.809	43.9453	63.0422
45.4102	61.3865	45.4102	61.4385	45.4102	61.3605	45.4102	61.5292	45.4102	61.3496	45.4102	61.671	45.4102	61.3472	45.4102	61.872	45.4102	61.3516	45.4102	62.1343	45.4102	61.3671	45.4102	62.4527	45.4102	61.4035	45.4102	62.8146	45.4102	61.4744	45.4102	63.2026	45.4102	61.595	45.4102	63.5968	45.4102	61.7781	45.4102	63.9772	45.4102	62.0302	45.4102	64.3253	45.4102	62.3486	45.4102	64.6248	45.4102	62.721	45.4102	64.8626	45.4102	63.1274	45.4102	65.0283	45.4102	63.5439	45.4102	65.1145	45.4102	63.9462	45.4102	65.1167	45.4102	64.3122	45.4102	65.0338	45.4102	64.624	45.4102	64.8677
46.875	63.0416	46.875	63.0869	46.875	63.021	46.875	63.1698	46.875	63.0146	46.875	63.303	46.875	63.0157	46.875	63.4954	46.875	63.0231	46.875	63.7502	46.875	63.041	46.875	64.0627	46.875	63.0791	46.875	64.4212	46.875	63.1509	46.875	64.8083	46.875	63.2715	46.875	65.2039	46.875	63.4538	46.875	65.5874	46.875	63.7044	46.875	65.9398	46.875	64.021	46.875	66.2445	46.875	64.3912	46.875	66.4878	46.875	64.7952	46.875	66.659	46.875	65.209	46.875	66.7506	46.875	65.6083	46.875	66.7582	46.875	65.9711	46.875	66.6802	46.875	66.2791	46.875	66.5187
48.3398	64.5589	48.3398	64.5774	48.3398	64.5597	48.3398	64.631	48.3398	64.5675	48.3398	64.7357	48.3398	64.5749	48.3398	64.904	48.3398	64.5809	48.3398	65.1418	48.3398	64.5908	48.3398	65.4458	48.3398	64.6158	48.3398	65.8039	48.3398	64.6719	48.3398	66.197	48.3398	64.7766	48.3398	66.603	48.3398	64.9453	48.3398	66.9993	48.3398	65.1863	48.3398	67.3651	48.3398	65.4977	48.3398	67.6827	48.3398	65.8669	48.3398	67.9377	48.3398	66.2726	48.3398	68.1193	48.3398	66.6893	48.3398	68.2195	48.3398	67.0915	48.3398	68.2339	48.3398	67.4561	48.3398	68.161	48.3398	67.7645	48.3398	68.0027
51.2695	67.3141	51.2695	67.3656	51.2695	67.2972	51.2695	67.4628	51.2695	67.3052	51.2695	67.6155	51.2695	67.3312	51.2695	67.8293	51.2695	67.3728	51.2695	68.1039	51.2695	67.432	51.2695	68.4317	51.2695	67.5153	51.2695	68.7996	51.2695	67.6316	51.2695	69.1899	51.2695	67.7911	51.2695	69.5835	51.2695	68.0016	51.2695	69.9615	51.2695	68.2666	51.2695	70.3067	51.2695	68.5824	51.2695	70.6043	51.2695	68.9386	51.2695	70.842	51.2695	69.3188	51.2695	71.0107	51.2695	69.7032	51.2695	71.1035	51.2695	70.0714	51.2695	71.1169	51.2695	70.4045	51.2695	71.0498	51.2695	70.6864	51.2695	70.9045
52.7344	69.1858	52.7344	69.2349	52.7344	69.1643	52.7344	69.3203	52.7344	69.1625	52.7344	69.4497	52.7344	69.175	52.7344	69.628	52.7344	69.1995	52.7344	69.8556	52.7344	69.2372	52.7344	70.1278	52.7344	69.293	52.7344	70.4347	52.7344	69.3746	52.7344	70.7628	52.7344	69.4908	52.7344	71.0963	52.7344	69.6498	52.7344	71.4189	52.7344	69.8566	52.7344	71.7147	52.7344	70.1108	52.7344	71.9698	52.7344	70.406	52.7344	72.1723	52.7344	70.7296	52.7344	72.3127	52.7344	71.0648	52.7344	72.3845	52.7344	71.3933	52.7344	72.384	52.7344	71.6967	52.7344	72.3105	52.7344	71.959	52.7344	72.1668
54.1992	70.8604	54.1992	70.8687	54.1992	70.8647	54.1992	70.8991	54.1992	70.8737	54.1992	70.9613	54.1992	70.8825	54.1992	71.064	54.1992	70.8892	54.1992	71.2123	54.1992	70.8957	54.1992	71.4066	54.1992	70.9076	54.1992	71.6416	54.1992	70.9334	54.1992	71.9072	54.1992	70.984	54.1992	72.1892	54.1992	71.0706	54.1992	72.4715	54.1992	71.2021	54.1992	72.7375	54.1992	71.3827	54.1992	72.9716	54.1992	71.6101	54.1992	73.1604	54.1992	71.8749	54.1992	73.2932	54.1992	72.1618	54.1992	73.3623	54.1992	72.4521	54.1992	73.3631	54.1992	72.7268	54.1992	73.2951	54.1992	72.968	54.1992	73.161
55.6641	71.922	55.6641	71.9192	55.6641	71.9325	55.6641	71.934	55.6641	71.9425	55.6641	71.9775	55.6641	71.947	55.6641	72.0596	55.6641	71.9447	55.6641	72.1871	55.6641	71.9381	55.6641	72.362	55.6641	71.9332	55.6641	72.5804	55.6641	71.94	55.6641	72.8329	55.6641	71.9705	55.6641	73.1053	55.6641	72.0372	55.6641	73.3811	55.6641	72.1505	55.6641	73.6432	55.6641	72.3158	55.6641	73.8753	55.6641	72.5314	55.6641	74.0633	55.6641	72.7878	55.6641	74.1959	55.6641	73.0693	55.6641	74.265	55.6641	73.3568	55.6641	74.266	55.6641	73.63	55.6641	74.1979	55.6641	73.8708	55.6641	74.0639
58.5938	74.2388	58.5938	74.2303	58.5938	74.2548	58.5938	74.2384	58.5938	74.2711	58.5938	74.2729	58.5938	74.2835	58.5938	74.3427	58.5938	74.2906	58.5938	74.4542	58.5938	74.2946	58.5938	74.6095	58.5938	74.3007	58.5938	74.8055	58.5938	74.3171	58.5938	75.0338	58.5938	74.3534	58.5938	75.282	58.5938	74.4199	58.5938	75.5351	58.5938	74.5249	58.5938	75.7772	58.5938	74.6727	58.5938	75.9932	58.5938	74.8622	58.5938	76.1698	58.5938	75.0858	58.5938	76.2961	58.5938	75.331	58.5938	76.3648	58.5938	75.5816	58.5938	76.3713	58.5938	75.8204	58.5938	76.3152	58.5938	76.031	58.5938	76.1994
60.0586	75.3041	60.0586	75.2922	60.0586	75.3227	60.0586	75.2954	60.0586	75.3412	60.0586	75.3229	60.0586	75.3555	60.0586	75.3832	60.0586	75.3642	60.0586	75.4824	60.0586	75.369	60.0586	75.6227	60.0586	75.3746	60.0586	75.8016	60.0586	75.3882	60.0586	76.0117	60.0586	75.4187	60.0586	76.2416	60.0586	75.4756	60.0586	76.4773	60.0586	75.567	60.0586	76.7038	60.0586	75.6974	60.0586	76.9066	60.0586	75.8667	60.0586	77.0728	60.0586	76.0688	60.0586	77.192	60.0586	76.2926	60.0586	77.2566	60.0586	76.5235	60.0586	77.2626	60.0586	76.7451	60.0586	77.2094	60.0586	76.9419	60.0586	77.1002
62.9883	77.5399	62.9883	77.5341	62.9883	77.5521	62.9883	77.5411	62.9883	77.5652	62.9883	77.5679	62.9883	77.5759	62.9883	77.6211	62.9883	77.583	62.9883	77.7055	62.9883	77.5876	62.9883	77.8229	62.9883	77.593	62.9883	77.9717	62.9883	77.6049	62.9883	78.1464	62.9883	77.6301	62.9883	78.338	62.9883	77.6763	62.9883	78.5353	62.9883	77.7502	62.9883	78.7256	62.9883	77.856	62.9883	78.8965	62.9883	77.9943	62.9883	79.0364	62.9883	78.1612	62.9883	79.136	62.9883	78.3481	62.9883	79.1885	62.9883	78.5433	62.9883	79.1901	62.9883	78.7331	62.9883	79.1404	62.9883	78.9037	62.9883	79.0427
64.4531	78.6497	64.4531	78.6419	64.4531	78.6623	64.4531	78.645	64.4531	78.6749	64.4531	78.6653	64.4531	78.6845	64.4531	78.7091	64.4531	78.6901	64.4531	78.7811	64.4531	78.6927	64.4531	78.8835	64.4531	78.6956	64.4531	79.0152	64.4531	78.7039	64.4531	79.1718	64.4531	78.724	64.4531	79.3453	64.4531	78.7629	64.4531	79.5254	64.4531	78.8268	64.4531	79.7004	64.4531	78.9198	64.4531	79.8585	64.4531	79.0429	64.4531	79.9886	64.4531	79.1927	64.4531	80.0817	64.4531	79.3618	64.4531	80.1312	64.4531	79.5394	64.4531	80.1334	64.4531	79.713	64.4531	80.0879	64.4531	79.8697	64.4531	79.9978
67.3828	80.6699	67.3828	80.6636	67.3828	80.681	67.3828	80.6671	67.3828	80.6931	67.3828	80.6857	67.3828	80.7037	67.3828	80.7244	67.3828	80.7119	67.3828	80.7871	67.3828	80.7187	67.3828	80.8757	67.3828	80.7265	67.3828	80.9894	67.3828	80.7392	67.3828	81.1244	67.3828	80.7616	67.3828	81.2743	67.3828	80.7992	67.3828	81.4304	67.3828	80.8567	67.3828	81.5826	67.3828	80.9373	67.3828	81.7206	67.3828	81.042	67.3828	81.8349	67.3828	81.1683	67.3828	81.9172	67.3828	81.3107	67.3828	81.9616	67.3828	81.4606	67.3828	81.9648	67.3828	81.6076	67.3828	81.9266	67.3828	81.7408	67.3828	81.85
68.8477	81.6316	68.8477	81.6266	68.8477	81.6416	68.8477	81.6308	68.8477	81.6533	68.8477	81.6489	68.8477	81.6644	68.8477	81.685	68.8477	81.6739	68.8477	81.7426	68.8477	81.6825	68.8477	81.8231	68.8477	81.692	68.8477	81.926	68.8477	81.7057	68.8477	82.0479	68.8477	81.7277	68.8477	82.1833	68.8477	81.7625	68.8477	82.3245	68.8477	81.8143	68.8477	82.4625	68.8477	81.8864	68.8477	82.588	68.8477	81.9795	68.8477	82.6921	68.8477	82.0921	68.8477	82.7673	68.8477	82.2193	68.8477	82.8079	68.8477	82.3539	68.8477	82.8109	68.8477	82.4865	68.8477	82.7761	68.8477	82.6071	68.8477	82.7063
71.7773	83.3546	71.7773	83.3507	71.7773	83.3628	71.7773	83.3542	71.7773	83.3725	71.7773	83.3687	71.7773	83.3819	71.7773	83.3976	71.7773	83.3903	71.7773	83.4435	71.7773	83.398	71.7773	83.5079	71.7773	83.4065	71.7773	83.5905	71.7773	83.418	71.7773	83.6889	71.7773	83.4358	71.7773	83.799	71.7773	83.4636	71.7773	83.9146	71.7773	83.5048	71.7773	84.0285	71.7773	83.562	71.7773	84.1328	71.7773	83.6365	71.7773	84.2198	71.7773	83.7271	71.7773	84.283	71.7773	83.8304	71.7773	84.3173	71.7773	83.9405	71.7773	84.3201	71.7773	84.0498	71.7773	84.291	71.7773	84.1499	71.7773	84.2326
74.707	84.739	74.707	84.7372	74.707	84.7447	74.707	84.7419	74.707	84.7522	74.707	84.7558	74.707	84.7601	74.707	84.7816	74.707	84.768	74.707	84.8215	74.707	84.7759	74.707	84.8767	74.707	84.7851	74.707	84.947	74.707	84.7973	74.707	85.0306	74.707	84.8151	74.707	85.124	74.707	84.8411	74.707	85.2224	74.707	84.8782	74.707	85.3194	74.707	84.9282	74.707	85.4086	74.707	84.9921	74.707	85.4832	74.707	85.069	74.707	85.5374	74.707	85.1561	74.707	85.5671	74.707	85.2489	74.707	85.5697	74.707	85.3411	74.707	85.5452	74.707	85.4257	74.707	85.4957
77.6367	85.8017	77.6367	85.8021	77.6367	85.8061	77.6367	85.809	77.6367	85.8136	77.6367	85.8246	77.6367	85.8233	77.6367	85.8507	77.6367	85.8345	77.6367	85.8888	77.6367	85.8473	77.6367	85.9397	77.6367	85.8622	77.6367	86.0029	77.6367	85.8804	77.6367	86.0771	77.6367	85.9033	77.6367	86.1592	77.6367	85.9327	77.6367	86.2451	77.6367	85.9702	77.6367	86.3297	77.6367	86.0171	77.6367	86.4074	77.6367	86.0739	77.6367	86.4727	77.6367	86.1401	77.6367	86.5208	77.6367	86.2136	77.6367	86.5479	77.6367	86.2908	77.6367	86.5521	77.6367	86.367	77.6367	86.5334	77.6367	86.4364	77.6367	86.4936
79.1016	86.2584	79.1016	86.2605	79.1016	86.2616	79.1016	86.2693	79.1016	86.2688	79.1016	86.2867	79.1016	86.279	79.1016	86.3139	79.1016	86.2916	79.1016	86.3522	79.1016	86.3066	79.1016	86.4021	79.1016	86.3243	79.1016	86.463	79.1016	86.3454	79.1016	86.5335	79.1016	86.3708	79.1016	86.6108	79.1016	86.4019	79.1016	86.6912	79.1016	86.44	79.1016	86.7701	79.1016	86.4859	79.1016	86.8424	79.1016	86.5402	79.1016	86.9031	79.1016	86.6022	79.1016	86.9479	79.1016	86.6701	79.1016	86.9735	79.1016	86.7409	79.1016	86.9779	79.1016	86.8104	79.1016	86.9613	79.1016	86.8736	79.1016	86.9254
82.0312	87.0332	82.0312	87.0381	82.0312	87.0339	82.0312	87.0496	82.0312	87.0393	82.0312	87.0684	82.0312	87.0487	82.0312	87.0955	82.0312	87.0615	82.0312	87.1312	82.0312	87.0774	82.0312	87.1757	82.0312	87.0962	82.0312	87.2284	82.0312	87.1181	82.0312	87.288	82.0312	87.1437	82.0312	87.3524	82.0312	87.1734	82.0312	87.4187	82.0312	87.208	82.0312	87.4834	82.0312	87.2481	82.0312	87.5424	82.0312	87.2941	82.0312	87.592	82.0312	87.3455	82.0312	87.6284	82.0312	87.4012	82.0312	87.6491	82.0312	87.4589	82.0312	87.6525	82.0312	87.5154	82.0312	87.6387	82.0312	87.5669	82.0312	87.6092
84.9609	87.5009	84.9609	87.5076	84.9609	87.5005	84.9609	87.5211	84.9609	87.5057	84.9609	87.5419	84.9609	87.5162	84.9609	87.5706	84.9609	87.5316	84.9609	87.6073	84.9609	87.5514	84.9609	87.6519	84.9609	87.5756	84.9609	87.7037	84.9609	87.6037	84.9609	87.7615	84.9609	87.6359	84.9609	87.8233	84.9609	87.6721	84.9609	87.8866	84.9609	87.7123	84.9609	87.9482	84.9609	87.7565	84.9609	88.0048	84.9609	87.8043	84.9609	88.053	84.9609	87.8553	84.9609	88.0895	84.9609	87.908	84.9609	88.1121	84.9609	87.9606	84.9609	88.1194	84.9609	88.0103	84.9609	88.1113	84.9609	88.0541	84.9609	88.0888
87.8906	87.8295	87.8906	87.8438	87.8906	87.8245	87.8906	87.8675	87.8906	87.8289	87.8906	87.9	87.8906	87.8423	87.8906	87.9406	87.8906	87.8641	87.8906	87.9883	87.8906	87.8935	87.8906	88.042	87.8906	87.9295	87.8906	88.1002	87.8906	87.9709	87.8906	88.161	87.8906	88.0165	87.8906	88.2226	87.8906	88.0652	87.8906	88.2829	87.8906	88.1158	87.8906	88.3394	87.8906	88.1675	87.8906	88.3898	87.8906	88.2192	87.8906	88.4319	87.8906	88.2703	87.8906	88.4637	87.8906	88.3196	87.8906	88.4838	87.8906	88.3658	87.8906	88.4913	87.8906	88.4075	87.8906	88.4864	87.8906	88.4428	87.8906	88.4697
90.8203	88.2054	90.8203	88.2226	90.8203	88.1942	90.8203	88.2449	90.8203	88.1897	90.8203	88.2713	90.8203	88.1922	90.8203	88.3006	90.8203	88.2016	90.8203	88.3316	90.8203	88.2176	90.8203	88.3634	90.8203	88.2391	90.8203	88.3951	90.8203	88.265	90.8203	88.4261	90.8203	88.2939	90.8203	88.4556	90.8203	88.3246	90.8203	88.483	90.8203	88.3556	90.8203	88.5075	90.8203	88.386	90.8203	88.5284	90.8203	88.4152	90.8203	88.5449	90.8203	88.4426	90.8203	88.5563	90.8203	88.4681	90.8203	88.5621	90.8203	88.4915	90.8203	88.5621	90.8203	88.5126	90.8203	88.5564	90.8203	88.5309	90.8203	88.5458
95.2148	88.5062	95.2148	88.5224	95.2148	88.4951	95.2148	88.5426	95.2148	88.4902	95.2148	88.5653	95.2148	88.492	95.2148	88.5891	95.2148	88.5004	95.2148	88.6129	95.2148	88.5147	95.2148	88.6356	95.2148	88.5338	95.2148	88.6566	95.2148	88.5561	95.2148	88.6753	95.2148	88.5798	95.2148	88.6915	95.2148	88.6033	95.2148	88.7049	95.2148	88.625	95.2148	88.7155	95.2148	88.644	95.2148	88.7232	95.2148	88.6599	95.2148	88.728	95.2148	88.6729	95.2148	88.7299	95.2148	88.6834	95.2148	88.7291	95.2148	88.6923	95.2148	88.7259	95.2148	88.7001	95.2148	88.7208	95.2148	88.7075	95.2148	88.7145
98.1445	88.6038	98.1445	88.6153	98.1445	88.5972	98.1445	88.6307	98.1445	88.5962	98.1445	88.6487	98.1445	88.6012	98.1445	88.6682	98.1445	88.6121	98.1445	88.6881	98.1445	88.6282	98.1445	88.7075	98.1445	88.6484	98.1445	88.7258	98.1445	88.671	98.1445	88.7426	98.1445	88.6944	98.1445	88.7574	98.1445	88.7168	98.1445	88.7701	98.1445	88.7369	98.1445	88.7807	98.1445	88.7538	98.1445	88.789	98.1445	88.767	98.1445	88.795	98.1445	88.7766	98.1445	88.7987	98.1445	88.7833	98.1445	88.8004	98.1445	88.788	98.1445	88.8003	98.1445	88.7914	98.1445	88.799	98.1445	88.7943	98.1445	88.7968
101.074	88.5581	101.074	88.5722	101.074	88.5516	101.074	88.5927	101.074	88.5534	101.074	88.6181	101.074	88.5639	101.074	88.647	101.074	88.5826	101.074	88.6778	101.074	88.6089	101.074	88.7091	101.074	88.6412	101.074	88.7398	101.074	88.6777	101.074	88.7688	101.074	88.7161	101.074	88.7954	101.074	88.7545	101.074	88.8193	101.074	88.7906	101.074	88.8401	101.074	88.8228	101.074	88.8578	101.074	88.85	101.074	88.8727	101.074	88.8716	101.074	88.8846	101.074	88.8876	101.074	88.894	101.074	88.8985	101.074	88.901	101.074	88.9051	101.074	88.9057	101.074	88.908	101.074	88.9081
105.469	88.6931	105.469	88.7143	105.469	88.6782	105.469	88.7401	105.469	88.6714	105.469	88.7682	105.469	88.6736	105.469	88.7965	105.469	88.6852	105.469	88.8232	105.469	88.7055	105.469	88.8467	105.469	88.7333	105.469	88.8657	105.469	88.7663	105.469	88.8795	105.469	88.8018	105.469	88.888	105.469	88.837	105.469	88.8916	105.469	88.8687	105.469	88.8912	105.469	88.8947	105.469	88.888	105.469	88.9131	105.469	88.8837	105.469	88.9233	105.469	88.8798	105.469	88.9256	105.469	88.8779	105.469	88.9214	105.469	88.8791	105.469	88.9128	105.469	88.8838	105.469	88.9021	105.469	88.8919
108.398	88.7702	108.398	88.7942	108.398	88.7526	108.398	88.8227	108.398	88.743	108.398	88.8536	108.398	88.7424	108.398	88.8846	108.398	88.7511	108.398	88.9136	108.398	88.7686	108.398	88.9389	108.398	88.7936	108.398	88.9588	108.398	88.8241	108.398	88.9727	108.398	88.8574	108.398	88.9803	108.398	88.8907	108.398	88.9819	108.398	88.9211	108.398	88.9786	108.398	88.9462	108.398	88.9719	108.398	88.9642	108.398	88.9636	108.398	88.9746	108.398	88.9556	108.398	88.9777	108.398	88.9495	108.398	88.9747	108.398	88.9467	108.398	88.968	108.398	88.9477	108.398	88.9597	108.398	88.9524
112.793	88.8574	112.793	88.8841	112.793	88.8382	112.793	88.9157	112.793	88.8285	112.793	88.9493	112.793	88.8297	112.793	88.9824	112.793	88.8421	112.793	89.0123	112.793	88.8652	112.793	89.0368	112.793	88.8972	112.793	89.0546	112.793	88.9354	112.793	89.0648	112.793	88.9766	112.793	89.0676	112.793	89.0169	112.793	89.0639	112.793	89.0527	112.793	89.0553	112.793	89.081	112.793	89.0441	112.793	89.0996	112.793	89.0327	112.793	89.1076	112.793	89.0238	112.793	89.1055	112.793	89.0195	112.793	89.095	112.793	89.0211	112.793	89.0788	112.793	89.0292	112.793	89.0604	112.793	89.0429
117.188	88.952	117.188	88.9744	117.188	88.936	117.188	89.0004	117.188	88.9286	117.188	89.0273	117.188	88.9313	117.188	89.0521	117.188	88.9448	117.188	89.0724	117.188	88.9683	117.188	89.0863	117.188	89.0004	117.188	89.0926	117.188	89.0381	117.188	89.0908	117.188	89.078	117.188	89.0816	117.188	89.1159	117.188	89.0665	117.188	89.148	117.188	89.0479	117.188	89.1708	117.188	89.0286	117.188	89.1819	117.188	89.0121	117.188	89.1802	117.188	89.0013	117.188	89.1665	117.188	88.9988	117.188	89.1427	117.188	89.006	117.188	89.1123	117.188	89.0229	117.188	89.0794	117.188	89.0483
120.117	88.9731	120.117	88.9978	120.117	88.9536	120.117	89.025	120.117	88.9417	120.117	89.0517	120.117	88.9392	120.117	89.0753	120.117	88.9469	120.117	89.0932	120.117	88.9647	120.117	89.1037	120.117	88.9912	120.117	89.1057	120.117	89.0238	120.117	89.0989	120.117	89.0592	120.117	89.084	120.117	89.0934	120.117	89.0627	120.117	89.1224	120.117	89.0376	120.117	89.1427	120.117	89.0119	120.117	89.1516	120.117	88.9892	120.117	89.148	120.117	88.9729	120.117	89.1325	120.117	88.9659	120.117	89.1069	120.117	88.9698	120.117	89.075	120.117	88.9848	120.117	89.041	120.117	89.0096
124.512	89.0873	124.512	89.1159	124.512	89.0651	124.512	89.1477	124.512	89.0517	124.512	89.1794	124.512	89.0492	124.512	89.2079	124.512	89.0581	124.512	89.2302	124.512	89.0782	124.512	89.2441	124.512	89.1077	124.512	89.2482	124.512	89.1436	124.512	89.2418	124.512	89.182	124.512	89.2256	124.512	89.2186	124.512	89.2013	124.512	89.2488	124.512	89.1718	124.512	89.2691	124.512	89.1407	124.512	89.2766	124.512	89.1122	124.512	89.2706	124.512	89.0903	124.512	89.2516	124.512	89.0785	124.512	89.2224	124.512	89.079	124.512	89.1868	124.512	89.0923	124.512	89.15	124.512	89.117
128.906	89.2024	128.906	89.2272	128.906	89.1821	128.906	89.2537	128.906	89.1691	128.906	89.2787	128.906	89.1655	128.906	89.2992	128.906	89.1721	128.906	89.3128	128.906	89.1891	128.906	89.3176	128.906	89.215	128.906	89.3127	128.906	89.2473	128.906	89.2979	128.906	89.2823	128.906	89.2743	128.906	89.3159	128.906	89.244	128.906	89.3435	128.906	89.2103	128.906	89.3613	128.906	89.177	128.906	89.3663	128.906	89.1483	128.906	89.3573	128.906	89.1283	128.906	89.3347	128.906	89.1203	128.906	89.301	128.906	89.126	128.906	89.26	128.906	89.1456	128.906	89.2169	128.906	89.1772
133.301	89.1814	133.301	89.21	133.301	89.1593	133.301	89.2418	133.301	89.1464	133.301	89.2736	133.301	89.1448	133.301	89.3022	133.301	89.1558	133.301	89.3247	133.301	89.1792	133.301	89.3388	133.301	89.2136	133.301	89.3429	133.301	89.2562	133.301	89.3367	133.301	89.3027	133.301	89.3206	133.301	89.3484	133.301	89.2967	133.301	89.3881	133.301	89.2682	133.301	89.4172	133.301	89.2392	133.301	89.4322	133.301	89.2143	133.301	89.4314	133.301	89.1979	133.301	89.4148	133.301	89.1934	133.301	89.3848	133.301	89.2028	133.301	89.3455	133.301	89.2259	133.301	89.302	133.301	89.2603
139.16	89.3688	139.16	89.3961	139.16	89.3465	139.16	89.4251	139.16	89.3322	139.16	89.4522	139.16	89.3282	139.16	89.4739	139.16	89.3355	139.16	89.4874	139.16	89.354	139.16	89.4902	139.16	89.3824	139.16	89.4812	139.16	89.4175	139.16	89.4604	139.16	89.4556	139.16	89.4289	139.16	89.4918	139.16	89.3896	139.16	89.5211	139.16	89.3464	139.16	89.5393	139.16	89.3043	139.16	89.5428	139.16	89.2686	139.16	89.5302	139.16	89.2442	139.16	89.5019	139.16	89.2351	139.16	89.4604	139.16	89.2433	139.16	89.4102	139.16	89.2685	139.16	89.3573	139.16	89.3081
143.555	89.4089	143.555	89.4339	143.555	89.3876	143.555	89.4592	143.555	89.373	143.555	89.4816	143.555	89.3675	143.555	89.4977	143.555	89.3725	143.555	89.505	143.555	89.3883	143.555	89.5015	143.555	89.4137	143.555	89.4862	143.555	89.4462	143.555	89.4593	143.555	89.4818	143.555	89.4224	143.555	89.5159	143.555	89.3783	143.555	89.5434	143.555	89.3312	143.555	89.5596	143.555	89.2862	143.555	89.5609	143.555	89.2488	143.555	89.5455	143.555	89.2241	143.555	89.5136	143.555	89.2162	143.555	89.4679	143.555	89.227	143.555	89.4129	143.555	89.256	143.555	89.3547	143.555	89.3003
147.949	89.4859	147.949	89.5089	147.949	89.4656	147.949	89.5317	147.949	89.4511	147.949	89.5509	147.949	89.4447	147.949	89.5637	147.949	89.4481	147.949	89.5674	147.949	89.4616	147.949	89.5601	147.949	89.4844	147.949	89.5408	147.949	89.514	147.949	89.5097	147.949	89.5468	147.949	89.4683	147.949	89.5779	147.949	89.4195	147.949	89.6024	147.949	89.3678	147.949	89.6155	147.949	89.3185	147.949	89.6134	147.949	89.2774	147.949	89.5944	147.949	89.2502	147.949	89.5586	147.949	89.2409	147.949	89.5087	147.949	89.2518	147.949	89.4494	147.949	89.2823	147.949	89.3872	147.949	89.3292
153.809	89.4178	153.809	89.4417	153.809	89.3967	153.809	89.4649	153.809	89.3816	153.809	89.484	153.809	89.3753	153.809	89.4957	153.809	89.3794	153.809	89.4971	153.809	89.3947	153.809	89.4864	153.809	89.4203	153.809	89.4624	153.809	89.4538	153.809	89.4254	153.809	89.4911	153.809	89.3774	153.809	89.527	153.809	89.3219	153.809	89.5558	153.809	89.264	153.809	89.5721	153.809	89.2098	153.809	89.5714	153.809	89.1661	153.809	89.5514	153.809	89.1389	153.809	89.5119	153.809	89.1328	153.809	89.4556	153.809	89.1499	153.809	89.3877	153.809	89.1891	153.809	89.3152	153.809	89.2463
159.668	89.4497	159.668	89.478	159.668	89.4249	159.668	89.5062	159.668	89.4067	159.668	89.5309	159.668	89.398	159.668	89.5485	159.668	89.4004	159.668	89.5561	159.668	89.4144	159.668	89.5511	159.668	89.4392	159.668	89.532	159.668	89.472	159.668	89.4987	159.668	89.5086	159.668	89.4524	159.668	89.5439	159.668	89.3965	159.668	89.5719	159.668	89.3358	159.668	89.5875	159.668	89.2767	159.668	89.5863	159.668	89.2264	159.668	89.5662	159.668	89.1917	159.668	89.5271	159.668	89.1777	159.668	89.472	159.668	89.1874	159.668	89.4061	159.668	89.22	159.668	89.3366	159.668	89.2719
165.527	89.5264	165.527	89.5583	165.527	89.4973	165.527	89.5896	165.527	89.4745	165.527	89.6163	165.527	89.4609	165.527	89.635	165.527	89.4583	165.527	89.6423	165.527	89.4676	165.527	89.6358	165.527	89.4877	165.527	89.6139	165.527	89.5161	165.527	89.5765	165.527	89.5485	165.527	89.5252	165.527	89.5797	165.527	89.4633	165.527	89.604	165.527	89.3962	165.527	89.6158	165.527	89.3304	165.527	89.6113	165.527	89.2734	165.527	89.5881	165.527	89.2321	165.527	89.5468	165.527	89.2121	165.527	89.4903	165.527	89.2163	165.527	89.4241	165.527	89.2445	165.527	89.3556	165.527	89.2931
171.387	89.4269	171.387	89.456	171.387	89.4	171.387	89.4835	171.387	89.3786	171.387	89.5056	171.387	89.366	171.387	89.5189	171.387	89.3644	171.387	89.5203	171.387	89.3746	171.387	89.5077	171.387	89.3958	171.387	89.4797	171.387	89.4256	171.387	89.4365	171.387	89.4596	171.387	89.3801	171.387	89.492	171.387	89.314	171.387	89.5168	171.387	89.2439	171.387	89.5281	171.387	89.1765	171.387	89.5216	171.387	89.1195	171.387	89.4949	171.387	89.0799	171.387	89.4484	171.387	89.0634	171.387	89.3853	171.387	89.0729	171.387	89.3115	171.387	89.1077	171.387	89.2347	171.387	89.164
177.246	89.3108	177.246	89.3308	177.246	89.2919	177.246	89.3487	177.246	89.2771	177.246	89.3616	177.246	89.2693	177.246	89.3666	177.246	89.2708	177.246	89.3615	177.246	89.2826	177.246	89.3445	177.246	89.3044	177.246	89.3147	177.246	89.3339	177.246	89.2721	177.246	89.3669	177.246	89.2185	177.246	89.3979	177.246	89.157	177.246	89.4208	177.246	89.0925	177.246	89.4297	177.246	89.0312	177.246	89.4203	177.246	88.9801	177.246	89.3903	177.246	88.9458	177.246	89.3403	177.246	88.9337	177.246	89.2736	177.246	88.9467	177.246	89.1965	177.246	88.9845	177.246	89.1168	177.246	89.0433
183.105	89.1678	183.105	89.1922	183.105	89.1438	183.105	89.2134	183.105	89.124	183.105	89.2281	183.105	89.1118	183.105	89.2333	183.105	89.1102	183.105	89.2267	183.105	89.1208	183.105	89.2064	183.105	89.1438	183.105	89.172	183.105	89.1769	183.105	89.1241	183.105	89.2158	183.105	89.0652	183.105	89.2543	183.105	88.9994	183.105	89.2856	183.105	88.9324	183.105	89.3028	183.105	88.8711	183.105	89.3008	183.105	88.8226	183.105	89.2765	183.105	88.7935	183.105	89.2299	183.105	88.7885	183.105	89.1643	183.105	88.8098	183.105	89.0856	183.105	88.8559	183.105	89.0019	183.105	88.9224
188.965	89.0919	188.965	89.1185	188.965	89.0633	188.965	89.1393	188.965	89.0369	188.965	89.1508	188.965	89.0165	188.965	89.1499	188.965	89.0057	188.965	89.1341	188.965	89.0068	188.965	89.1018	188.965	89.0207	188.965	89.0528	188.965	89.0462	188.965	88.9888	188.965	89.0795	188.965	88.913	188.965	89.1151	188.965	88.831	188.965	89.1458	188.965	88.7502	188.965	89.1643	188.965	88.6788	188.965	89.1644	188.965	88.6253	188.965	89.142	188.965	88.5967	188.965	89.096	188.965	88.5974	188.965	89.0286	188.965	88.628	188.965	88.9452	188.965	88.6857	188.965	88.8537	188.965	88.7639
196.289	89.0814	196.289	89.1168	196.289	89.0429	196.289	89.1453	196.289	89.0053	196.289	89.1638	196.289	88.9726	196.289	89.1692	196.289	88.9489	196.289	89.1588	196.289	88.9374	196.289	89.1308	196.289	88.9396	196.289	89.0842	196.289	88.9549	196.289	89.0196	196.289	88.9798	196.289	88.9395	196.289	89.0086	196.289	88.8488	196.289	89.034	196.289	88.7546	196.289	89.0482	196.289	88.6659	196.289	89.0449	196.289	88.5921	196.289	89.0198	196.289	88.542	196.289	88.9718	196.289	88.5222	196.289	88.9033	196.289	88.5351	196.289	88.8203	196.289	88.5789	196.289	88.7315	196.289	88.6474
203.613	88.938	203.613	88.9595	203.613	88.909	203.613	88.9706	203.613	88.8762	203.613	88.9687	203.613	88.8435	203.613	88.9519	203.613	88.8148	203.613	88.9188	203.613	88.7937	203.613	88.8688	203.613	88.7822	203.613	88.8023	203.613	88.7809	203.613	88.7209	203.613	88.7878	203.613	88.6283	203.613	88.7987	203.613	88.5298	203.613	88.8079	203.613	88.4327	203.613	88.8089	203.613	88.3456	203.613	88.7957	203.613	88.2773	203.613	88.7641	203.613	88.2355	203.613	88.7122	203.613	88.2254	203.613	88.6413	203.613	88.2481	203.613	88.5562	203.613	88.3004	203.613	88.4644	203.613	88.3757
210.938	88.7793	210.938	88.8072	210.938	88.7452	210.938	88.826	210.938	88.7085	210.938	88.8333	210.938	88.6737	210.938	88.827	210.938	88.645	210.938	88.8054	210.938	88.6263	210.938	88.7669	210.938	88.6196	210.938	88.7109	210.938	88.6247	210.938	88.6374	210.938	88.6386	210.938	88.5487	210.938	88.6558	210.938	88.4493	210.938	88.6692	210.938	88.3463	210.938	88.6716	210.938	88.2487	210.938	88.6566	210.938	88.1668	210.938	88.6205	210.938	88.1101	210.938	88.5625	210.938	88.0856	210.938	88.4851	210.938	88.0963	210.938	88.3945	210.938	88.1402	210.938	88.2996	210.938	88.2112
218.262	88.6807	218.262	88.7099	218.262	88.6472	218.262	88.7317	218.262	88.6129	218.262	88.7436	218.262	88.5819	218.262	88.743	218.262	88.5583	218.262	88.7279	218.262	88.5455	218.262	88.6965	218.262	88.5457	218.262	88.6479	218.262	88.5585	218.262	88.5825	218.262	88.5808	218.262	88.5028	218.262	88.6071	218.262	88.4134	218.262	88.6303	218.262	88.3213	218.262	88.6429	218.262	88.2352	218.262	88.6386	218.262	88.1646	218.262	88.6129	218.262	88.118	218.262	88.5647	218.262	88.1018	218.262	88.4961	218.262	88.1182	218.262	88.4125	218.262	88.1653	218.262	88.3225	218.262	88.2365
225.586	88.6076	225.586	88.6347	225.586	88.5739	225.586	88.6521	225.586	88.5372	225.586	88.6578	225.586	88.5017	225.586	88.6497	225.586	88.4722	225.586	88.6266	225.586	88.4528	225.586	88.5877	225.586	88.4462	225.586	88.5327	225.586	88.4525	225.586	88.4629	225.586	88.4689	225.586	88.3809	225.586	88.4897	225.586	88.2912	225.586	88.508	225.586	88.2001	225.586	88.5162	225.586	88.1156	225.586	88.5082	225.586	88.0464	225.586	88.4803	225.586	88.0008	225.586	88.4315	225.586	87.9847	225.586	88.364	225.586	88.0003	225.586	88.283	225.586	88.0453	225.586	88.1964	225.586	88.1137
232.91	88.4801	232.91	88.5009	232.91	88.4478	232.91	88.508	232.91	88.4079	232.91	88.5003	232.91	88.3657	232.91	88.4781	232.91	88.3278	232.91	88.4419	232.91	88.3003	232.91	88.3928	232.91	88.2881	232.91	88.3324	232.91	88.2927	232.91	88.2626	232.91	88.3119	232.91	88.1863	232.91	88.3398	232.91	88.1076	232.91	88.3683	232.91	88.0318	232.91	88.3885	232.91	87.9655	232.91	88.393	232.91	87.9157	232.91	88.377	232.91	87.8885	232.91	88.3386	232.91	87.8883	232.91	88.2798	232.91	87.9159	232.91	88.2053	232.91	87.9687	232.91	88.1224	232.91	88.0404
241.699	88.3231	241.699	88.3408	241.699	88.2953	241.699	88.3464	241.699	88.2609	241.699	88.3393	241.699	88.2254	241.699	88.3199	241.699	88.1952	241.699	88.2886	241.699	88.1766	241.699	88.246	241.699	88.1742	241.699	88.1929	241.699	88.1891	241.699	88.1303	241.699	88.2184	241.699	88.0604	241.699	88.2556	241.699	87.9868	241.699	88.2917	241.699	87.9152	241.699	88.3176	241.699	87.8529	241.699	88.3258	241.699	87.8076	241.699	88.3117	241.699	87.7861	241.699	88.2739	241.699	87.7928	241.699	88.2145	241.699	87.828	241.699	88.1383	241.699	87.8881	241.699	88.0525	241.699	87.9659
250.488	88.2042	250.488	88.2109	250.488	88.1789	250.488	88.1979	250.488	88.1382	250.488	88.1657	250.488	88.0875	250.488	88.1156	250.488	88.0338	250.488	88.0494	250.488	87.9848	250.488	87.9685	250.488	87.9469	250.488	87.8743	250.488	87.924	250.488	87.769	250.488	87.9159	250.488	87.6557	250.488	87.9187	250.488	87.54	250.488	87.9255	250.488	87.4301	250.488	87.9282	250.488	87.336	250.488	87.9189	250.488	87.2685	250.488	87.8918	250.488	87.2366	250.488	87.843	250.488	87.2447	250.488	87.7719	250.488	87.2916	250.488	87.6813	250.488	87.3703	250.488	87.5774	250.488	87.4697
259.277	88.3248	259.277	88.3403	259.277	88.2977	259.277	88.3424	259.277	88.2628	259.277	88.3309	259.277	88.2258	259.277	88.3065	259.277	88.1933	259.277	88.27	259.277	88.1716	259.277	88.222	259.277	88.1646	259.277	88.1626	259.277	88.172	259.277	88.0915	259.277	88.1891	259.277	88.009	259.277	88.2073	259.277	87.9166	259.277	88.2161	259.277	87.8181	259.277	88.2065	259.277	87.7202	259.277	88.1725	259.277	87.6323	259.277	88.1128	259.277	87.5649	259.277	88.0302	259.277	87.5275	259.277	87.9311	259.277	87.526	259.277	87.8242	259.277	87.5612	259.277	87.7197	259.277	87.6285
268.066	88.2054	268.066	88.2092	268.066	88.1826	268.066	88.1931	268.066	88.1447	268.066	88.1582	268.066	88.0988	268.066	88.1071	268.066	88.0538	268.066	88.0429	268.066	88.0195	268.066	87.9685	268.066	88.0029	268.066	87.8864	268.066	88.0061	268.066	87.798	268.066	88.0243	268.066	87.7048	268.066	88.0472	268.066	87.6086	268.066	88.0615	268.066	87.5125	268.066	88.0552	268.066	87.422	268.066	88.0204	268.066	87.3449	268.066	87.9551	268.066	87.2903	268.066	87.8627	268.066	87.2663	268.066	87.7511	268.066	87.2781	268.066	87.6303	268.066	87.3265	268.066	87.5118	268.066	87.4071
276.855	88.1814	276.855	88.1892	276.855	88.1557	276.855	88.1784	276.855	88.1139	276.855	88.1487	276.855	88.06	276.855	88.0994	276.855	88.0002	276.855	88.0295	276.855	87.943	276.855	87.9385	276.855	87.8972	276.855	87.8272	276.855	87.8699	276.855	87.699	276.855	87.8636	276.855	87.5603	276.855	87.8742	276.855	87.4205	276.855	87.8916	276.855	87.2902	276.855	87.9019	276.855	87.1802	276.855	87.8912	276.855	87.0997	276.855	87.8499	276.855	87.0556	276.855	87.7745	276.855	87.0522	276.855	87.6683	276.855	87.0904	276.855	87.5407	276.855	87.1674	276.855	87.405	276.855	87.2759
287.109	88.3234	287.109	88.3575	287.109	88.2775	287.109	88.3781	287.109	88.2227	287.109	88.3839	287.109	88.1627	287.109	88.373	287.109	88.1021	287.109	88.3425	287.109	88.0447	287.109	88.2879	287.109	87.9936	287.109	88.2048	287.109	87.9505	287.109	88.0902	287.109	87.9158	287.109	87.9453	287.109	87.8887	287.109	87.777	287.109	87.8672	287.109	87.5994	287.109	87.8474	287.109	87.4317	287.109	87.8238	287.109	87.2946	287.109	87.7898	287.109	87.2052	287.109	87.739	287.109	87.1726	287.109	87.6674	287.109	87.1951	287.109	87.5755	287.109	87.2628	287.109	87.4692	287.109	87.3599
297.363	88.0342	297.363	88.044	297.363	87.9987	297.363	88.0302	297.363	87.9409	297.363	87.9994	297.363	87.8694	297.363	87.9606	297.363	87.7974	297.363	87.9226	297.363	87.7386	297.363	87.891	297.363	87.7035	297.363	87.8657	297.363	87.6948	297.363	87.8399	297.363	87.7062	297.363	87.8017	297.363	87.724	297.363	87.7378	297.363	87.732	297.363	87.6395	297.363	87.7165	297.363	87.507	297.363	87.6696	297.363	87.3523	297.363	87.5905	297.363	87.1974	297.363	87.484	297.363	87.0692	297.363	87.3592	297.363	86.9907	297.363	87.2289	297.363	86.9742	297.363	87.1089	297.363	87.0179
307.617	88.3629	307.617	88.3709	307.617	88.3256	307.617	88.3505	307.617	88.2607	307.617	88.3042	307.617	88.1749	307.617	88.2341	307.617	88.0796	307.617	88.142	307.617	87.9896	307.617	88.0304	307.617	87.9193	307.617	87.9036	307.617	87.8783	307.617	87.7694	307.617	87.8681	307.617	87.6384	307.617	87.8817	307.617	87.5224	307.617	87.9058	307.617	87.4312	307.617	87.926	307.617	87.3705	307.617	87.9301	307.617	87.3409	307.617	87.911	307.617	87.3398	307.617	87.8674	307.617	87.3637	307.617	87.8025	307.617	87.409	307.617	87.7228	307.617	87.4726	307.617	87.6359	307.617	87.5501
319.336	88.0078	319.336	88.0097	319.336	87.9858	319.336	87.9937	319.336	87.9448	319.336	87.9639	319.336	87.8894	319.336	87.9246	319.336	87.8278	319.336	87.8783	319.336	87.7699	319.336	87.825	319.336	87.7247	319.336	87.7623	319.336	87.6979	319.336	87.6867	319.336	87.6899	319.336	87.5962	319.336	87.6957	319.336	87.4926	319.336	87.7068	319.336	87.3833	319.336	87.7142	319.336	87.2806	319.336	87.7103	319.336	87.1993	319.336	87.6901	319.336	87.1527	319.336	87.651	319.336	87.1475	319.336	87.5928	319.336	87.1826	319.336	87.5174	319.336	87.2498	319.336	87.4293	319.336	87.3364
329.59	88.0215	329.59	88.0329	329.59	87.9826	329.59	88.0188	329.59	87.918	329.59	87.9834	329.59	87.8337	329.59	87.9311	329.59	87.7397	329.59	87.8655	329.59	87.6479	329.59	87.7882	329.59	87.5691	329.59	87.6987	329.59	87.5094	329.59	87.5952	329.59	87.4685	329.59	87.476	329.59	87.4403	329.59	87.3419	329.59	87.416	329.59	87.1987	329.59	87.3875	329.59	87.058	329.59	87.3502	329.59	86.9359	329.59	87.3025	329.59	86.8489	329.59	87.2447	329.59	86.808	329.59	87.1771	329.59	86.8149	329.59	87.1004	329.59	86.8615	329.59	87.0172	329.59	86.9338
341.309	88.0604	341.309	88.063	341.309	88.027	341.309	88.0351	341.309	87.9674	341.309	87.9812	341.309	87.8913	341.309	87.9084	341.309	87.8123	341.309	87.824	341.309	87.7446	341.309	87.7336	341.309	87.6984	341.309	87.6395	341.309	87.6759	341.309	87.5403	341.309	87.6691	341.309	87.4317	341.309	87.6627	341.309	87.3094	341.309	87.64	341.309	87.1724	341.309	87.589	341.309	87.0265	341.309	87.5066	341.309	86.885	341.309	87.3974	341.309	86.7669	341.309	87.2709	341.309	86.6906	341.309	87.137	341.309	86.6675	341.309	87.004	341.309	86.6982	341.309	86.8795	341.309	86.7734
353.027	88.0022	353.027	87.981	353.027	87.9712	353.027	87.914	353.027	87.8881	353.027	87.8119	353.027	87.7614	353.027	87.6877	353.027	87.6087	353.027	87.5547	353.027	87.4546	353.027	87.4244	353.027	87.3257	353.027	87.3048	353.027	87.2425	353.027	87.199	353.027	87.2119	353.027	87.1048	353.027	87.2244	353.027	87.0163	353.027	87.2582	353.027	86.9274	353.027	87.2878	353.027	86.8358	353.027	87.2924	353.027	86.7467	353.027	87.2608	353.027	86.6722	353.027	87.1921	353.027	86.6274	353.027	87.0933	353.027	86.6243	353.027	86.9764	353.027	86.6662	353.027	86.8559	353.027	86.7475
366.211	87.9086	366.211	87.9067	366.211	87.8629	366.211	87.8616	366.211	87.7698	366.211	87.7799	366.211	87.6363	366.211	87.6685	366.211	87.4779	366.211	87.5346	366.211	87.3171	366.211	87.3857	366.211	87.1801	366.211	87.2308	366.211	87.0893	366.211	87.0797	366.211	87.0555	366.211	86.9411	366.211	87.0722	366.211	86.8195	366.211	87.1173	366.211	86.7142	366.211	87.1619	366.211	86.6215	366.211	87.18	366.211	86.54	366.211	87.1557	366.211	86.4741	366.211	87.0851	366.211	86.4348	366.211	86.9749	366.211	86.4346	366.211	86.8398	366.211	86.4813	366.211	86.6989	366.211	86.5733
379.395	88.0818	379.395	88.0728	379.395	88.0499	379.395	88.0291	379.395	87.9768	379.395	87.9598	379.395	87.8692	379.395	87.8741	379.395	87.7402	379.395	87.7777	379.395	87.6058	379.395	87.6725	379.395	87.4804	379.395	87.556	379.395	87.3726	379.395	87.4246	379.395	87.2836	379.395	87.2758	379.395	87.2088	379.395	87.1115	379.395	87.1429	379.395	86.9402	379.395	87.0834	379.395	86.7764	379.395	87.0301	379.395	86.6385	379.395	86.9822	379.395	86.5437	379.395	86.9355	379.395	86.5024	379.395	86.8823	379.395	86.5144	379.395	86.8162	379.395	86.5689	379.395	86.7361	379.395	86.6489
392.578	88.0085	392.578	87.9697	392.578	87.9984	392.578	87.8905	392.578	87.936	392.578	87.7823	392.578	87.8254	392.578	87.6562	392.578	87.6792	392.578	87.5214	392.578	87.5181	392.578	87.3834	392.578	87.3662	392.578	87.2442	392.578	87.2438	392.578	87.1038	392.578	87.1584	392.578	86.9613	392.578	87.1026	392.578	86.8164	392.578	87.0594	392.578	86.6714	392.578	87.0122	392.578	86.5327	392.578	86.952	392.578	86.4116	392.578	86.8789	392.578	86.3227	392.578	86.7971	392.578	86.2792	392.578	86.7093	392.578	86.2863	392.578	86.6161	392.578	86.3384	392.578	86.5181	392.578	86.4213
405.762	87.9422	405.762	87.9158	405.762	87.9166	405.762	87.8456	405.762	87.8356	405.762	87.7417	405.762	87.7028	405.762	87.6149	405.762	87.5316	405.762	87.4755	405.762	87.3451	405.762	87.3335	405.762	87.1717	405.762	87.1966	405.762	87.0373	405.762	87.0693	405.762	86.9544	405.762	86.9496	405.762	86.9168	405.762	86.83	405.762	86.9029	405.762	86.7007	405.762	86.8865	405.762	86.5573	405.762	86.8492	405.762	86.4069	405.762	86.7847	405.762	86.2692	405.762	86.696	405.762	86.1705	405.762	86.5895	405.762	86.132	405.762	86.4717	405.762	86.159	405.762	86.3503	405.762	86.2391
420.41	88.2813	420.41	88.2293	420.41	88.2654	420.41	88.12	420.41	88.1776	420.41	87.9679	420.41	88.0223	420.41	87.7888	420.41	87.8137	420.41	87.5981	420.41	87.5743	420.41	87.4101	420.41	87.3319	420.41	87.2371	420.41	87.1142	420.41	87.0872	420.41	86.9414	420.41	86.9622	420.41	86.8205	420.41	86.8554	420.41	86.7439	420.41	86.7546	420.41	86.6949	420.41	86.6493	420.41	86.6548	420.41	86.5373	420.41	86.6099	420.41	86.4277	420.41	86.5536	420.41	86.3366	420.41	86.4861	420.41	86.2799	420.41	86.4129	420.41	86.2651	420.41	86.3433	420.41	86.2897
435.059	87.7658	435.059	87.7316	435.059	87.7419	435.059	87.6482	435.059	87.6576	435.059	87.5269	435.059	87.5202	435.059	87.3778	435.059	87.3473	435.059	87.2083	435.059	87.164	435.059	87.0251	435.059	86.9978	435.059	86.839	435.059	86.87	435.059	86.6672	435.059	86.7886	435.059	86.5305	435.059	86.7465	435.059	86.444	435.059	86.727	435.059	86.4087	435.059	86.7137	435.059	86.4115	435.059	86.6976	435.059	86.4332	435.059	86.6777	435.059	86.4586	435.059	86.6565	435.059	86.4817	435.059	86.6354	435.059	86.504	435.059	86.6127	435.059	86.529	435.059	86.5864	435.059	86.5574
451.172	88.2525	451.172	88.2001	451.172	88.2189	451.172	88.0622	451.172	88.1008	451.172	87.841	451.172	87.9044	451.172	87.5415	451.172	87.644	451.172	87.1752	451.172	87.3458	451.172	86.7632	451.172	87.0463	451.172	86.3386	451.172	86.7839	451.172	85.9448	451.172	86.5847	451.172	85.6257	451.172	86.451	451.172	85.4119	451.172	86.3646	451.172	85.3097	451.172	86.2999	451.172	85.3024	451.172	86.2392	451.172	85.3614	451.172	86.1775	451.172	85.4588	451.172	86.1179	451.172	85.5731	451.172	86.0636	451.172	85.6889	451.172	86.0118	451.172	85.7948	451.172	85.9548	451.172	85.884
465.82	88.3342	465.82	88.2778	465.82	88.3011	465.82	88.1409	465.82	88.1738	465.82	87.9337	465.82	87.9556	465.82	87.6664	465.82	87.6617	465.82	87.3509	465.82	87.3219	465.82	87.0026	465.82	86.9783	465.82	86.6437	465.82	86.6776	465.82	86.3027	465.82	86.4571	465.82	86.0089	465.82	86.3301	465.82	85.783	465.82	86.2816	465.82	85.632	465.82	86.2793	465.82	85.5517	465.82	86.2906	465.82	85.534	465.82	86.2945	465.82	85.5718	465.82	86.2825	465.82	85.6567	465.82	86.2525	465.82	85.7745	465.82	86.2024	465.82	85.905	465.82	86.1282	465.82	86.0276
483.398	88.1653	483.398	88.0839	483.398	88.1751	483.398	87.9372	483.398	88.1085	483.398	87.7312	483.398	87.9645	483.398	87.4714	483.398	87.7483	483.398	87.1635	483.398	87.4745	483.398	86.8163	483.398	87.1673	483.398	86.4455	483.398	86.8594	483.398	86.0759	483.398	86.5839	483.398	85.7384	483.398	86.3642	483.398	85.4624	483.398	86.2072	483.398	85.267	483.398	86.1057	483.398	85.1569	483.398	86.0471	483.398	85.1275	483.398	86.0183	483.398	85.1706	483.398	86.0048	483.398	85.2752	483.398	85.9881	483.398	85.4237	483.398	85.9479	483.398	85.5902	483.398	85.8688	483.398	85.7462
499.512	88.2606	499.512	88.1857	499.512	88.2524	499.512	88.0333	499.512	88.1578	499.512	87.8096	499.512	87.9775	499.512	87.5211	499.512	87.718	499.512	87.1757	499.512	87.3947	499.512	86.7859	499.512	87.0337	499.512	86.3739	499.512	86.672	499.512	85.972	499.512	86.3532	499.512	85.6155	499.512	86.116	499.512	85.3307	499.512	85.9805	499.512	85.1274	499.512	85.9403	499.512	85.0033	499.512	85.9665	499.512	84.9558	499.512	86.0206	499.512	84.9882	499.512	86.0661	499.512	85.1027	499.512	86.0741	499.512	85.2872	499.512	86.0245	499.512	85.51	499.512	85.908	499.512	85.7292
517.09	88.4195	517.09	88.3851	517.09	88.3643	517.09	88.2627	517.09	88.2204	517.09	88.0543	517.09	87.9936	517.09	87.7623	517.09	87.6986	517.09	87.3909	517.09	87.3601	517.09	86.9499	517.09	87.0095	517.09	86.4601	517.09	86.6767	517.09	85.9591	517.09	86.3816	517.09	85.499	517.09	86.1306	517.09	85.1318	517.09	85.9233	517.09	84.8862	517.09	85.7618	517.09	84.7571	517.09	85.655	517.09	84.721	517.09	85.61	517.09	84.7613	517.09	85.6176	517.09	84.8727	517.09	85.6454	517.09	85.0466	517.09	85.6475	517.09	85.2536	517.09	85.5857	517.09	85.4478
536.133	88.034	536.133	87.9681	536.133	87.9862	536.133	87.8014	536.133	87.8214	536.133	87.5515	536.133	87.5517	536.133	87.2366	536.133	87.2076	536.133	86.8727	536.133	86.8364	536.133	86.4736	536.133	86.4917	536.133	86.0552	536.133	86.2162	536.133	85.64	536.133	86.0258	536.133	85.2597	536.133	85.9069	536.133	84.9469	536.133	85.8299	536.133	84.7223	536.133	85.7694	536.133	84.5866	536.133	85.7144	536.133	84.5299	536.133	85.6663	536.133	84.547	536.133	85.6261	536.133	84.6411	536.133	85.5842	536.133	84.8081	536.133	85.5184	536.133	85.0206	536.133	85.4045	536.133	85.233
555.176	88.3098	555.176	88.2202	555.176	88.2711	555.176	88.0182	555.176	88.0962	555.176	87.7225	555.176	87.7901	555.176	87.3505	555.176	87.374	555.176	86.9159	555.176	86.8875	555.176	86.4302	555.176	86.3849	555.176	85.9095	555.176	85.9276	555.176	85.3843	555.176	85.5672	555.176	84.9058	555.176	85.328	555.176	84.5363	555.176	85.1994	555.176	84.3165	555.176	85.1475	555.176	84.2361	555.176	85.1328	555.176	84.2425	555.176	85.1214	555.176	84.2831	555.176	85.0889	555.176	84.3355	555.176	85.0212	555.176	84.4062	555.176	84.9161	555.176	84.5077	555.176	84.7826	555.176	84.6389
574.219	88.0233	574.219	87.8796	574.219	88.0471	574.219	87.6349	574.219	87.9394	574.219	87.3145	574.219	87.6974	574.219	86.9474	574.219	87.3332	574.219	86.5587	574.219	86.8787	574.219	86.1606	574.219	86.3852	574.219	85.7512	574.219	85.9111	574.219	85.3247	574.219	85.5046	574.219	84.8897	574.219	85.192	574.219	84.4816	574.219	84.9821	574.219	84.1554	574.219	84.8756	574.219	83.9588	574.219	84.8649	574.219	83.9062	574.219	84.9244	574.219	83.9769	574.219	85.0085	574.219	84.135	574.219	85.0649	574.219	84.3452	574.219	85.054	574.219	84.5753	574.219	84.9599	574.219	84.7915
594.727	88.0098	594.727	87.801	594.727	88.068	594.727	87.4756	594.727	87.9541	594.727	87.0703	594.727	87.6691	594.727	86.6163	594.727	87.2438	594.727	86.135	594.727	86.7399	594.727	85.64	594.727	86.2364	594.727	85.1473	594.727	85.804	594.727	84.6835	594.727	85.4732	594.727	84.2843	594.727	85.2216	594.727	83.9786	594.727	85.0032	594.727	83.7742	594.727	84.7982	594.727	83.6612	594.727	84.6343	594.727	83.6329	594.727	84.5593	594.727	83.6985	594.727	84.59	594.727	83.8679	594.727	84.6842	594.727	84.121	594.727	84.7631	594.727	84.3992	594.727	84.7554	594.727	84.629
615.234	87.9821	615.234	87.8455	615.234	87.9721	615.234	87.5663	615.234	87.819	615.234	87.1612	615.234	87.5281	615.234	86.6639	615.234	87.1058	615.234	86.1227	615.234	86.5663	615.234	85.5908	615.234	85.9483	615.234	85.1103	615.234	85.3274	615.234	84.7027	615.234	84.8025	615.234	84.3724	615.234	84.4483	615.234	84.1176	615.234	84.2723	615.234	83.9344	615.234	84.2267	615.234	83.8141	615.234	84.256	615.234	83.7458	615.234	84.3251	615.234	83.7284	615.234	84.409	615.234	83.7744	615.234	84.4758	615.234	83.8951	615.234	84.4876	615.234	84.0752	615.234	84.4175	615.234	84.268
637.207	87.9608	637.207	87.746	637.207	88.0398	637.207	87.4141	637.207	87.9706	637.207	86.9901	637.207	87.7467	637.207	86.5032	637.207	87.3694	637.207	85.9819	637.207	86.8535	637.207	85.45	637.207	86.2327	637.207	84.9249	637.207	85.5621	637.207	84.4197	637.207	84.9112	637.207	83.947	637.207	84.3502	637.207	83.5265	637.207	83.9312	637.207	83.1898	637.207	83.6783	637.207	82.9743	637.207	83.5892	637.207	82.9056	637.207	83.6391	637.207	82.983	637.207	83.7787	637.207	83.1769	637.207	83.9383	637.207	83.4384	637.207	84.045	637.207	83.7086	637.207	84.0467	637.207	83.9274
659.18	87.747	659.18	87.5194	659.18	87.8552	659.18	87.1933	659.18	87.8174	659.18	86.7809	659.18	87.6089	659.18	86.2885	659.18	87.2217	659.18	85.7259	659.18	86.6806	659.18	85.1225	659.18	86.0513	659.18	84.5387	659.18	85.426	659.18	84.0533	659.18	84.8843	659.18	83.7179	659.18	84.4475	659.18	83.513	659.18	84.0769	659.18	83.3567	659.18	83.7327	659.18	83.169	659.18	83.4366	659.18	82.9376	659.18	83.2626	659.18	82.7366	659.18	83.2523	659.18	82.6728	659.18	83.3487	659.18	82.7899	659.18	83.4351	659.18	83.0267	659.18	83.4176	659.18	83.268
682.617	87.6867	682.617	87.4968	682.617	87.7036	682.617	87.1346	682.617	87.5598	682.617	86.6109	682.617	87.2825	682.617	85.9456	682.617	86.9135	682.617	85.1684	682.617	86.4967	682.617	84.3278	682.617	86.0559	682.617	83.5118	682.617	85.5856	682.617	82.8671	682.617	85.0719	682.617	82.5624	682.617	84.5214	682.617	82.6567	682.617	83.9687	682.617	83.004	682.617	83.4695	682.617	83.3629	682.617	83.0937	682.617	83.5702	682.617	82.9064	682.617	83.6054	682.617	82.9317	682.617	83.5561	682.617	83.1193	682.617	83.5302	682.617	83.3576	682.617	83.5617	682.617	83.5326	682.617	83.5906
707.52	87.5553	707.52	87.3194	707.52	87.6437	707.52	86.9351	707.52	87.5903	707.52	86.4108	707.52	87.4069	707.52	85.7739	707.52	87.1104	707.52	85.0773	707.52	86.7151	707.52	84.3913	707.52	86.2256	707.52	83.7766	707.52	85.6412	707.52	83.2534	707.52	84.9696	707.52	82.8092	707.52	84.2387	707.52	82.4467	707.52	83.5019	707.52	82.1978	707.52	82.8412	707.52	82.0666	707.52	82.3655	707.52	82.006	707.52	82.1745	707.52	81.9869	707.52	82.2698	707.52	82.0435	707.52	82.5178	707.52	82.216	707.52	82.7394	707.52	82.4712	707.52	82.8122	707.52	82.7055
732.422	87.633	732.422	87.4481	732.422	87.6373	732.422	87.0584	732.422	87.4984	732.422	86.467	732.422	87.25	732.422	85.7139	732.422	86.9091	732.422	84.8786	732.422	86.476	732.422	84.0638	732.422	85.9537	732.422	83.368	732.422	85.3706	732.422	82.8702	732.422	84.7804	732.422	82.6204	732.422	84.2261	732.422	82.5925	732.422	83.7003	732.422	82.6617	732.422	83.1635	732.422	82.6841	732.422	82.6253	732.422	82.5918	732.422	82.2142	732.422	82.4209	732.422	82.1051	732.422	82.2848	732.422	82.3036	732.422	82.2993	732.422	82.5933	732.422	82.4737	732.422	82.7449	732.422	82.6783
757.324	88.1333	757.324	87.9184	757.324	88.0991	757.324	87.4477	757.324	87.8464	757.324	86.743	757.324	87.4293	757.324	85.865	757.324	86.9209	757.324	84.9173	757.324	86.3985	757.324	84.0192	757.324	85.9193	757.324	83.2544	757.324	85.5019	757.324	82.6524	757.324	85.1197	757.324	82.2419	757.324	84.7055	757.324	82.0768	757.324	84.1715	757.324	82.136	757.324	83.4558	757.324	82.2605	757.324	82.6003	757.324	82.2799	757.324	81.828	757.324	82.1526	757.324	81.4685	757.324	81.9809	757.324	81.6116	757.324	81.9233	757.324	81.9661	757.324	82.0361	757.324	82.2	757.324	82.1932
785.156	87.7922	785.156	87.4779	785.156	87.9073	785.156	86.9936	785.156	87.8021	785.156	86.3946	785.156	87.4605	785.156	85.7695	785.156	86.8978	785.156	85.1944	785.156	86.1991	785.156	84.6524	785.156	85.5229	785.156	84.0223	785.156	85.0205	785.156	83.1748	785.156	84.7125	785.156	82.0935	785.156	84.4597	785.156	80.9797	785.156	84.059	785.156	80.2483	785.156	83.3512	785.156	80.1766	785.156	82.2747	785.156	80.5637	785.156	80.9329	785.156	81.0182	785.156	79.7515	785.156	81.3053	785.156	79.3797	785.156	81.3756	785.156	79.8422	785.156	81.2677	785.156	80.5092	785.156	80.9951
811.523	87.4513	811.523	87.2847	811.523	87.4662	811.523	87.011	811.523	87.2795	811.523	86.6789	811.523	86.8534	811.523	86.3359	811.523	86.2103	811.523	85.9787	811.523	85.4787	811.523	85.5034	811.523	84.8726	811.523	84.7451	811.523	84.5667	811.523	83.594	811.523	84.5498	811.523	82.1044	811.523	84.6208	811.523	80.5431	811.523	84.5218	811.523	79.3043	811.523	84.0546	811.523	78.6638	811.523	83.1087	811.523	78.6127	811.523	81.6557	811.523	78.9414	811.523	79.831	811.523	79.3839	811.523	78.2285	811.523	79.6983	811.523	77.8145	811.523	79.7002	811.523	78.489	811.523	79.2804
840.82	86.9626	840.82	86.7955	840.82	87.0414	840.82	86.6064	840.82	86.9503	840.82	86.4558	840.82	86.612	840.82	86.3711	840.82	86.0109	840.82	86.277	840.82	85.248	840.82	85.9908	840.82	84.5487	840.82	85.3303	840.82	84.1655	840.82	84.2311	840.82	84.1462	840.82	82.8108	840.82	84.2493	840.82	81.3562	840.82	84.2077	840.82	80.1865	840.82	83.9112	840.82	79.4531	840.82	83.3257	840.82	79.1014	840.82	82.3799	840.82	79.0121	840.82	81.0159	840.82	79.0722	840.82	79.4342	840.82	79.1327	840.82	78.319	840.82	79.0221	840.82	78.2111	840.82	78.6534
870.117	86.6385	870.117	86.4998	870.117	86.749	870.117	86.4021	870.117	86.7659	870.117	86.4057	870.117	86.6172	870.117	86.4959	870.117	86.231	870.117	86.5349	870.117	85.5585	870.117	86.312	870.117	84.6249	870.117	85.6438	870.117	83.6668	870.117	84.4528	870.117	83.1757	870.117	82.8311	870.117	83.3623	870.117	81.0835	870.117	83.8224	870.117	79.629	870.117	84.1223	870.117	78.6784	870.117	84.0587	870.117	78.0896	870.117	83.5356	870.117	77.7307	870.117	82.5236	870.117	77.7398	870.117	81.1511	870.117	78.1544	870.117	79.8445	870.117	78.6333	870.117	79.1221	870.117	78.8937
900.879	86.8213	900.879	86.7327	900.879	86.8777	900.879	86.6818	900.879	86.8269	900.879	86.6981	900.879	86.6045	900.879	86.7156	900.879	86.1718	900.879	86.5627	900.879	85.5261	900.879	86.036	900.879	84.7155	900.879	85.0048	900.879	83.8922	900.879	83.5089	900.879	83.3303	900.879	81.8646	900.879	83.2264	900.879	80.6619	900.879	83.4874	900.879	80.3155	900.879	83.8479	900.879	80.4989	900.879	84.0433	900.879	80.5071	900.879	83.8595	900.879	79.9394	900.879	83.1673	900.879	78.9311	900.879	81.9901	900.879	78.1422	900.879	80.5957	900.879	78.121	900.879	79.4195	900.879	78.6281
933.105	86.3076	933.105	86.2813	933.105	86.3718	933.105	86.3757	933.105	86.3718	933.105	86.5674	933.105	86.2273	933.105	86.6891	933.105	85.8766	933.105	86.5124	933.105	85.2775	933.105	85.8716	933.105	84.4602	933.105	84.7416	933.105	83.6451	933.105	83.2573	933.105	83.2784	933.105	81.6833	933.105	83.6173	933.105	80.3629	933.105	84.3188	933.105	79.6294	933.105	84.8712	933.105	79.4801	933.105	84.9921	933.105	79.4353	933.105	84.5675	933.105	79.0532	933.105	83.5443	933.105	78.3	933.105	81.9807	933.105	77.5831	933.105	80.2293	933.105	77.461	933.105	78.8457	933.105	77.9616
965.332	85.9399	965.332	85.9388	965.332	86.1175	965.332	86.2008	965.332	86.2756	965.332	86.6307	965.332	86.2278	965.332	86.994	965.332	85.8576	965.332	87.0322	965.332	85.0957	965.332	86.5697	965.332	83.9139	965.332	85.5752	965.332	82.5171	965.332	84.1336	965.332	81.6399	965.332	82.313	965.332	81.95	965.332	80.1634	965.332	82.9783	965.332	78.2661	965.332	83.9636	965.332	77.9092	965.332	84.5166	965.332	78.7429	965.332	84.4316	965.332	79.3411	965.332	83.5671	965.332	79.1925	965.332	81.9027	965.332	78.4129	965.332	79.7429	965.332	77.4996	965.332	77.902	965.332	77.1561
1,000.49	85.4418	1,000.49	85.424	1,000.49	85.6437	1,000.49	85.6449	1,000.49	85.9538	1,000.49	86.1042	1,000.49	86.2418	1,000.49	86.661	1,000.49	86.301	1,000.49	87.0546	1,000.49	85.8657	1,000.49	87.0351	1,000.49	84.6795	1,000.49	86.4468	1,000.49	82.6576	1,000.49	85.2289	1,000.49	80.4544	1,000.49	83.3911	1,000.49	80.1959	1,000.49	81.0262	1,000.49	82.03	1,000.49	78.5013	1,000.49	83.865	1,000.49	76.7893	1,000.49	84.9497	1,000.49	76.4689	1,000.49	85.1781	1,000.49	76.551	1,000.49	84.4922	1,000.49	76.1949	1,000.49	82.8126	1,000.49	75.3925	1,000.49	80.1684	1,000.49	74.6736	1,000.49	77.0807	1,000.49	74.9629
1,035.64	86.5593	1,035.64	86.2235	1,035.64	86.7451	1,035.64	85.7779	1,035.64	86.878	1,035.64	85.5059	1,035.64	87.0007	1,035.64	85.6637	1,035.64	86.9991	1,035.64	86.0526	1,035.64	86.6219	1,035.64	86.1936	1,035.64	85.5606	1,035.64	85.7117	1,035.64	83.5529	1,035.64	84.4485	1,035.64	80.7319	1,035.64	82.5147	1,035.64	79.1758	1,035.64	80.3202	1,035.64	80.9556	1,035.64	78.4594	1,035.64	83.2421	1,035.64	77.3954	1,035.64	84.6701	1,035.64	76.9684	1,035.64	85.1618	1,035.64	76.6421	1,035.64	84.748	1,035.64	76.1477	1,035.64	83.4567	1,035.64	75.605	1,035.64	81.4109	1,035.64	75.6012	1,035.64	78.9683	1,035.64	76.7831
1,072.27	87.603	1,072.27	86.9367	1,072.27	87.9502	1,072.27	86.028	1,072.27	88.0643	1,072.27	85.136	1,072.27	88.0793	1,072.27	84.6397	1,072.27	87.9876	1,072.27	84.7369	1,072.27	87.5989	1,072.27	85.1665	1,072.27	86.6916	1,072.27	85.5454	1,072.27	85.0744	1,072.27	85.6801	1,072.27	82.4696	1,072.27	85.3652	1,072.27	78.7048	1,072.27	84.2414	1,072.27	77.1159	1,072.27	82.0048	1,072.27	80.7006	1,072.27	78.754	1,072.27	83.8064	1,072.27	75.9977	1,072.27	85.49	1,072.27	75.9252	1,072.27	85.9636	1,072.27	76.8462	1,072.27	85.4044	1,072.27	77.5231	1,072.27	83.9962	1,072.27	78.402	1,072.27	82.0253	1,072.27	79.9684
1,108.89	88.4071	1,108.89	87.9416	1,108.89	88.5288	1,108.89	87.034	1,108.89	88.4483	1,108.89	85.6821	1,108.89	88.2872	1,108.89	84.1274	1,108.89	88.076	1,108.89	82.9565	1,108.89	87.7569	1,108.89	82.5093	1,108.89	87.2083	1,108.89	82.6129	1,108.89	86.1993	1,108.89	83.3833	1,108.89	84.3964	1,108.89	84.5189	1,108.89	81.5376	1,108.89	85.0504	1,108.89	78.1803	1,108.89	84.4164	1,108.89	77.838	1,108.89	82.6935	1,108.89	80.6922	1,108.89	80.5942	1,108.89	83.2088	1,108.89	79.3212	1,108.89	84.6828	1,108.89	79.3628	1,108.89	85.1631	1,108.89	80.155	1,108.89	84.7952	1,108.89	81.2609	1,108.89	83.8121	1,108.89	82.5351
1,148.44	89.1286	1,148.44	88.8513	1,148.44	88.8115	1,148.44	87.9653	1,148.44	88.0486	1,148.44	86.4897	1,148.44	87.228	1,148.44	84.5287	1,148.44	86.7995	1,148.44	82.5317	1,148.44	86.7474	1,148.44	81.4011	1,148.44	86.5409	1,148.44	81.6311	1,148.44	85.6589	1,148.44	82.6326	1,148.44	83.8752	1,148.44	83.5406	1,148.44	81.2762	1,148.44	83.8686	1,148.44	78.4736	1,148.44	83.5094	1,148.44	77.6278	1,148.44	82.5966	1,148.44	79.7024	1,148.44	81.4586	1,148.44	82.0288	1,148.44	80.6402	1,148.44	83.43	1,148.44	80.6217	1,148.44	83.8997	1,148.44	81.2495	1,148.44	83.7321	1,148.44	82.0224	1,148.44	83.2645	1,148.44	82.6926
1,189.45	88.7941	1,189.45	88.3017	1,189.45	88.723	1,189.45	87.3463	1,189.45	88.1007	1,189.45	86.0792	1,189.45	87.1109	1,189.45	84.6658	1,189.45	86.106	1,189.45	83.3211	1,189.45	85.3919	1,189.45	82.3958	1,189.45	84.906	1,189.45	82.2884	1,189.45	84.3101	1,189.45	83.0348	1,189.45	83.3533	1,189.45	84.0222	1,189.45	81.9827	1,189.45	84.4719	1,189.45	80.3221	1,189.45	83.9977	1,189.45	78.9262	1,189.45	82.6284	1,189.45	78.9769	1,189.45	80.8224	1,189.45	80.4702	1,189.45	79.715	1,189.45	81.9963	1,189.45	80.0499	1,189.45	82.8647	1,189.45	80.9799	1,189.45	83.0798	1,189.45	81.7949	1,189.45	82.8611	1,189.45	82.4084
1,230.47	88.2913	1,230.47	87.9257	1,230.47	88.1417	1,230.47	87.1414	1,230.47	87.4768	1,230.47	86.0663	1,230.47	86.4934	1,230.47	84.8915	1,230.47	85.5991	1,230.47	83.9356	1,230.47	85.0966	1,230.47	83.4234	1,230.47	84.7711	1,230.47	83.1724	1,230.47	84.1656	1,230.47	82.9481	1,230.47	83.1038	1,230.47	83.0134	1,230.47	81.6293	1,230.47	83.4973	1,230.47	79.8716	1,230.47	83.7539	1,230.47	78.4543	1,230.47	83.2728	1,230.47	78.3367	1,230.47	81.9814	1,230.47	79.3745	1,230.47	80.2217	1,230.47	80.6073	1,230.47	79.1998	1,230.47	81.4987	1,230.47	79.8363	1,230.47	81.9836	1,230.47	81.0361	1,230.47	82.1149	1,230.47	81.8391
1,274.41	86.997	1,274.41	86.8668	1,274.41	86.9979	1,274.41	86.6234	1,274.41	86.801	1,274.41	86.0139	1,274.41	86.3984	1,274.41	84.7902	1,274.41	85.7583	1,274.41	83.2638	1,274.41	84.8325	1,274.41	82.3552	1,274.41	83.6705	1,274.41	82.3405	1,274.41	82.5792	1,274.41	82.2293	1,274.41	81.8991	1,274.41	81.5532	1,274.41	81.5544	1,274.41	81.4148	1,274.41	80.9339	1,274.41	82.0152	1,274.41	79.551	1,274.41	82.2657	1,274.41	78.268	1,274.41	81.7305	1,274.41	78.7897	1,274.41	80.4105	1,274.41	80.086	1,274.41	79.1557	1,274.41	80.7024	1,274.41	79.2282	1,274.41	80.6927	1,274.41	79.9952	1,274.41	80.5872	1,274.41	80.4583
1,319.82	87.1222	1,319.82	86.9955	1,319.82	87.3206	1,319.82	86.8898	1,319.82	87.3284	1,319.82	86.4332	1,319.82	86.854	1,319.82	85.332	1,319.82	85.8304	1,319.82	83.9106	1,319.82	84.538	1,319.82	83.2051	1,319.82	83.4404	1,319.82	83.5045	1,319.82	82.6832	1,319.82	83.4169	1,319.82	81.9045	1,319.82	81.7042	1,319.82	80.7582	1,319.82	79.2936	1,319.82	79.4877	1,319.82	79.246	1,319.82	78.7954	1,319.82	81.0043	1,319.82	78.9572	1,319.82	82.3561	1,319.82	79.671	1,319.82	82.0196	1,319.82	80.5713	1,319.82	79.9665	1,319.82	81.1713	1,319.82	77.8133	1,319.82	81.1849	1,319.82	78.2509	1,319.82	80.7076	1,319.82	79.7395
1,366.7	87.9589	1,366.7	87.7934	1,366.7	88.0555	1,366.7	87.351	1,366.7	87.9164	1,366.7	86.4181	1,366.7	87.2576	1,366.7	85.3101	1,366.7	86.1593	1,366.7	84.7841	1,366.7	85.1138	1,366.7	84.7821	1,366.7	84.3941	1,366.7	84.5347	1,366.7	83.6175	1,366.7	83.4935	1,366.7	82.3998	1,366.7	81.1748	1,366.7	81.1691	1,366.7	78.3606	1,366.7	80.8507	1,366.7	77.6237	1,366.7	80.8094	1,366.7	79.5392	1,366.7	80.0224	1,366.7	81.4778	1,366.7	79.4528	1,366.7	81.8338	1,366.7	80.4621	1,366.7	80.9169	1,366.7	81.2723	1,366.7	79.5573	1,366.7	80.907	1,366.7	78.7595	1,366.7	79.9323	1,366.7	79.0449
1,413.57	87.524	1,413.57	87.4479	1,413.57	87.1915	1,413.57	86.8983	1,413.57	86.6875	1,413.57	85.9693	1,413.57	86.2115	1,413.57	84.7509	1,413.57	85.6983	1,413.57	83.3067	1,413.57	85.0271	1,413.57	82.4382	1,413.57	84.3405	1,413.57	82.3523	1,413.57	83.7828	1,413.57	81.5311	1,413.57	82.971	1,413.57	79.8174	1,413.57	81.2727	1,413.57	77.3686	1,413.57	78.7556	1,413.57	76.38	1,413.57	77.5962	1,413.57	78.9073	1,413.57	79.1897	1,413.57	80.3417	1,413.57	80.5133	1,413.57	80.4843	1,413.57	80.7127	1,413.57	79.9277	1,413.57	80.423	1,413.57	78.8926	1,413.57	79.5734	1,413.57	77.72	1,413.57	78.1318	1,413.57	77.2255
1,463.38	88.5052	1,463.38	88.0197	1,463.38	88.5963	1,463.38	87.3105	1,463.38	88.2268	1,463.38	86.5902	1,463.38	87.5008	1,463.38	85.8232	1,463.38	86.5847	1,463.38	84.5701	1,463.38	85.427	1,463.38	82.3576	1,463.38	83.9531	1,463.38	79.7418	1,463.38	82.4942	1,463.38	78.8504	1,463.38	81.652	1,463.38	78.4499	1,463.38	81.2476	1,463.38	77.3239	1,463.38	80.7198	1,463.38	74.8721	1,463.38	80.1892	1,463.38	74.8383	1,463.38	80.0298	1,463.38	79.333	1,463.38	80.0433	1,463.38	80.8717	1,463.38	79.6639	1,463.38	80.0718	1,463.38	78.9878	1,463.38	78.7906	1,463.38	78.6625	1,463.38	78.4937	1,463.38	78.7482	1,463.38	78.7418
1,516.11	88.6726	1,516.11	88.3114	1,516.11	88.6131	1,516.11	87.5258	1,516.11	88.1354	1,516.11	86.4806	1,516.11	87.1806	1,516.11	85.4914	1,516.11	85.7493	1,516.11	84.5251	1,516.11	84.1118	1,516.11	82.9404	1,516.11	82.8488	1,516.11	80.6327	1,516.11	82.2628	1,516.11	79.6208	1,516.11	82.0079	1,516.11	80.987	1,516.11	81.7693	1,516.11	81.9243	1,516.11	81.3085	1,516.11	79.9733	1,516.11	80.2919	1,516.11	76.0829	1,516.11	78.8711	1,516.11	77.0274	1,516.11	78.587	1,516.11	78.4464	1,516.11	79.0386	1,516.11	78.5246	1,516.11	78.5779	1,516.11	77.8696	1,516.11	77.8254	1,516.11	77.7862	1,516.11	77.9265	1,516.11	78.1672
1,568.85	88.4836	1,568.85	88.3661	1,568.85	88.1233	1,568.85	87.5807	1,568.85	87.4916	1,568.85	86.1726	1,568.85	86.6682	1,568.85	84.604	1,568.85	85.4885	1,568.85	83.4198	1,568.85	83.8371	1,568.85	82.3079	1,568.85	82.3493	1,568.85	80.7136	1,568.85	81.7817	1,568.85	80.083	1,568.85	81.3705	1,568.85	81.8232	1,568.85	80.3238	1,568.85	83.2504	1,568.85	79.3041	1,568.85	82.1967	1,568.85	78.8523	1,568.85	78.7395	1,568.85	78.5243	1,568.85	76.6339	1,568.85	78.8668	1,568.85	77.6035	1,568.85	79.6156	1,568.85	77.7835	1,568.85	79.6134	1,568.85	76.8014	1,568.85	79.0932	1,568.85	77.1539	1,568.85	78.9136	1,568.85	78.5111
1,624.51	88.0447	1,624.51	87.9516	1,624.51	87.5791	1,624.51	87.1428	1,624.51	86.9639	1,624.51	85.7401	1,624.51	86.4474	1,624.51	84.0751	1,624.51	85.6237	1,624.51	82.6401	1,624.51	84.1685	1,624.51	81.5646	1,624.51	82.792	1,624.51	80.4498	1,624.51	82.0821	1,624.51	79.5583	1,624.51	81.2105	1,624.51	80.0475	1,624.51	79.71	1,624.51	80.9127	1,624.51	78.7114	1,624.51	79.8461	1,624.51	78.8286	1,624.51	77.662	1,624.51	78.6299	1,624.51	77.5005	1,624.51	78.0684	1,624.51	79.0693	1,624.51	78.3646	1,624.51	79.1533	1,624.51	78.1843	1,624.51	77.0459	1,624.51	76.309	1,624.51	74.8873	1,624.51	74.1217	1,624.51	74.3836
1,681.64	86.412	1,681.64	86.5798	1,681.64	86.0079	1,681.64	86.3239	1,681.64	85.7135	1,681.64	85.5971	1,681.64	85.4457	1,681.64	84.2655	1,681.64	84.532	1,681.64	82.4287	1,681.64	82.7275	1,681.64	81.1692	1,681.64	81.0694	1,681.64	80.8448	1,681.64	80.5856	1,681.64	80.0256	1,681.64	80.8706	1,681.64	78.8112	1,681.64	81.0843	1,681.64	78.883	1,681.64	80.7913	1,681.64	78.8843	1,681.64	79.8828	1,681.64	77.9713	1,681.64	78.7065	1,681.64	77.5822	1,681.64	78.0704	1,681.64	78.2735	1,681.64	78.7682	1,681.64	77.8939	1,681.64	79.5746	1,681.64	75.5107	1,681.64	78.7108	1,681.64	71.4431	1,681.64	75.4137	1,681.64	71.0249
1,741.7	86.4394	1,741.7	86.4442	1,741.7	86.3153	1,741.7	86.4648	1,741.7	86.1119	1,741.7	86.4896	1,741.7	85.7272	1,741.7	85.9521	1,741.7	84.6869	1,741.7	84.1375	1,741.7	83.0513	1,741.7	81.4297	1,741.7	81.645	1,741.7	80.1155	1,741.7	80.0487	1,741.7	80.0398	1,741.7	78.8205	1,741.7	78.5155	1,741.7	79.2319	1,741.7	76.3291	1,741.7	80.1462	1,741.7	76.3432	1,741.7	80.1266	1,741.7	77.598	1,741.7	78.8442	1,741.7	78.7714	1,741.7	77.9013	1,741.7	79.8265	1,741.7	79.6662	1,741.7	80.3579	1,741.7	81.6824	1,741.7	80.0262	1,741.7	81.7975	1,741.7	78.9491	1,741.7	80.0471	1,741.7	78.4215
1,803.22	88.1517	1,803.22	87.6755	1,803.22	88.0746	1,803.22	87.1474	1,803.22	87.4066	1,803.22	86.9459	1,803.22	86.278	1,803.22	86.5181	1,803.22	84.908	1,803.22	85.149	1,803.22	83.9698	1,803.22	83.0411	1,803.22	83.6999	1,803.22	81.4235	1,803.22	82.3414	1,803.22	80.6974	1,803.22	79.844	1,803.22	78.8803	1,803.22	78.4209	1,803.22	75.3135	1,803.22	78.4925	1,803.22	70.932	1,803.22	78.8864	1,803.22	72.396	1,803.22	78.8273	1,803.22	77.0436	1,803.22	77.8903	1,803.22	78.8867	1,803.22	78.6561	1,803.22	80.0461	1,803.22	81.0133	1,803.22	80.3504	1,803.22	81.5199	1,803.22	79.3142	1,803.22	80.2038	1,803.22	78.8098
1,866.21	88.4234	1,866.21	87.751	1,866.21	88.5572	1,866.21	87.4777	1,866.21	87.4564	1,866.21	87.6297	1,866.21	85.2352	1,866.21	87.2769	1,866.21	83.6032	1,866.21	85.5924	1,866.21	83.9369	1,866.21	83.0632	1,866.21	84.3637	1,866.21	81.3865	1,866.21	83.4128	1,866.21	81.259	1,866.21	81.5566	1,866.21	80.5026	1,866.21	80.5334	1,866.21	78.6888	1,866.21	80.2015	1,866.21	77.0973	1,866.21	79.1736	1,866.21	72.3058	1,866.21	78.4713	1,866.21	74.09	1,866.21	78.6378	1,866.21	79.2434	1,866.21	78.8984	1,866.21	81.371	1,866.21	80.286	1,866.21	81.4827	1,866.21	80.9202	1,866.21	80.3506	1,866.21	80.0367	1,866.21	79.4312
1,932.13	87.8929	1,932.13	87.8735	1,932.13	88.0415	1,932.13	87.7172	1,932.13	87.6579	1,932.13	86.7566	1,932.13	86.2565	1,932.13	85.0583	1,932.13	84.1812	1,932.13	83.1826	1,932.13	82.7404	1,932.13	81.5623	1,932.13	82.6832	1,932.13	79.1686	1,932.13	82.5769	1,932.13	77.2795	1,932.13	81.629	1,932.13	78.4705	1,932.13	80.6504	1,932.13	80.681	1,932.13	80.9706	1,932.13	80.4014	1,932.13	80.7753	1,932.13	76.3826	1,932.13	79.3667	1,932.13	73.5259	1,932.13	78.2711	1,932.13	77.5194	1,932.13	78.2823	1,932.13	80.4632	1,932.13	79.5331	1,932.13	80.896	1,932.13	80.6697	1,932.13	79.8245	1,932.13	80.1921	1,932.13	79.2568
1,999.51	87.0309	1,999.51	87.6021	1,999.51	87.0382	1,999.51	87.6546	1,999.51	87.3109	1,999.51	86.4181	1,999.51	86.6137	1,999.51	84.3985	1,999.51	84.5206	1,999.51	83.1988	1,999.51	81.8644	1,999.51	82.5278	1,999.51	80.4102	1,999.51	80.1366	1,999.51	80.5446	1,999.51	76.0762	1,999.51	80.0665	1,999.51	75.9351	1,999.51	78.3097	1,999.51	79.1825	1,999.51	78.4153	1,999.51	80.1784	1,999.51	80.2173	1,999.51	77.4823	1,999.51	79.7735	1,999.51	74.209	1,999.51	77.2465	1,999.51	77.222	1,999.51	77.3267	1,999.51	79.0917	1,999.51	79.1738	1,999.51	79.219	1,999.51	79.5894	1,999.51	78.4713	1,999.51	78.7293	1,999.51	77.8632
2,069.82	87.629	2,069.82	87.9776	2,069.82	87.0858	2,069.82	87.389	2,069.82	86.8962	2,069.82	85.9493	2,069.82	86.019	2,069.82	85.0686	2,069.82	84.2202	2,069.82	84.8036	2,069.82	82.3723	2,069.82	83.7568	2,069.82	80.4856	2,069.82	81.4212	2,069.82	79.491	2,069.82	78.8534	2,069.82	78.7428	2,069.82	77.4529	2,069.82	77.1156	2,069.82	78.3543	2,069.82	77.7441	2,069.82	77.1456	2,069.82	79.4413	2,069.82	71.1394	2,069.82	79.8027	2,069.82	67.5175	2,069.82	78.1687	2,069.82	76.2505	2,069.82	73.7871	2,069.82	80.1462	2,069.82	75.5177	2,069.82	80.9631	2,069.82	77.9886	2,069.82	79.444	2,069.82	77.8295	2,069.82	77.691
2,143.07	88.739	2,143.07	88.1969	2,143.07	87.9676	2,143.07	86.879	2,143.07	86.4639	2,143.07	86.1199	2,143.07	85.1034	2,143.07	85.8748	2,143.07	83.9841	2,143.07	84.6699	2,143.07	82.2157	2,143.07	82.2773	2,143.07	79.8943	2,143.07	80.5752	2,143.07	79.2516	2,143.07	79.7192	2,143.07	78.5429	2,143.07	77.0398	2,143.07	75.5823	2,143.07	75.4252	2,143.07	74.7682	2,143.07	75.4103	2,143.07	75.77	2,143.07	74.2834	2,143.07	77.4384	2,143.07	65.9391	2,143.07	78.5095	2,143.07	74.227	2,143.07	75.9485	2,143.07	80.1672	2,143.07	73.6596	2,143.07	80.898	2,143.07	75.6938	2,143.07	79.206	2,143.07	75.8864	2,143.07	76.7679
2,219.24	89.1825	2,219.24	88.7568	2,219.24	88.3243	2,219.24	87.6017	2,219.24	86.1705	2,219.24	86.1458	2,219.24	83.8236	2,219.24	84.4878	2,219.24	82.8292	2,219.24	82.9897	2,219.24	81.8452	2,219.24	81.3412	2,219.24	79.8703	2,219.24	79.051	2,219.24	78.6308	2,219.24	77.6961	2,219.24	77.819	2,219.24	76.9779	2,219.24	75.104	2,219.24	75.0557	2,219.24	70.8176	2,219.24	75.5443	2,219.24	73.4942	2,219.24	74.9591	2,219.24	77.4922	2,219.24	65.4567	2,219.24	77.3897	2,219.24	69.7277	2,219.24	75.1709	2,219.24	76.5084	2,219.24	72.8814	2,219.24	79.2673	2,219.24	71.8167	2,219.24	78.7016	2,219.24	73.8426	2,219.24	76.3529
2,296.88	88.7537	2,296.88	88.3558	2,296.88	88.3925	2,296.88	87.2011	2,296.88	87.4178	2,296.88	85.701	2,296.88	85.484	2,296.88	83.9319	2,296.88	83.1315	2,296.88	80.8667	2,296.88	81.1108	2,296.88	78.0196	2,296.88	78.2733	2,296.88	77.622	2,296.88	76.8647	2,296.88	75.1327	2,296.88	77.325	2,296.88	74.5203	2,296.88	76.7033	2,296.88	76.8667	2,296.88	74.4533	2,296.88	77.1874	2,296.88	71.5593	2,296.88	73.5931	2,296.88	74.6344	2,296.88	68.1236	2,296.88	76.3452	2,296.88	66.6182	2,296.88	73.3989	2,296.88	76.6871	2,296.88	71.2731	2,296.88	78.824	2,296.88	73.6927	2,296.88	77.0611	2,296.88	75.5706	2,296.88	75.4624
2,378.91	87.4095	2,378.91	86.9458	2,378.91	87.5303	2,378.91	86.4423	2,378.91	87.2073	2,378.91	85.2175	2,378.91	85.8473	2,378.91	81.6054	2,378.91	83.2359	2,378.91	77.9169	2,378.91	79.876	2,378.91	78.6123	2,378.91	77.7675	2,378.91	77.7871	2,378.91	77.8066	2,378.91	70.6136	2,378.91	75.6144	2,378.91	67.2717	2,378.91	71.4455	2,378.91	74.4586	2,378.91	69.0456	2,378.91	75.2251	2,378.91	71.0135	2,378.91	73.6993	2,378.91	74.6634	2,378.91	69.7298	2,378.91	75.7226	2,378.91	55.1731	2,378.91	72.8125	2,378.91	72.7557	2,378.91	71.2346	2,378.91	76.7529	2,378.91	73.672	2,378.91	74.9548	2,378.91	72.7015	2,378.91	70.819
2,462.4	87.852	2,462.4	87.2561	2,462.4	87.1298	2,462.4	86.1597	2,462.4	85.6174	2,462.4	84.1395	2,462.4	84.3781	2,462.4	81.2681	2,462.4	82.3983	2,462.4	80.7921	2,462.4	79.8207	2,462.4	78.5484	2,462.4	77.318	2,462.4	72.1697	2,462.4	75.3199	2,462.4	69.172	2,462.4	72.4313	2,462.4	68.023	2,462.4	69.8243	2,462.4	67.4935	2,462.4	65.3307	2,462.4	71.3191	2,462.4	70.514	2,462.4	72.9696	2,462.4	71.1702	2,462.4	70.2299	2,462.4	65.9206	2,462.4	62.4545	2,462.4	70.2261	2,462.4	68.5742	2,462.4	70.0725	2,462.4	74.2558	2,462.4	72.3617	2,462.4	75.7536	2,462.4	72.7717	2,462.4	74.3163
2,548.83	88.8797	2,548.83	88.5343	2,548.83	88.1544	2,548.83	86.7769	2,548.83	85.5178	2,548.83	83.9732	2,548.83	82.0488	2,548.83	83.1939	2,548.83	80.7757	2,548.83	81.7938	2,548.83	79.441	2,548.83	77.7501	2,548.83	75.4786	2,548.83	75.3342	2,548.83	74.0688	2,548.83	72.637	2,548.83	74.587	2,548.83	66.5671	2,548.83	69.193	2,548.83	70.8773	2,548.83	67.2751	2,548.83	73.6314	2,548.83	59.7304	2,548.83	71.7711	2,548.83	70.2953	2,548.83	70.1693	2,548.83	66.975	2,548.83	63.9856	2,548.83	67.1265	2,548.83	69.4218	2,548.83	67.3772	2,548.83	74.1354	2,548.83	69.823	2,548.83	74.0661	2,548.83	71.8269	2,548.83	73.1922
2,639.65	88.5077	2,639.65	88.5488	2,639.65	88.1097	2,639.65	87.3363	2,639.65	86.1319	2,639.65	85.4255	2,639.65	82.0263	2,639.65	83.3004	2,639.65	79.3912	2,639.65	79.3377	2,639.65	77.7511	2,639.65	75.0782	2,639.65	71.9589	2,639.65	72.573	2,639.65	73.8514	2,639.65	69.4696	2,639.65	75.1205	2,639.65	69.074	2,639.65	71.1217	2,639.65	69.2137	2,639.65	74.5241	2,639.65	72.934	2,639.65	67.9237	2,639.65	73.2108	2,639.65	67.9276	2,639.65	67.4331	2,639.65	70.6061	2,639.65	61.0149	2,639.65	68.7745	2,639.65	70.4133	2,639.65	65.9169	2,639.65	75.5641	2,639.65	67.6598	2,639.65	75.2769	2,639.65	69.8853	2,639.65	71.2
2,731.93	87.7963	2,731.93	87.3302	2,731.93	87.3126	2,731.93	86.6714	2,731.93	85.8352	2,731.93	85.4527	2,731.93	82.9803	2,731.93	82.0307	2,731.93	79.5953	2,731.93	77.9512	2,731.93	75.2488	2,731.93	73.8586	2,731.93	71.6307	2,731.93	70.2977	2,731.93	72.5292	2,731.93	71.4286	2,731.93	70.4626	2,731.93	68.6909	2,731.93	71.7037	2,731.93	61.2727	2,731.93	75.6342	2,731.93	67.0802	2,731.93	70.8734	2,731.93	69.9467	2,731.93	65.9621	2,731.93	66.5007	2,731.93	70.724	2,731.93	49.9832	2,731.93	69.2191	2,731.93	69.1836	2,731.93	68.0684	2,731.93	74.6693	2,731.93	66.4927	2,731.93	75.1877	2,731.93	69.8889	2,731.93	72.4174
2,828.61	87.851	2,828.61	87.1223	2,828.61	87.1557	2,828.61	85.868	2,828.61	85.2024	2,828.61	83.9827	2,828.61	82.7593	2,828.61	81.2526	2,828.61	78.7999	2,828.61	77.4506	2,828.61	70.1286	2,828.61	71.9653	2,828.61	69.0479	2,828.61	67.976	2,828.61	68.6752	2,828.61	67.0284	2,828.61	61.5409	2,828.61	64.8447	2,828.61	69.3232	2,828.61	58.3078	2,828.61	73.5878	2,828.61	65.119	2,828.61	70.7346	2,828.61	64.5821	2,828.61	67.5159	2,828.61	59.2366	2,828.61	65.9524	2,828.61	57.6414	2,828.61	67.447	2,828.61	67.349	2,828.61	68.0787	2,828.61	72.7568	2,828.61	67.2141	2,828.61	73.1999	2,828.61	68.4068	2,828.61	70.438
2,928.22	87.9734	2,928.22	87.7919	2,928.22	86.9283	2,928.22	86.192	2,928.22	83.9334	2,928.22	83.2622	2,928.22	80.2795	2,928.22	80.7829	2,928.22	74.3977	2,928.22	76.9419	2,928.22	59.2935	2,928.22	70.7042	2,928.22	71.6395	2,928.22	66.2363	2,928.22	71.0243	2,928.22	67.3716	2,928.22	60.9308	2,928.22	65.9018	2,928.22	64.0275	2,928.22	58.3865	2,928.22	69.9106	2,928.22	61.8192	2,928.22	71.7671	2,928.22	66.9673	2,928.22	71.0372	2,928.22	67.3458	2,928.22	70.8277	2,928.22	67.7981	2,928.22	55.6627	2,928.22	66.4959	2,928.22	66.8548	2,928.22	68.6669	2,928.22	66.2235	2,928.22	70.7574	2,928.22	64.2805	2,928.22	67.7453
3,030.76	88.1507	3,030.76	88.131	3,030.76	87.0901	3,030.76	87.0627	3,030.76	83.4459	3,030.76	84.5966	3,030.76	78.1044	3,030.76	81.1747	3,030.76	66.5734	3,030.76	75.1939	3,030.76	67.9664	3,030.76	69.5319	3,030.76	73.8271	3,030.76	64.2812	3,030.76	74.4056	3,030.76	67.8826	3,030.76	70.8218	3,030.76	62.9867	3,030.76	72.7971	3,030.76	67.2184	3,030.76	73.858	3,030.76	66.2174	3,030.76	72.7771	3,030.76	67.641	3,030.76	72.3489	3,030.76	67.5676	3,030.76	74.11	3,030.76	70.6889	3,030.76	65.8915	3,030.76	67.7439	3,030.76	64.3061	3,030.76	66.9737	3,030.76	69.1237	3,030.76	71.2608	3,030.76	68.237	3,030.76	69.7987
3,137.7	88.2294	3,137.7	87.8945	3,137.7	87.5866	3,137.7	87.042	3,137.7	83.7516	3,137.7	85.5237	3,137.7	76.0124	3,137.7	81.0805	3,137.7	59.6453	3,137.7	73.4638	3,137.7	72.073	3,137.7	66.7373	3,137.7	76.1272	3,137.7	70.0339	3,137.7	76.0558	3,137.7	62.8271	3,137.7	73.6138	3,137.7	67.9169	3,137.7	75.0632	3,137.7	72.2619	3,137.7	75.068	3,137.7	71.0122	3,137.7	73.9905	3,137.7	69.1889	3,137.7	70.7623	3,137.7	66.8286	3,137.7	74.9245	3,137.7	70.9638	3,137.7	70.8116	3,137.7	69.1609	3,137.7	62.0029	3,137.7	66.3182	3,137.7	71.3095	3,137.7	74.204	3,137.7	71.8553	3,137.7	73.1677
3,249.02	88.0557	3,249.02	88.0553	3,249.02	87.4537	3,249.02	86.9278	3,249.02	83.8237	3,249.02	84.4798	3,249.02	74.871	3,249.02	79.4678	3,249.02	69.0294	3,249.02	68.7296	3,249.02	75.7542	3,249.02	69.9688	3,249.02	78.428	3,249.02	70.5721	3,249.02	77.5138	3,249.02	72.5235	3,249.02	77.13	3,249.02	74.1375	3,249.02	77.6793	3,249.02	68.4585	3,249.02	76.9572	3,249.02	73.3314	3,249.02	75.5887	3,249.02	71.7626	3,249.02	69.269	3,249.02	63.9184	3,249.02	73.3569	3,249.02	67.0414	3,249.02	72.3195	3,249.02	69.1655	3,249.02	64.1924	3,249.02	64.4406	3,249.02	68.8369	3,249.02	74.1782	3,249.02	72.4868	3,249.02	72.6058
3,363.28	88.0643	3,363.28	88.3372	3,363.28	86.6336	3,363.28	86.5893	3,363.28	83.1083	3,363.28	82.4985	3,363.28	73.3633	3,363.28	72.9869	3,363.28	75.3405	3,363.28	68.4717	3,363.28	77.1547	3,363.28	74.5078	3,363.28	80.4767	3,363.28	74.9046	3,363.28	80.0787	3,363.28	78.2016	3,363.28	79.5695	3,363.28	76.4774	3,363.28	79.8319	3,363.28	70.6373	3,363.28	78.6673	3,363.28	70.834	3,363.28	72.406	3,363.28	72.8236	3,363.28	69.8597	3,363.28	65.2594	3,363.28	72.9934	3,363.28	67.2279	3,363.28	72.426	3,363.28	71.1443	3,363.28	62.4078	3,363.28	49.5405	3,363.28	67.5451	3,363.28	74.2477	3,363.28	71.0717	3,363.28	73.0451
3,481.93	88.2752	3,481.93	88.5689	3,481.93	86.2303	3,481.93	86.9077	3,481.93	82.0832	3,481.93	81.2991	3,481.93	69.5858	3,481.93	72.8403	3,481.93	78.0656	3,481.93	74.8556	3,481.93	78.0203	3,481.93	75.2279	3,481.93	81.6373	3,481.93	75.8009	3,481.93	80.5461	3,481.93	77.6315	3,481.93	80.2655	3,481.93	73.3221	3,481.93	79.8023	3,481.93	73.542	3,481.93	79.7356	3,481.93	69.2252	3,481.93	74.1588	3,481.93	72.2709	3,481.93	70.9719	3,481.93	66.5408	3,481.93	73.1802	3,481.93	63.357	3,481.93	72.7024	3,481.93	69.9139	3,481.93	65.219	3,481.93	60.2334	3,481.93	66.3859	3,481.93	73.7282	3,481.93	70.1671	3,481.93	73.4739
3,604.98	89.1623	3,604.98	88.9343	3,604.98	86.6594	3,604.98	86.4408	3,604.98	81.0962	3,604.98	81.2944	3,604.98	71.6025	3,604.98	76.1701	3,604.98	78.8007	3,604.98	74.9351	3,604.98	80.6868	3,604.98	76.0928	3,604.98	83.0276	3,604.98	76.2849	3,604.98	81.0984	3,604.98	69.1364	3,604.98	80.3779	3,604.98	71.8843	3,604.98	79.7308	3,604.98	72.4707	3,604.98	76.8983	3,604.98	71.0753	3,604.98	75.15	3,604.98	72.6513	3,604.98	74.2756	3,604.98	70.3119	3,604.98	73.2545	3,604.98	64.2895	3,604.98	75.4598	3,604.98	71.3497	3,604.98	70.5041	3,604.98	64.5431	3,604.98	68.9289	3,604.98	76.7158	3,604.98	72.2562	3,604.98	76.5158
3,732.42	88.8113	3,732.42	88.7365	3,732.42	87.2425	3,732.42	86.3973	3,732.42	82.5113	3,732.42	80.3347	3,732.42	72.9869	3,732.42	76.3168	3,732.42	79.9223	3,732.42	77.8394	3,732.42	82.7362	3,732.42	78.7439	3,732.42	83.7892	3,732.42	76.3433	3,732.42	81.7473	3,732.42	75.7385	3,732.42	77.5992	3,732.42	76.8129	3,732.42	76.7425	3,732.42	72.2376	3,732.42	69.7014	3,732.42	70.3615	3,732.42	64.7776	3,732.42	74.3724	3,732.42	74.7598	3,732.42	74.4789	3,732.42	70.7945	3,732.42	57.683	3,732.42	73.5123	3,732.42	67.5942	3,732.42	71.8062	3,732.42	55.8713	3,732.42	66.6307	3,732.42	75.8541	3,732.42	70.648	3,732.42	75.7824
3,864.26	87.7791	3,864.26	87.7786	3,864.26	86.2523	3,864.26	85.2421	3,864.26	82.9876	3,864.26	79.1983	3,864.26	73.4393	3,864.26	79.3815	3,864.26	80.9317	3,864.26	78.3438	3,864.26	84.1626	3,864.26	78.5433	3,864.26	83.3775	3,864.26	74.3612	3,864.26	81.2078	3,864.26	76.8787	3,864.26	78.2145	3,864.26	75.7544	3,864.26	72.0654	3,864.26	73.3643	3,864.26	69.5784	3,864.26	67.9823	3,864.26	72.7677	3,864.26	71.0957	3,864.26	75.043	3,864.26	73.07	3,864.26	68.6822	3,864.26	57.696	3,864.26	72.5657	3,864.26	70.5837	3,864.26	65.501	3,864.26	63.5894	3,864.26	70.5525	3,864.26	71.2592	3,864.26	69.7751	3,864.26	74.3793
4,000.49	88.2501	4,000.49	88.6453	4,000.49	85.8509	4,000.49	84.4381	4,000.49	81.6039	4,000.49	80.1324	4,000.49	74.7763	4,000.49	79.4804	4,000.49	81.6708	4,000.49	80.2779	4,000.49	85.8016	4,000.49	77.7868	4,000.49	83.45	4,000.49	78.3459	4,000.49	80.6086	4,000.49	75.6967	4,000.49	79.7644	4,000.49	71.5217	4,000.49	73.1108	4,000.49	73.0454	4,000.49	77.3865	4,000.49	68.3133	4,000.49	78.6006	4,000.49	68.6108	4,000.49	71.6175	4,000.49	72.9895	4,000.49	67.7849	4,000.49	66.1695	4,000.49	69.8931	4,000.49	70.7011	4,000.49	64.1987	4,000.49	63.8131	4,000.49	71.9198	4,000.49	74.0742	4,000.49	68.8247	4,000.49	73.7499
4,141.11	88.7557	4,141.11	87.6547	4,141.11	85.9739	4,141.11	83.9654	4,141.11	81.3513	4,141.11	81.8636	4,141.11	75.2767	4,141.11	80.9871	4,141.11	82.3985	4,141.11	79.7001	4,141.11	85.8592	4,141.11	75.7297	4,141.11	80.9262	4,141.11	74.764	4,141.11	80.529	4,141.11	71.0415	4,141.11	72.479	4,141.11	77.4619	4,141.11	72.7797	4,141.11	74.1154	4,141.11	80.6709	4,141.11	73.7589	4,141.11	79.8463	4,141.11	60.0697	4,141.11	74.3558	4,141.11	74.1963	4,141.11	71.5372	4,141.11	72.846	4,141.11	72.534	4,141.11	69.2835	4,141.11	67.7779	4,141.11	69.4293	4,141.11	72.0048	4,141.11	73.01	4,141.11	71.0627	4,141.11	75.8396
4,287.6	88.8826	4,287.6	87.3515	4,287.6	87.062	4,287.6	84.0679	4,287.6	81.9062	4,287.6	82.0426	4,287.6	75.1769	4,287.6	81.6962	4,287.6	82.4519	4,287.6	77.434	4,287.6	85.5414	4,287.6	77.5797	4,287.6	82.1253	4,287.6	75.3765	4,287.6	80.8294	4,287.6	78.7835	4,287.6	64.1691	4,287.6	74.3837	4,287.6	72.9797	4,287.6	71.8902	4,287.6	80.2675	4,287.6	73.8137	4,287.6	76.2524	4,287.6	66.3321	4,287.6	74.0397	4,287.6	71.2954	4,287.6	74.2109	4,287.6	73.7855	4,287.6	70.1714	4,287.6	53.308	4,287.6	68.6334	4,287.6	70.399	4,287.6	68.5443	4,287.6	68.1749	4,287.6	71.7591	4,287.6	75.7884
4,438.48	87.3352	4,438.48	87.9593	4,438.48	86.4198	4,438.48	84.5195	4,438.48	83.5178	4,438.48	83.388	4,438.48	76.6901	4,438.48	80.5408	4,438.48	82.163	4,438.48	80.4718	4,438.48	85.0485	4,438.48	77.3469	4,438.48	83.512	4,438.48	78.6527	4,438.48	81.3497	4,438.48	71.365	4,438.48	74.5056	4,438.48	74.8945	4,438.48	72.5941	4,438.48	75.1197	4,438.48	77.8202	4,438.48	72.2238	4,438.48	73.4501	4,438.48	66.7971	4,438.48	74.7502	4,438.48	68.5375	4,438.48	73.6606	4,438.48	73.4988	4,438.48	67.4439	4,438.48	64.1647	4,438.48	66.3805	4,438.48	69.0472	4,438.48	65.8714	4,438.48	55.9754	4,438.48	68.7907	4,438.48	73.2733
4,595.21	88.7671	4,595.21	85.9623	4,595.21	86.6138	4,595.21	83.6786	4,595.21	83.6906	4,595.21	83.6156	4,595.21	80.7997	4,595.21	81.7533	4,595.21	82.8765	4,595.21	77.1959	4,595.21	85.5107	4,595.21	79.6043	4,595.21	83.5213	4,595.21	75.965	4,595.21	79.7772	4,595.21	77.2076	4,595.21	78.0899	4,595.21	75.1625	4,595.21	64.1982	4,595.21	72.3687	4,595.21	75.7161	4,595.21	74.8096	4,595.21	65.1785	4,595.21	73.334	4,595.21	74.942	4,595.21	62.1964	4,595.21	70.884	4,595.21	72.5194	4,595.21	71.4878	4,595.21	60.3316	4,595.21	58.6711	4,595.21	70.9071	4,595.21	69.4833	4,595.21	61.9963	4,595.21	68.0976	4,595.21	72.4184
4,756.35	88.3002	4,756.35	85.255	4,756.35	87.0012	4,756.35	85.1285	4,756.35	83.9752	4,756.35	83.1997	4,756.35	81.2439	4,756.35	79.9379	4,756.35	81.9945	4,756.35	80.1823	4,756.35	84.8706	4,756.35	79.5111	4,756.35	82.0259	4,756.35	76.4765	4,756.35	77.1946	4,756.35	77.4121	4,756.35	78.9238	4,756.35	74.3457	4,756.35	63.0071	4,756.35	74.0071	4,756.35	70.3991	4,756.35	69.9642	4,756.35	46.5357	4,756.35	74.793	4,756.35	73.24	4,756.35	62.2005	4,756.35	70.9809	4,756.35	73.1624	4,756.35	69.3034	4,756.35	65.2101	4,756.35	60.0799	4,756.35	69.3361	4,756.35	70.8049	4,756.35	62.7367	4,756.35	70.5636	4,756.35	73.4338
4,924.8	88.0136	4,924.8	86.3275	4,924.8	85.5549	4,924.8	86.3883	4,924.8	83.4395	4,924.8	82.9675	4,924.8	82.9213	4,924.8	80.839	4,924.8	83.229	4,924.8	79.9165	4,924.8	84.5559	4,924.8	77.8553	4,924.8	77.8228	4,924.8	78.6151	4,924.8	75.2674	4,924.8	74.9258	4,924.8	75.8877	4,924.8	76.058	4,924.8	67.3564	4,924.8	74.9335	4,924.8	68.9005	4,924.8	71.3903	4,924.8	67.1061	4,924.8	74.6708	4,924.8	67.9326	4,924.8	71.5096	4,924.8	73.6112	4,924.8	70.2844	4,924.8	66.7592	4,924.8	69.174	4,924.8	54.6146	4,924.8	69.5145	4,924.8	72.1313	4,924.8	67.4863	4,924.8	70.375	4,924.8	71.3366
5,097.66	86.051	5,097.66	86.499	5,097.66	87.0952	5,097.66	85.375	5,097.66	82.0344	5,097.66	81.6265	5,097.66	83.6453	5,097.66	80.0092	5,097.66	83.2905	5,097.66	79.643	5,097.66	83.7872	5,097.66	79.8041	5,097.66	79.4178	5,097.66	75.9451	5,097.66	79.6863	5,097.66	76.6748	5,097.66	78.4668	5,097.66	75.1836	5,097.66	72.7166	5,097.66	74.2102	5,097.66	66.7374	5,097.66	73.3139	5,097.66	71.8943	5,097.66	70.8716	5,097.66	64.6729	5,097.66	72.6106	5,097.66	72.3099	5,097.66	65.1662	5,097.66	49.1589	5,097.66	71.3575	5,097.66	56.5602	5,097.66	62.3844	5,097.66	71.8344	5,097.66	69.7489	5,097.66	71.4989	5,097.66	72.0653
5,277.83	86.3117	5,277.83	85.9044	5,277.83	87.4549	5,277.83	84.4169	5,277.83	82.5272	5,277.83	82.7078	5,277.83	82.9974	5,277.83	81.0404	5,277.83	83.8541	5,277.83	80.9877	5,277.83	81.362	5,277.83	78.655	5,277.83	82.2659	5,277.83	79.6826	5,277.83	82.4109	5,277.83	76.2224	5,277.83	79.2252	5,277.83	73.8076	5,277.83	73.8777	5,277.83	73.867	5,277.83	69.1021	5,277.83	73.4657	5,277.83	67.7414	5,277.83	68.5785	5,277.83	64.4318	5,277.83	72.8035	5,277.83	72.3735	5,277.83	63.0758	5,277.83	62.7357	5,277.83	71.5126	5,277.83	59.0929	5,277.83	53.88	5,277.83	70.281	5,277.83	68.3155	5,277.83	71.8145	5,277.83	72.2977
5,463.87	85.6197	5,463.87	87.5238	5,463.87	86.8168	5,463.87	85.6062	5,463.87	83.9995	5,463.87	82.7056	5,463.87	83.1517	5,463.87	81.531	5,463.87	83.856	5,463.87	81.0629	5,463.87	80.023	5,463.87	81.0673	5,463.87	82.9265	5,463.87	78.2197	5,463.87	82.4173	5,463.87	77.056	5,463.87	78.4513	5,463.87	76.8541	5,463.87	73.6291	5,463.87	72.9054	5,463.87	67.847	5,463.87	73.9553	5,463.87	67.7466	5,463.87	69.2116	5,463.87	66.3837	5,463.87	72.3156	5,463.87	69.9429	5,463.87	67.1809	5,463.87	59.9404	5,463.87	70.3179	5,463.87	59.7174	5,463.87	58.3523	5,463.87	69.4275	5,463.87	67.5493	5,463.87	72.0716	5,463.87	69.1237
5,657.23	86.6745	5,657.23	87.7809	5,657.23	86.1643	5,657.23	84.9902	5,657.23	84.5617	5,657.23	82.0905	5,657.23	84.7222	5,657.23	82.6285	5,657.23	81.6293	5,657.23	82.2942	5,657.23	77.6582	5,657.23	81.1115	5,657.23	84.6258	5,657.23	79.1595	5,657.23	81.8606	5,657.23	77.4646	5,657.23	78.4949	5,657.23	73.9657	5,657.23	72.9539	5,657.23	74.3609	5,657.23	68.497	5,657.23	71.9057	5,657.23	68.9496	5,657.23	69.3534	5,657.23	60.0581	5,657.23	70.6381	5,657.23	62.84	5,657.23	70.1713	5,657.23	60.9569	5,657.23	67.7307	5,657.23	63.5825	5,657.23	61.466	5,657.23	70.9435	5,657.23	71.9759	5,657.23	72.021	5,657.23	66.1472
5,856.45	86.0605	5,856.45	87.4551	5,856.45	85.4734	5,856.45	84.2098	5,856.45	86.2143	5,856.45	83.8824	5,856.45	82.636	5,856.45	83.5696	5,856.45	81.4022	5,856.45	82.3339	5,856.45	79.2924	5,856.45	80.3649	5,856.45	84.5424	5,856.45	77.2321	5,856.45	81.8928	5,856.45	74.8972	5,856.45	78.3477	5,856.45	74.1277	5,856.45	72.4767	5,856.45	73.4672	5,856.45	68.0202	5,856.45	71.1557	5,856.45	70.328	5,856.45	69.0337	5,856.45	65.3347	5,856.45	68.7693	5,856.45	68.3334	5,856.45	71.5431	5,856.45	67.5374	5,856.45	65.6639	5,856.45	56.4523	5,856.45	64.031	5,856.45	70.9526	5,856.45	71.1563	5,856.45	73.2631	5,856.45	68.3859
6,062.99	87.3896	6,062.99	87.5257	6,062.99	85.2516	6,062.99	84.9939	6,062.99	86.9485	6,062.99	83.7841	6,062.99	81.2842	6,062.99	83.7178	6,062.99	77.4537	6,062.99	82.099	6,062.99	81.6781	6,062.99	79.0932	6,062.99	83.4967	6,062.99	76.9539	6,062.99	81.1446	6,062.99	76.749	6,062.99	77.4615	6,062.99	71.2975	6,062.99	74.5273	6,062.99	73.7284	6,062.99	66.001	6,062.99	69.3387	6,062.99	63.9433	6,062.99	70.7458	6,062.99	68.2759	6,062.99	64.3251	6,062.99	66.4039	6,062.99	70.8451	6,062.99	66.4295	6,062.99	64.5361	6,062.99	63.4442	6,062.99	66.2718	6,062.99	69.8798	6,062.99	68.0828	6,062.99	71.4175	6,062.99	67.5828
6,276.86	87.7841	6,276.86	87.0814	6,276.86	85.2185	6,276.86	85.3885	6,276.86	85.3136	6,276.86	84.0225	6,276.86	81.031	6,276.86	84.4877	6,276.86	74.6614	6,276.86	81.57	6,276.86	81.5431	6,276.86	79.305	6,276.86	82.2054	6,276.86	75.2164	6,276.86	79.6287	6,276.86	74.2226	6,276.86	77.5917	6,276.86	71.6491	6,276.86	70.4683	6,276.86	70.3696	6,276.86	60.6205	6,276.86	69.9832	6,276.86	59.6289	6,276.86	68.9488	6,276.86	66.5652	6,276.86	67.7853	6,276.86	66.8379	6,276.86	66.874	6,276.86	66.6245	6,276.86	63.6485	6,276.86	62.3008	6,276.86	66.4179	6,276.86	68.2365	6,276.86	65.435	6,276.86	71.5335	6,276.86	67.3028
6,498.05	87.577	6,498.05	87.0178	6,498.05	83.9402	6,498.05	84.5853	6,498.05	83.4749	6,498.05	84.5918	6,498.05	82.1689	6,498.05	83.4549	6,498.05	79.8979	6,498.05	81.3498	6,498.05	81.59	6,498.05	76.7364	6,498.05	80.3004	6,498.05	76.6382	6,498.05	80.1667	6,498.05	75.1358	6,498.05	78.4024	6,498.05	73.3975	6,498.05	68.3858	6,498.05	70.7923	6,498.05	68.6703	6,498.05	71.5215	6,498.05	62.6351	6,498.05	68.0448	6,498.05	64.4582	6,498.05	67.9217	6,498.05	65.3104	6,498.05	66.6739	6,498.05	65.1054	6,498.05	66.9088	6,498.05	58.2973	6,498.05	57.5944	6,498.05	71.371	6,498.05	63.7397	6,498.05	69.1539	6,498.05	68.3452
6,726.56	88.0246	6,726.56	86.6168	6,726.56	84.343	6,726.56	85.475	6,726.56	83.2665	6,726.56	84.6126	6,726.56	82.9307	6,726.56	83.3897	6,726.56	81.9612	6,726.56	80.2836	6,726.56	81.0365	6,726.56	77.9502	6,726.56	81.2001	6,726.56	75.6878	6,726.56	81.0235	6,726.56	75.3634	6,726.56	75.6563	6,726.56	74.0196	6,726.56	74.2297	6,726.56	72.2106	6,726.56	67.3911	6,726.56	71.2587	6,726.56	63.9906	6,726.56	68.4767	6,726.56	61.5868	6,726.56	68.6777	6,726.56	63.7712	6,726.56	66.5846	6,726.56	46.0041	6,726.56	67.6391	6,726.56	57.0252	6,726.56	64.9065	6,726.56	69.7257	6,726.56	56.7086	6,726.56	66.5552	6,726.56	65.4893
6,963.87	88.3141	6,963.87	86.053	6,963.87	86.0904	6,963.87	84.9946	6,963.87	85.7952	6,963.87	84.2914	6,963.87	83.633	6,963.87	82.662	6,963.87	83.6262	6,963.87	79.5344	6,963.87	80.1598	6,963.87	78.0523	6,963.87	81.2082	6,963.87	76.6657	6,963.87	80.9843	6,963.87	73.9051	6,963.87	76.1454	6,963.87	69.9829	6,963.87	76.7846	6,963.87	71.6594	6,963.87	70.3135	6,963.87	71.9846	6,963.87	67.5137	6,963.87	69.0316	6,963.87	65.9826	6,963.87	67.9385	6,963.87	59.125	6,963.87	68.0108	6,963.87	60.9328	6,963.87	64.0736	6,963.87	51.8186	6,963.87	62.7181	6,963.87	67.1202	6,963.87	55.0842	6,963.87	66.7944	6,963.87	66.096
7,209.96	88.2885	7,209.96	86.4182	7,209.96	86.6723	7,209.96	85.391	7,209.96	85.1414	7,209.96	85.1445	7,209.96	85.5465	7,209.96	82.2987	7,209.96	84.2404	7,209.96	80.4354	7,209.96	78.9185	7,209.96	78.2012	7,209.96	80.7647	7,209.96	75.8668	7,209.96	79.355	7,209.96	74.4519	7,209.96	74.7151	7,209.96	73.4305	7,209.96	76.4785	7,209.96	70.6231	7,209.96	71.1659	7,209.96	70.7628	7,209.96	65.2168	7,209.96	70.9353	7,209.96	65.2365	7,209.96	67.0961	7,209.96	66.3153	7,209.96	69.4448	7,209.96	58.03	7,209.96	61.2648	7,209.96	51.0678	7,209.96	64.6978	7,209.96	67.5978	7,209.96	54.6818	7,209.96	65.2784	7,209.96	66.8838
7,464.84	87.9535	7,464.84	85.1276	7,464.84	86.0603	7,464.84	85.4402	7,464.84	84.1095	7,464.84	84.6594	7,464.84	86.7286	7,464.84	82.2414	7,464.84	83.4962	7,464.84	81.0029	7,464.84	78.1966	7,464.84	76.6021	7,464.84	80.3392	7,464.84	76.4874	7,464.84	73.8066	7,464.84	72.3063	7,464.84	73.0522	7,464.84	71.7914	7,464.84	74.0548	7,464.84	71.2852	7,464.84	69.6878	7,464.84	69.0745	7,464.84	65.8652	7,464.84	70.9665	7,464.84	60.2104	7,464.84	68.5232	7,464.84	66.4141	7,464.84	69.6885	7,464.84	49.8145	7,464.84	66.0222	7,464.84	57.5941	7,464.84	65.0536	7,464.84	68.3011	7,464.84	57.5253	7,464.84	66.1914	7,464.84	62.9041
7,727.05	87.8953	7,727.05	85.6228	7,727.05	85.7842	7,727.05	86.2964	7,727.05	81.9318	7,727.05	84.6152	7,727.05	87.2072	7,727.05	82.2177	7,727.05	81.6198	7,727.05	80.1984	7,727.05	78.2805	7,727.05	76.6975	7,727.05	78.0012	7,727.05	76.6645	7,727.05	76.0235	7,727.05	74.654	7,727.05	74.3584	7,727.05	70.3336	7,727.05	73.4786	7,727.05	72.2013	7,727.05	70.2176	7,727.05	68.7193	7,727.05	66.0424	7,727.05	70.068	7,727.05	53.3588	7,727.05	69.7054	7,727.05	67.9133	7,727.05	69.1349	7,727.05	56.9831	7,727.05	68.1605	7,727.05	57.2624	7,727.05	61.8541	7,727.05	70.1251	7,727.05	56.855	7,727.05	64.9267	7,727.05	64.1592
7,999.51	87.5549	7,999.51	85.7435	7,999.51	87.2771	7,999.51	86.7077	7,999.51	83.13	7,999.51	83.4142	7,999.51	86.1339	7,999.51	82.5876	7,999.51	79.5665	7,999.51	79.8263	7,999.51	78.3396	7,999.51	78.6224	7,999.51	74.6439	7,999.51	75.9	7,999.51	79.638	7,999.51	75.3137	7,999.51	75.6953	7,999.51	71.5389	7,999.51	74.2071	7,999.51	72.6412	7,999.51	71.3069	7,999.51	70.4441	7,999.51	62.4882	7,999.51	69.3188	7,999.51	57.9309	7,999.51	69.2828	7,999.51	64.9326	7,999.51	68.7303	7,999.51	61.48	7,999.51	70.1359	7,999.51	62.3996	7,999.51	59.1655	7,999.51	70.0367	7,999.51	58.7829	7,999.51	63.745	7,999.51	64.1185
8,282.23	86.9119	8,282.23	87.3005	8,282.23	87.9964	8,282.23	86.8197	8,282.23	84.2321	8,282.23	84.3902	8,282.23	84.5663	8,282.23	81.9017	8,282.23	79.8524	8,282.23	80.9882	8,282.23	78.8913	8,282.23	78.6339	8,282.23	74.8018	8,282.23	77.0696	8,282.23	82.2434	8,282.23	73.1006	8,282.23	76.8319	8,282.23	71.6036	8,282.23	75.9853	8,282.23	70.4766	8,282.23	69.1223	8,282.23	70.7077	8,282.23	66.3927	8,282.23	67.8664	8,282.23	61.3806	8,282.23	69.2178	8,282.23	63.9148	8,282.23	69.0916	8,282.23	65.7175	8,282.23	69.526	8,282.23	63.1967	8,282.23	61.5094	8,282.23	68.876	8,282.23	55.9351	8,282.23	65.7725	8,282.23	61.1109
8,573.73	86.6529	8,573.73	88.1492	8,573.73	86.9751	8,573.73	85.7971	8,573.73	84.8075	8,573.73	84.38	8,573.73	82.7964	8,573.73	82.7455	8,573.73	82.9923	8,573.73	81.5735	8,573.73	77.2336	8,573.73	78.2072	8,573.73	79.0314	8,573.73	77.1575	8,573.73	82.2873	8,573.73	74.4614	8,573.73	77.9944	8,573.73	70.7519	8,573.73	73.958	8,573.73	69.307	8,573.73	69.075	8,573.73	70.3221	8,573.73	67.1528	8,573.73	67.4685	8,573.73	60.6057	8,573.73	67.3796	8,573.73	64.0536	8,573.73	68.4196	8,573.73	66.877	8,573.73	68.8412	8,573.73	65.11	8,573.73	65.4879	8,573.73	66.9338	8,573.73	49.7242	8,573.73	67.4074	8,573.73	59.9497
8,876.95	86.8003	8,876.95	87.5963	8,876.95	88.0282	8,876.95	85.7141	8,876.95	84.3257	8,876.95	85.0487	8,876.95	81.3194	8,876.95	83.2044	8,876.95	84.9392	8,876.95	80.9358	8,876.95	74.2467	8,876.95	78.4945	8,876.95	80.1221	8,876.95	76.4973	8,876.95	80.1521	8,876.95	74.7574	8,876.95	73.8891	8,876.95	71.518	8,876.95	67.0823	8,876.95	71.6367	8,876.95	65.5688	8,876.95	68.2847	8,876.95	63.5517	8,876.95	67.7937	8,876.95	52.3468	8,876.95	65.8761	8,876.95	66.554	8,876.95	66.2024	8,876.95	62.4887	8,876.95	67.1254	8,876.95	68.2246	8,876.95	62.201	8,876.95	65.4853	8,876.95	40.4018	8,876.95	67.6965	8,876.95	58.8472
9,188.96	87.7126	9,188.96	87.674	9,188.96	88.5088	9,188.96	85.499	9,188.96	85.7086	9,188.96	85.2665	9,188.96	81.4673	9,188.96	82.9389	9,188.96	85.1613	9,188.96	80.3534	9,188.96	71.5204	9,188.96	79.218	9,188.96	80.3907	9,188.96	76.5234	9,188.96	75.2284	9,188.96	73.9355	9,188.96	75.2821	9,188.96	70.9073	9,188.96	69.2744	9,188.96	71.4793	9,188.96	68.4807	9,188.96	69.183	9,188.96	59.0265	9,188.96	66.3833	9,188.96	61.8868	9,188.96	67.1869	9,188.96	64.7481	9,188.96	66.4897	9,188.96	52.9862	9,188.96	66.4326	9,188.96	67.6404	9,188.96	66.4604	9,188.96	63.2624	9,188.96	59.1204	9,188.96	68.4464	9,188.96	61.5286
9,514.16	87.1878	9,514.16	87.3584	9,514.16	87.3525	9,514.16	86.5085	9,514.16	87.2646	9,514.16	84.824	9,514.16	84.4023	9,514.16	83.1215	9,514.16	83.9538	9,514.16	80.8018	9,514.16	76.4846	9,514.16	79.651	9,514.16	78.1019	9,514.16	76.5249	9,514.16	67.3881	9,514.16	73.2968	9,514.16	75.7458	9,514.16	70.9234	9,514.16	69.8561	9,514.16	69.2207	9,514.16	70.6664	9,514.16	70.0324	9,514.16	61.1155	9,514.16	66.537	9,514.16	60.9946	9,514.16	64.7837	9,514.16	62.2235	9,514.16	67.6678	9,514.16	56.6944	9,514.16	66.2639	9,514.16	64.8658	9,514.16	64.6274	9,514.16	65.369	9,514.16	48.4732	9,514.16	67.4558	9,514.16	62.2436
9,849.61	87.756	9,849.61	87.0683	9,849.61	87.3808	9,849.61	86.1691	9,849.61	87.2522	9,849.61	84.5205	9,849.61	86.1389	9,849.61	83.5226	9,849.61	81.028	9,849.61	81.8182	9,849.61	80.6074	9,849.61	78.652	9,849.61	75.2992	9,849.61	77.2161	9,849.61	77.0758	9,849.61	73.0405	9,849.61	75.6512	9,849.61	71.1313	9,849.61	67.896	9,849.61	68.6344	9,849.61	66.0817	9,849.61	68.5054	9,849.61	58.5961	9,849.61	66.8354	9,849.61	52.9068	9,849.61	64.1006	9,849.61	49.8453	9,849.61	68.2998	9,849.61	55.5847	9,849.61	64.9111	9,849.61	65.4908	9,849.61	63.5097	9,849.61	59.269	9,849.61	49.6288	9,849.61	66.7904	9,849.61	62.2199
10,196.8	87.7581	10,196.8	86.7666	10,196.8	87.3415	10,196.8	86.3915	10,196.8	86.8485	10,196.8	83.8052	10,196.8	85.4965	10,196.8	84.1812	10,196.8	81.5367	10,196.8	80.8756	10,196.8	81.6991	10,196.8	77.9146	10,196.8	70.6977	10,196.8	76.8171	10,196.8	78.3548	10,196.8	72.2377	10,196.8	73.6372	10,196.8	69.9994	10,196.8	71.758	10,196.8	67.9737	10,196.8	69.1366	10,196.8	67.2094	10,196.8	39.5104	10,196.8	65.3634	10,196.8	50.0721	10,196.8	64.4485	10,196.8	53.8391	10,196.8	64.8885	10,196.8	58.4823	10,196.8	64.7987	10,196.8	60.4838	10,196.8	64.4321	10,196.8	55.1512	10,196.8	53.2384	10,196.8	66.1488	10,196.8	58.488
10,555.7	87.4599	10,555.7	86.2035	10,555.7	87.2026	10,555.7	85.9809	10,555.7	86.4266	10,555.7	84.4273	10,555.7	82.8237	10,555.7	83.8	10,555.7	82.988	10,555.7	80.1963	10,555.7	81.5825	10,555.7	77.7741	10,555.7	70.9029	10,555.7	75.7355	10,555.7	77.6153	10,555.7	70.1957	10,555.7	71.2065	10,555.7	68.2531	10,555.7	69.08	10,555.7	66.6644	10,555.7	64.3567	10,555.7	67.95	10,555.7	51.531	10,555.7	64.4402	10,555.7	49.9533	10,555.7	66.1736	10,555.7	57.8501	10,555.7	63.4214	10,555.7	63.5893	10,555.7	60.8873	10,555.7	60.1403	10,555.7	61.8491	10,555.7	61.6737	10,555.7	56.698	10,555.7	64.8423	10,555.7	53.4151
10,927.7	87.5535	10,927.7	86.4842	10,927.7	87.7517	10,927.7	86.3953	10,927.7	87.5908	10,927.7	84.9824	10,927.7	81.3156	10,927.7	82.9998	10,927.7	83.9476	10,927.7	80.9932	10,927.7	80.8022	10,927.7	77.1361	10,927.7	70.4573	10,927.7	75.4698	10,927.7	77.043	10,927.7	70.7447	10,927.7	71.5231	10,927.7	68.4461	10,927.7	70.2347	10,927.7	66.0665	10,927.7	65.7121	10,927.7	65.7553	10,927.7	60.3936	10,927.7	64.8216	10,927.7	51.7001	10,927.7	64.6265	10,927.7	62.0676	10,927.7	65.5865	10,927.7	62.1332	10,927.7	65.0531	10,927.7	58.4526	10,927.7	61.4389	10,927.7	56.2479	10,927.7	56.6843	10,927.7	64.2579	10,927.7	56.7475
11,313	87.1573	11,313	87.1406	11,313	87.4139	11,313	86.5426	11,313	87.1973	11,313	85.0188	11,313	84.052	11,313	83.1283	11,313	83.7171	11,313	81.1325	11,313	79.4377	11,313	76.6288	11,313	67.8676	11,313	74.5927	11,313	76.9563	11,313	70.5011	11,313	71.9411	11,313	67.2724	11,313	67.9255	11,313	66.6409	11,313	64.0744	11,313	63.1609	11,313	60.5611	11,313	62.3267	11,313	55.0095	11,313	62.8277	11,313	63.0597	11,313	63.8063	11,313	59.8391	11,313	66.0224	11,313	59.6936	11,313	60.7087	11,313	54.4434	11,313	47.0461	11,313	61.5758	11,313	58.5107
11,712.9	87.7961	11,712.9	87.4471	11,712.9	86.9849	11,712.9	86.443	11,712.9	86.5373	11,712.9	85.1979	11,712.9	85.7428	11,712.9	83.6086	11,712.9	81.5326	11,712.9	80.3959	11,712.9	79.2992	11,712.9	75.7888	11,712.9	69.7096	11,712.9	73.2032	11,712.9	77.2	11,712.9	67.6209	11,712.9	70.9475	11,712.9	63.4087	11,712.9	67.837	11,712.9	64.0325	11,712.9	62.4154	11,712.9	63.775	11,712.9	57.9279	11,712.9	58.9585	11,712.9	57.3461	11,712.9	62.5088	11,712.9	56.0557	11,712.9	61.4792	11,712.9	55.8676	11,712.9	62.2915	11,712.9	56.8749	11,712.9	60.066	11,712.9	58.5419	11,712.9	52.0889	11,712.9	63.7855	11,712.9	55.4526
12,126	87.8635	12,126	87.0729	12,126	87.3811	12,126	86.4133	12,126	86.2986	12,126	85.7998	12,126	86.653	12,126	83.3275	12,126	79.8586	12,126	79.1836	12,126	79.9037	12,126	76.1841	12,126	72.5799	12,126	72.1964	12,126	74.8027	12,126	67.9297	12,126	71.7474	12,126	66.1493	12,126	66.3632	12,126	62.6496	12,126	64.6309	12,126	64.2384	12,126	58.2588	12,126	58.3041	12,126	53.7239	12,126	63.4571	12,126	53.9697	12,126	62.4069	12,126	49.7769	12,126	61.5632	12,126	59.5426	12,126	60.8569	12,126	60.5238	12,126	56.6665	12,126	58.7372	12,126	56.4409
12,553.7	87.8204	12,553.7	86.9757	12,553.7	87.0217	12,553.7	86.6736	12,553.7	85.6313	12,553.7	85.3974	12,553.7	85.718	12,553.7	82.6659	12,553.7	81.1197	12,553.7	79.2764	12,553.7	80.7288	12,553.7	76.0893	12,553.7	74.2901	12,553.7	72.463	12,553.7	71.2517	12,553.7	67.2467	12,553.7	72.0519	12,553.7	65.0325	12,553.7	58.024	12,553.7	62.4193	12,553.7	64.2181	12,553.7	63.3665	12,553.7	60.399	12,553.7	59.8758	12,553.7	52.2071	12,553.7	62.1251	12,553.7	53.2485	12,553.7	63.3423	12,553.7	57.2853	12,553.7	63.3209	12,553.7	58.6261	12,553.7	62.0557	12,553.7	59.2401	12,553.7	56.4694	12,553.7	61.7289	12,553.7	51.504
12,996.1	87.6971	12,996.1	87.1482	12,996.1	87.3193	12,996.1	86.445	12,996.1	86.5941	12,996.1	84.7179	12,996.1	83.9862	12,996.1	82.7294	12,996.1	81.3632	12,996.1	79.104	12,996.1	80.1879	12,996.1	74.5964	12,996.1	74.3757	12,996.1	71.9753	12,996.1	64.1424	12,996.1	65.152	12,996.1	71.1748	12,996.1	63.1773	12,996.1	49.8711	12,996.1	60.0951	12,996.1	66.4118	12,996.1	61.7615	12,996.1	63.1894	12,996.1	58.7069	12,996.1	40.5225	12,996.1	59.96	12,996.1	53.3681	12,996.1	60.1796	12,996.1	58.4977	12,996.1	61.9975	12,996.1	54.1358	12,996.1	58.5898	12,996.1	55.5906	12,996.1	58.1309	12,996.1	59.7945	12,996.1	48.501
13,454.6	87.5609	13,454.6	86.9916	13,454.6	87.2922	13,454.6	86.188	13,454.6	86.8803	13,454.6	84.9292	13,454.6	83.2505	13,454.6	82.6253	13,454.6	82.3065	13,454.6	77.503	13,454.6	79.711	13,454.6	74.7066	13,454.6	73.3482	13,454.6	70.6187	13,454.6	67.0159	13,454.6	66.3081	13,454.6	69.8063	13,454.6	64.157	13,454.6	62.0255	13,454.6	60.8554	13,454.6	68.0979	13,454.6	60.9463	13,454.6	63.751	13,454.6	58.8041	13,454.6	50.107	13,454.6	59.66	13,454.6	49.0751	13,454.6	60.8904	13,454.6	57.7063	13,454.6	59.8134	13,454.6	55.16	13,454.6	54.9513	13,454.6	56.8467	13,454.6	56.7578	13,454.6	57.8012	13,454.6	48.4759
13,929.2	87.0838	13,929.2	86.9988	13,929.2	87.3663	13,929.2	86.315	13,929.2	87.3115	13,929.2	85.0856	13,929.2	84.4227	13,929.2	81.5613	13,929.2	83.4126	13,929.2	77.5526	13,929.2	79.3194	13,929.2	74.8919	13,929.2	74.1489	13,929.2	71.2171	13,929.2	61.2351	13,929.2	65.8763	13,929.2	69.6602	13,929.2	63.6279	13,929.2	53.3831	13,929.2	59.0224	13,929.2	67.6386	13,929.2	60.624	13,929.2	64.5465	13,929.2	57.3089	13,929.2	57.0327	13,929.2	60.7305	13,929.2	55.0605	13,929.2	62.0853	13,929.2	50.3295	13,929.2	60.8549	13,929.2	51.9598	13,929.2	60.841	13,929.2	53.0665	13,929.2	54.99	13,929.2	56.7816	13,929.2	47.0728
14,419.9	87.2534	14,419.9	87.3076	14,419.9	87.1093	14,419.9	86.8296	14,419.9	87.119	14,419.9	84.5715	14,419.9	86.0706	14,419.9	81.8171	14,419.9	82.0538	14,419.9	77.6204	14,419.9	77.0297	14,419.9	73.5948	14,419.9	75.6205	14,419.9	69.483	14,419.9	50.9265	14,419.9	65.81	14,419.9	69.3427	14,419.9	62.9024	14,419.9	54.8789	14,419.9	58.813	14,419.9	66.8315	14,419.9	60.259	14,419.9	62.4828	14,419.9	55.4574	14,419.9	54.6027	14,419.9	60.5067	14,419.9	49.8414	14,419.9	60.1611	14,419.9	48.5951	14,419.9	59.8267	14,419.9	56.1135	14,419.9	60.4314	14,419.9	49.5386	14,419.9	54.2279	14,419.9	55.8609	14,419.9	45.9938
14,928.2	87.8851	14,928.2	87.8303	14,928.2	87.4885	14,928.2	86.9232	14,928.2	87.3672	14,928.2	84.6777	14,928.2	85.9876	14,928.2	82.42	14,928.2	80.5851	14,928.2	76.2596	14,928.2	76.7699	14,928.2	73.6025	14,928.2	76.6082	14,928.2	69.6731	14,928.2	56.0738	14,928.2	65.0574	14,928.2	66.4891	14,928.2	60.9732	14,928.2	58.7915	14,928.2	59.5948	14,928.2	66.5468	14,928.2	59.4089	14,928.2	60.7085	14,928.2	59.003	14,928.2	51.8153	14,928.2	58.0266	14,928.2	44.8929	14,928.2	60.8331	14,928.2	50.0155	14,928.2	58.684	14,928.2	49.3223	14,928.2	58.3026	14,928.2	48.8347	14,928.2	57.4578	14,928.2	54.9308	14,928.2	45.3425
15,455.6	88.1592	15,455.6	87.9598	15,455.6	87.1857	15,455.6	86.9287	15,455.6	85.6457	15,455.6	85.0966	15,455.6	84.4623	15,455.6	81.7387	15,455.6	81.0667	15,455.6	76.3356	15,455.6	76.8639	15,455.6	73.8807	15,455.6	75.6685	15,455.6	68.9831	15,455.6	63.883	15,455.6	65.0977	15,455.6	64.6685	15,455.6	61.8642	15,455.6	59.5051	15,455.6	59.9915	15,455.6	68.4818	15,455.6	58.0622	15,455.6	63.2483	15,455.6	57.5081	15,455.6	49.8565	15,455.6	58.273	15,455.6	47.1324	15,455.6	60.1241	15,455.6	46.1492	15,455.6	60.3445	15,455.6	49.9644	15,455.6	58.7071	15,455.6	47.6306	15,455.6	55.1979	15,455.6	54.4469	15,455.6	50.7017
16,000.5	88.064	16,000.5	87.7926	16,000.5	87.7454	16,000.5	86.9086	16,000.5	86.3841	16,000.5	84.6433	16,000.5	83.6328	16,000.5	81.5048	16,000.5	81.7485	16,000.5	76.5074	16,000.5	77.2058	16,000.5	72.4382	16,000.5	72.1467	16,000.5	69.0507	16,000.5	63.5913	16,000.5	64.6634	16,000.5	57.2252	16,000.5	59.8225	16,000.5	58.9569	16,000.5	58.8684	16,000.5	68.3143	16,000.5	58.0962	16,000.5	64.7055	16,000.5	57.4221	16,000.5	49.1015	16,000.5	55.9128	16,000.5	42.5722	16,000.5	59.5135	16,000.5	51.0005	16,000.5	59.6893	16,000.5	47.7204	16,000.5	57.0518	16,000.5	55.3423	16,000.5	56.2623	16,000.5	54.0008	16,000.5	47.3469
16,564.5	87.9134	16,564.5	87.6556	16,564.5	87.5222	16,564.5	86.5731	16,564.5	86.8379	16,564.5	84.2518	16,564.5	84.1951	16,564.5	81.5372	16,564.5	79.6057	16,564.5	74.7273	16,564.5	77.4512	16,564.5	72.9627	16,564.5	68.8151	16,564.5	68.6842	16,564.5	64.9392	16,564.5	64.836	16,564.5	63.1612	16,564.5	59.6551	16,564.5	53.5878	16,564.5	57.4606	16,564.5	68.3722	16,564.5	57.1423	16,564.5	65.2022	16,564.5	56.3865	16,564.5	52.3271	16,564.5	58.8469	16,564.5	47.9937	16,564.5	57.9222	16,564.5	45.483	16,564.5	56.3539	16,564.5	53.6222	16,564.5	58.0004	16,564.5	50.111	16,564.5	54.061	16,564.5	50.06	16,564.5	45.5892
17,148.9	88.0214	17,148.9	87.4441	17,148.9	87.1818	17,148.9	86.4009	17,148.9	86.2741	17,148.9	84.262	17,148.9	85.1435	17,148.9	80.2524	17,148.9	78.7348	17,148.9	74.4058	17,148.9	75.7246	17,148.9	72.3606	17,148.9	71.4269	17,148.9	67.396	17,148.9	66.9027	17,148.9	63.2919	17,148.9	60.9703	17,148.9	57.8157	17,148.9	59.1344	17,148.9	56.6645	17,148.9	69.2872	17,148.9	54.7172	17,148.9	64.6776	17,148.9	55.2898	17,148.9	49.9995	17,148.9	54.6192	17,148.9	35.6093	17,148.9	55.1342	17,148.9	45.5102	17,148.9	58.0762	17,148.9	47.7155	17,148.9	55.0538	17,148.9	41.5674	17,148.9	56.9189	17,148.9	52.6209	17,148.9	37.5849
17,752.4	87.9605	17,752.4	87.3402	17,752.4	87.3672	17,752.4	86.4819	17,752.4	86.0788	17,752.4	83.6815	17,752.4	83.1317	17,752.4	79.4223	17,752.4	78.6191	17,752.4	73.6313	17,752.4	75.2829	17,752.4	70.8767	17,752.4	68.4533	17,752.4	66.2654	17,752.4	66.1105	17,752.4	61.6927	17,752.4	42.3509	17,752.4	55.1771	17,752.4	57.3876	17,752.4	55.925	17,752.4	68.9072	17,752.4	53.0459	17,752.4	65.4759	17,752.4	55.0452	17,752.4	49.6515	17,752.4	55.3255	17,752.4	39.6518	17,752.4	56.2638	17,752.4	45.2675	17,752.4	54.7192	17,752.4	46.2458	17,752.4	55.4	17,752.4	45.8518	17,752.4	53.3349	17,752.4	46.5889	17,752.4	39.2098
18,379.4	87.7302	18,379.4	87.2413	18,379.4	87.3403	18,379.4	86.1208	18,379.4	85.1153	18,379.4	83.1456	18,379.4	81.5772	18,379.4	78.5614	18,379.4	78.2307	18,379.4	72.3127	18,379.4	75.0401	18,379.4	70.4172	18,379.4	67.0609	18,379.4	64.4777	18,379.4	64.0045	18,379.4	59.3736	18,379.4	48.6077	18,379.4	54.5161	18,379.4	59.3193	18,379.4	52.8192	18,379.4	68.749	18,379.4	52.8206	18,379.4	64.637	18,379.4	53.3242	18,379.4	47.4194	18,379.4	53.9728	18,379.4	32.9164	18,379.4	55.0594	18,379.4	50.0071	18,379.4	54.1342	18,379.4	47.183	18,379.4	55.8401	18,379.4	49.7768	18,379.4	52.2467	18,379.4	44.5413	18,379.4	43.6084
19,026.9	87.1828	19,026.9	86.9935	19,026.9	87.1932	19,026.9	85.7284	19,026.9	85.5775	19,026.9	82.1972	19,026.9	81.7424	19,026.9	77.5927	19,026.9	78.2455	19,026.9	72.4783	19,026.9	71.7332	19,026.9	68.4926	19,026.9	67.046	19,026.9	63.3115	19,026.9	65.0411	19,026.9	59.9267	19,026.9	52.1125	19,026.9	54.2406	19,026.9	57.9511	19,026.9	53.7501	19,026.9	68.5252	19,026.9	51.0645	19,026.9	62.902	19,026.9	52.4655	19,026.9	41.5347	19,026.9	53.0096	19,026.9	37.8175	19,026.9	55.8611	19,026.9	48.7305	19,026.9	55.0426	19,026.9	46.7696	19,026.9	51.8125	19,026.9	49.9468	19,026.9	51.1474	19,026.9	44.9665	19,026.9	47.4285
19,697.8	86.594	19,697.8	86.5253	19,697.8	86.3532	19,697.8	85.2312	19,697.8	84.8219	19,697.8	81.0419	19,697.8	81.3447	19,697.8	77.5427	19,697.8	76.0409	19,697.8	71.2997	19,697.8	71.2244	19,697.8	68.2506	19,697.8	67.562	19,697.8	62.7045	19,697.8	64.5703	19,697.8	59.2983	19,697.8	40.8501	19,697.8	53.5711	19,697.8	59.1693	19,697.8	54.8286	19,697.8	68.4288	19,697.8	50.925	19,697.8	63.4597	19,697.8	52.2983	19,697.8	45.4752	19,697.8	52.3236	19,697.8	38.3271	19,697.8	55.5668	19,697.8	46.0796	19,697.8	54.0916	19,697.8	48.5003	19,697.8	52.0335	19,697.8	46.8041	19,697.8	48.5415	19,697.8	40.5171	19,697.8	49.0529
19,999.5	86.2027	19,999.5	86.4965	19,999.5	86.2726	19,999.5	85.055	19,999.5	85.1837	19,999.5	80.9619	19,999.5	80.9442	19,999.5	77.4408	19,999.5	75.473	19,999.5	71.1526	19,999.5	71.096	19,999.5	67.7913	19,999.5	67.5221	19,999.5	63.2659	19,999.5	64.5097	19,999.5	58.7627	19,999.5	45.8892	19,999.5	55.0113	19,999.5	60.9068	19,999.5	53.5915	19,999.5	69.117	19,999.5	53.4756	19,999.5	63.0689	19,999.5	51.2375	19,999.5	44.6791	19,999.5	54.1098	19,999.5	48.9311	19,999.5	56.1214	19,999.5	49.1183	19,999.5	54.7449	19,999.5	54.0117	19,999.5	58.5079	19,999.5	54.8922	19,999.5	56.3702	19,999.5	49.6187	19,999.5	45.7366
