"SPL Vertical"																																																																							
"On-Axis"		"10°"		"-10°"		"20°"		"-20°"		"30°"		"-30°"		"40°"		"-40°"		"50°"		"-50°"		"60°"		"-60°"		"70°"		"-70°"		"80°"		"-80°"		"90°"		"-90°"		"100°"		"-100°"		"110°"		"-110°"		"120°"		"-120°"		"130°"		"-130°"		"140°"		"-140°"		"150°"		"-150°"		"160°"		"-160°"		"170°"		"-170°"		"180°"	
"Frequency [Hz]"	"Sound Pessure Level [dB]  / [2.83V 1m] "	"Frequency [Hz]"	"Sound Pessure Level [dB]  / [2.83V 1m] "	"Frequency [Hz]"	"Sound Pessure Level [dB]  / [2.83V 1m] "	"Frequency [Hz]"	"Sound Pessure Level [dB]  / [2.83V 1m] "	"Frequency [Hz]"	"Sound Pessure Level [dB]  / [2.83V 1m] "	"Frequency [Hz]"	"Sound Pessure Level [dB]  / [2.83V 1m] "	"Frequency [Hz]"	"Sound Pessure Level [dB]  / [2.83V 1m] "	"Frequency [Hz]"	"Sound Pessure Level [dB]  / [2.83V 1m] "	"Frequency [Hz]"	"Sound Pessure Level [dB]  / [2.83V 1m] "	"Frequency [Hz]"	"Sound Pessure Level [dB]  / [2.83V 1m] "	"Frequency [Hz]"	"Sound Pessure Level [dB]  / [2.83V 1m] "	"Frequency [Hz]"	"Sound Pessure Level [dB]  / [2.83V 1m] "	"Frequency [Hz]"	"Sound Pessure Level [dB]  / [2.83V 1m] "	"Frequency [Hz]"	"Sound Pessure Level [dB]  / [2.83V 1m] "	"Frequency [Hz]"	"Sound Pessure Level [dB]  / [2.83V 1m] "	"Frequency [Hz]"	"Sound Pessure Level [dB]  / [2.83V 1m] "	"Frequency [Hz]"	"Sound Pessure Level [dB]  / [2.83V 1m] "	"Frequency [Hz]"	"Sound Pessure Level [dB]  / [2.83V 1m] "	"Frequency [Hz]"	"Sound Pessure Level [dB]  / [2.83V 1m] "	"Frequency [Hz]"	"Sound Pessure Level [dB]  / [2.83V 1m] "	"Frequency [Hz]"	"Sound Pessure Level [dB]  / [2.83V 1m] "	"Frequency [Hz]"	"Sound Pessure Level [dB]  / [2.83V 1m] "	"Frequency [Hz]"	"Sound Pessure Level [dB]  / [2.83V 1m] "	"Frequency [Hz]"	"Sound Pessure Level [dB]  / [2.83V 1m] "	"Frequency [Hz]"	"Sound Pessure Level [dB]  / [2.83V 1m] "	"Frequency [Hz]"	"Sound Pessure Level [dB]  / [2.83V 1m] "	"Frequency [Hz]"	"Sound Pessure Level [dB]  / [2.83V 1m] "	"Frequency [Hz]"	"Sound Pessure Level [dB]  / [2.83V 1m] "	"Frequency [Hz]"	"Sound Pessure Level [dB]  / [2.83V 1m] "	"Frequency [Hz]"	"Sound Pessure Level [dB]  / [2.83V 1m] "	"Frequency [Hz]"	"Sound Pessure Level [dB]  / [2.83V 1m] "	"Frequency [Hz]"	"Sound Pessure Level [dB]  / [2.83V 1m] "	"Frequency [Hz]"	"Sound Pessure Level [dB]  / [2.83V 1m] "	"Frequency [Hz]"	"Sound Pessure Level [dB]  / [2.83V 1m] "	"Frequency [Hz]"	"Sound Pessure Level [dB]  / [2.83V 1m] "	"Frequency [Hz]"	"Sound Pessure Level [dB]  / [2.83V 1m] "
20.5078	43.3236	20.5078	44.3056	20.5078	43.2541	20.5078	45.4904	20.5078	44.4436	20.5078	46.5136	20.5078	46.3171	20.5078	47.2757	20.5078	48.2348	20.5078	47.7699	20.5078	49.929	20.5078	48.0118	20.5078	51.3377	20.5078	48.0175	20.5078	52.4645	20.5078	47.7995	20.5078	53.328	20.5078	47.3697	20.5078	53.9465	20.5078	46.7503	20.5078	54.3356	20.5078	45.9982	20.5078	54.507	20.5078	45.2528	20.5078	54.4694	20.5078	44.7876	20.5078	54.2286	20.5078	44.9372	20.5078	53.7875	20.5078	45.806	20.5078	53.1463	20.5078	47.1438	20.5078	52.3039	20.5078	48.6182	20.5078	51.2596	20.5078	50.0207
21.9727	50.9313	21.9727	50.2906	21.9727	51.817	21.9727	49.9323	21.9727	52.8534	21.9727	49.816	21.9727	53.9365	21.9727	49.8524	21.9727	54.9833	21.9727	49.9503	21.9727	55.9386	21.9727	50.0451	21.9727	56.7692	21.9727	50.1051	21.9727	57.4568	21.9727	50.1276	21.9727	57.9916	21.9727	50.1353	21.9727	58.3696	21.9727	50.1731	21.9727	58.5901	21.9727	50.3014	21.9727	58.6545	21.9727	50.5815	21.9727	58.5664	21.9727	51.053	21.9727	58.3308	21.9727	51.7149	21.9727	57.9543	21.9727	52.5262	21.9727	57.4452	21.9727	53.4245	21.9727	56.8137	21.9727	54.3469	21.9727	56.0733	21.9727	55.2424
23.4375	53.5981	23.4375	53.6959	23.4375	53.7157	23.4375	53.9238	23.4375	54.0904	23.4375	54.1944	23.4375	54.6932	23.4375	54.4416	23.4375	55.439	23.4375	54.624	23.4375	56.229	23.4375	54.7193	23.4375	56.9809	23.4375	54.7188	23.4375	57.6383	23.4375	54.6231	23.4375	58.167	23.4375	54.4412	23.4375	58.5476	23.4375	54.1923	23.4375	58.7707	23.4375	53.9087	23.4375	58.8329	23.4375	53.6408	23.4375	58.7352	23.4375	53.457	23.4375	58.4822	23.4375	53.4338	23.4375	58.0821	23.4375	53.6304	23.4375	57.5482	23.4375	54.0592	23.4375	56.901	23.4375	54.6776	23.4375	56.1721	23.4375	55.4089
24.9023	54.228	24.9023	54.2544	24.9023	54.4426	24.9023	54.4382	24.9023	54.9256	24.9023	54.6842	24.9023	55.6285	24.9023	54.917	24.9023	56.4542	24.9023	55.088	24.9023	57.3022	24.9023	55.1709	24.9023	58.095	24.9023	55.1549	24.9023	58.7818	24.9023	55.0406	24.9023	59.3329	24.9023	54.8393	24.9023	59.732	24.9023	54.5752	24.9023	59.9711	24.9023	54.2901	24.9023	60.0476	24.9023	54.0474	24.9023	59.9621	24.9023	53.9299	24.9023	59.7183	24.9023	54.0199	24.9023	59.3223	24.9023	54.3643	24.9023	58.7845	24.9023	54.9475	24.9023	58.1205	24.9023	55.6991	24.9023	57.3554	24.9023	56.5286
26.3672	55.0797	26.3672	54.8129	26.3672	55.5915	26.3672	54.7543	26.3672	56.3207	26.3672	54.8255	26.3672	57.1892	26.3672	54.9441	26.3672	58.1051	26.3672	55.047	26.3672	58.9914	26.3672	55.0953	26.3672	59.7937	26.3672	55.072	26.3672	60.4778	26.3672	54.9779	26.3672	61.0234	26.3672	54.8308	26.3672	61.4194	26.3672	54.6675	26.3672	61.6602	26.3672	54.5449	26.3672	61.7439	26.3672	54.5365	26.3672	61.671	26.3672	54.7148	26.3672	61.4445	26.3672	55.1229	26.3672	61.0692	26.3672	55.7516	26.3672	60.5532	26.3672	56.5437	26.3672	59.908	26.3672	57.4206	26.3672	59.151	26.3672	58.3087
27.832	58.4108	27.832	58.2059	27.832	58.7723	27.832	58.1319	27.832	59.2847	27.832	58.1442	27.832	59.9109	27.832	58.1956	27.832	60.5959	27.832	58.248	27.832	61.2832	27.832	58.2757	27.832	61.9249	27.832	58.2666	27.832	62.4849	27.832	58.2205	27.832	62.9385	27.832	58.1483	27.832	63.27	27.832	58.0721	27.832	63.4701	27.832	58.0244	27.832	63.5348	27.832	58.0451	27.832	63.4638	27.832	58.1742	27.832	63.2607	27.832	58.441	27.832	62.9327	27.832	58.8524	27.832	62.4909	27.832	59.3897	27.832	61.9518	27.832	60.0144	27.832	61.3377	27.832	60.6789
29.2969	60.7568	29.2969	60.5736	29.2969	61.0569	29.2969	60.4879	29.2969	61.473	29.2969	60.4679	29.2969	61.9817	29.2969	60.4797	29.2969	62.5443	29.2969	60.4951	29.2969	63.1165	29.2969	60.4944	29.2969	63.6572	29.2969	60.4675	29.2969	64.1332	29.2969	60.4139	29.2969	64.5194	29.2969	60.3415	29.2969	64.799	29.2969	60.2673	29.2969	64.9614	29.2969	60.2162	29.2969	65.0014	29.2969	60.2189	29.2969	64.9185	29.2969	60.3075	29.2969	64.7161	29.2969	60.5073	29.2969	64.4019	29.2969	60.8291	29.2969	63.9881	29.2969	61.2642	29.2969	63.4924	29.2969	61.7862	29.2969	62.9388	29.2969	62.3577
30.7617	62.2833	30.7617	62.1392	30.7617	62.5296	30.7617	62.0776	30.7617	62.8813	30.7617	62.0696	30.7617	63.3221	30.7617	62.086	30.7617	63.8201	30.7617	62.1024	30.7617	64.336	30.7617	62.1022	30.7617	64.8309	30.7617	62.0767	30.7617	65.2719	30.7617	62.0257	30.7617	65.6331	30.7617	61.9561	30.7617	65.8967	30.7617	61.8826	30.7617	66.051	30.7617	61.8266	30.7617	66.0901	30.7617	61.8149	30.7617	66.0128	30.7617	61.8758	30.7617	65.8226	30.7617	62.0332	30.7617	65.5275	30.7617	62.2999	30.7617	65.1402	30.7617	62.6721	30.7617	64.6793	30.7617	63.1297	30.7617	64.1694	30.7617	63.641
32.2266	63.9688	32.2266	63.8062	32.2266	64.2177	32.2266	63.7158	32.2266	64.5539	32.2266	63.6755	32.2266	64.9633	32.2266	63.662	32.2266	65.4192	32.2266	63.6552	32.2266	65.8884	32.2266	63.6406	32.2266	66.3376	32.2266	63.6107	32.2266	66.7372	32.2266	63.5648	32.2266	67.0635	32.2266	63.5088	32.2266	67.2993	32.2266	63.4551	32.2266	67.4336	32.2266	63.4216	32.2266	67.4604	32.2266	63.4305	32.2266	67.3789	32.2266	63.5046	32.2266	67.1926	32.2266	63.6631	32.2266	66.9098	32.2266	63.9161	32.2266	66.5434	32.2266	64.2609	32.2266	66.1116	32.2266	64.6811	32.2266	65.6379	32.2266	65.1506
33.6914	65.5791	33.6914	65.4319	33.6914	65.7985	33.6914	65.3449	33.6914	66.0922	33.6914	65.3001	33.6914	66.4498	33.6914	65.2784	33.6914	66.8503	33.6914	65.2633	33.6914	67.2657	33.6914	65.243	33.6914	67.6666	33.6914	65.2113	33.6914	68.0258	33.6914	65.1674	33.6914	68.3207	33.6914	65.1164	33.6914	68.5341	33.6914	65.0685	33.6914	68.6546	33.6914	65.0386	33.6914	68.6758	33.6914	65.0451	33.6914	68.5965	33.6914	65.1072	33.6914	68.4202	33.6914	65.2418	33.6914	68.1551	33.6914	65.4587	33.6914	67.8144	33.6914	65.7577	33.6914	67.4164	33.6914	66.1267	33.6914	66.9841	33.6914	66.5447
35.1563	67.1049	35.1563	66.9677	35.1563	67.3031	35.1563	66.8815	35.1563	67.5641	35.1563	66.832	35.1563	67.8796	35.1563	66.8036	35.1563	68.2325	35.1563	66.7829	35.1563	68.5993	35.1563	66.7602	35.1563	68.9543	35.1563	66.73	35.1563	69.273	35.1563	66.6918	35.1563	69.5346	35.1563	66.6496	35.1563	69.7226	35.1563	66.6117	35.1563	69.8262	35.1563	66.5902	35.1563	69.8394	35.1563	66.5999	35.1563	69.761	35.1563	66.6567	35.1563	69.5947	35.1563	66.7742	35.1563	69.3492	35.1563	66.9613	35.1563	69.0377	35.1563	67.2187	35.1563	68.6778	35.1563	67.5383	35.1563	68.2916	35.1563	67.9034
36.6211	68.2434	36.6211	68.1111	36.6211	68.4312	36.6211	68.0253	36.6211	68.6761	36.6211	67.9731	36.6211	68.971	36.6211	67.9406	36.6211	69.3003	36.6211	67.9155	36.6211	69.6428	36.6211	67.8891	36.6211	69.9745	36.6211	67.8563	36.6211	70.2722	36.6211	67.8164	36.6211	70.5159	36.6211	67.7731	36.6211	70.6899	36.6211	67.7338	36.6211	70.7832	36.6211	67.7096	36.6211	70.7899	36.6211	67.7142	36.6211	70.709	36.6211	67.7623	36.6211	70.5442	36.6211	67.867	36.6211	70.304	36.6211	68.0372	36.6211	70.0018	36.6211	68.2747	36.6211	69.6551	36.6211	68.5729	36.6211	69.2855	36.6211	68.9168
38.0859	69.9319	38.0859	69.7917	38.0859	70.1185	38.0859	69.6919	38.0859	70.3517	38.0859	69.6228	38.0859	70.6251	38.0859	69.5739	38.0859	70.9251	38.0859	69.5356	38.0859	71.2337	38.0859	69.5006	38.0859	71.5302	38.0859	69.4647	38.0859	71.7945	38.0859	69.4272	38.0859	72.0086	38.0859	69.391	38.0859	72.1584	38.0859	69.3619	38.0859	72.2339	38.0859	69.3488	38.0859	72.2299	38.0859	69.3627	38.0859	72.1456	38.0859	69.4154	38.0859	71.9849	38.0859	69.5173	38.0859	71.7564	38.0859	69.6759	38.0859	71.4729	38.0859	69.8929	38.0859	71.1513	38.0859	70.1634	38.0859	70.8117	38.0859	70.4755
39.5508	71.3476	39.5508	71.2177	39.5508	71.5171	39.5508	71.1225	39.5508	71.7262	39.5508	71.0542	39.5508	71.9694	39.5508	71.0044	39.5508	72.2356	39.5508	70.9652	39.5508	72.5091	39.5508	70.9306	39.5508	72.772	39.5508	70.8971	39.5508	73.0062	39.5508	70.8641	39.5508	73.1954	39.5508	70.8337	39.5508	73.3265	39.5508	70.8108	39.5508	73.3902	39.5508	70.8025	39.5508	73.3815	39.5508	70.8178	39.5508	73.3	39.5508	70.8661	39.5508	73.1499	39.5508	70.9562	39.5508	72.9395	39.5508	71.0946	39.5508	72.6815	39.5508	71.2832	39.5508	72.3919	39.5508	71.5187	39.5508	72.089	39.5508	71.7921
41.0156	72.3778	41.0156	72.2131	41.0156	72.5786	41.0156	72.0818	41.0156	72.814	41.0156	71.978	41.0156	73.0778	41.0156	71.8949	41.0156	73.3585	41.0156	71.8259	41.0156	73.6413	41.0156	71.7659	41.0156	73.9091	41.0156	71.712	41.0156	74.1449	41.0156	71.6636	41.0156	74.3329	41.0156	71.6233	41.0156	74.46	41.0156	71.5958	41.0156	74.5168	41.0156	71.5884	41.0156	74.4977	41.0156	71.6101	41.0156	74.4016	41.0156	71.6704	41.0156	74.2324	41.0156	71.7778	41.0156	73.9984	41.0156	71.9384	41.0156	73.7126	41.0156	72.1538	41.0156	73.392	41.0156	72.4197	41.0156	73.0562	41.0156	72.7257
42.4805	73.8526	42.4805	73.7212	42.4805	74.0106	42.4805	73.6141	42.4805	74.1945	42.4805	73.5268	42.4805	74.3999	42.4805	73.4546	42.4805	74.6184	42.4805	73.3926	42.4805	74.8385	42.4805	73.3374	42.4805	75.0466	42.4805	73.2869	42.4805	75.2285	42.4805	73.2412	42.4805	75.371	42.4805	73.202	42.4805	75.4632	42.4805	73.1731	42.4805	75.4973	42.4805	73.1601	42.4805	75.469	42.4805	73.1697	42.4805	75.3783	42.4805	73.2091	42.4805	75.2294	42.4805	73.285	42.4805	75.0302	42.4805	73.4024	42.4805	74.7926	42.4805	73.5633	42.4805	74.5312	42.4805	73.7656	42.4805	74.2624	42.4805	74.0023
43.9453	74.8483	43.9453	74.7286	43.9453	74.9917	43.9453	74.6307	43.9453	75.1582	43.9453	74.5509	43.9453	75.3438	43.9453	74.4852	43.9453	75.5413	43.9453	74.4293	43.9453	75.7402	43.9453	74.3804	43.9453	75.9285	43.9453	74.3367	43.9453	76.0932	43.9453	74.298	43.9453	76.2223	43.9453	74.266	43.9453	76.3056	43.9453	74.2437	43.9453	76.336	43.9453	74.2357	43.9453	76.3097	43.9453	74.2476	43.9453	76.2267	43.9453	74.2853	43.9453	76.0912	43.9453	74.3547	43.9453	75.9108	43.9453	74.4599	43.9453	75.6967	43.9453	74.6028	43.9453	75.4623	43.9453	74.7818	43.9453	75.2225	43.9453	74.9915
45.4102	75.6728	45.4102	75.558	45.4102	75.809	45.4102	75.4629	45.4102	75.9655	45.4102	75.3846	45.4102	76.1388	45.4102	75.3197	45.4102	76.322	45.4102	75.2646	45.4102	76.5056	45.4102	75.2168	45.4102	76.6784	45.4102	75.1748	45.4102	76.8287	45.4102	75.1383	45.4102	76.9451	45.4102	75.1086	45.4102	77.0185	45.4102	75.0884	45.4102	77.0421	45.4102	75.0815	45.4102	77.0127	45.4102	75.0926	45.4102	76.9307	45.4102	75.1272	45.4102	76.8	45.4102	75.1902	45.4102	76.6284	45.4102	75.2857	45.4102	76.4266	45.4102	75.4157	45.4102	76.2075	45.4102	75.5791	45.4102	75.9847	45.4102	75.7715
46.875	76.4504	46.875	76.3356	46.875	76.5835	46.875	76.2382	46.875	76.7336	46.875	76.1561	46.875	76.897	46.875	76.0867	46.875	77.0674	46.875	76.0273	46.875	77.2362	46.875	75.9759	46.875	77.3932	46.875	75.9312	46.875	77.5276	46.875	75.8931	46.875	77.6292	46.875	75.8626	46.875	77.6895	46.875	75.8419	46.875	77.7026	46.875	75.8342	46.875	77.6656	46.875	75.8436	46.875	77.5794	46.875	75.8747	46.875	77.4483	46.875	75.9319	46.875	77.28	46.875	76.019	46.875	77.0851	46.875	76.1379	46.875	76.8761	46.875	76.2883	46.875	76.6659	46.875	76.4666
48.3398	77.2346	48.3398	77.1216	48.3398	77.3626	48.3398	77.0233	48.3398	77.504	48.3398	76.9383	48.3398	77.6554	48.3398	76.8647	48.3398	77.8111	48.3398	76.8008	48.3398	77.9634	48.3398	76.7449	48.3398	78.1031	48.3398	76.6962	48.3398	78.2206	48.3398	76.6548	48.3398	78.3071	48.3398	76.6216	48.3398	78.3547	48.3398	76.5986	48.3398	78.3583	48.3398	76.5886	48.3398	78.3157	48.3398	76.5952	48.3398	78.2277	48.3398	76.6224	48.3398	78.0987	48.3398	76.6743	48.3398	77.9363	48.3398	76.7541	48.3398	77.7504	48.3398	76.8638	48.3398	77.5526	48.3398	77.0031	48.3398	77.3551	48.3398	77.1689
51.2695	78.4899	51.2695	78.3842	51.2695	78.6064	51.2695	78.2897	51.2695	78.7317	51.2695	78.206	51.2695	78.8628	51.2695	78.1324	51.2695	78.9948	51.2695	78.068	51.2695	79.1213	51.2695	78.0121	51.2695	79.235	51.2695	77.9643	51.2695	79.328	51.2695	77.9247	51.2695	79.393	51.2695	77.894	51.2695	79.4239	51.2695	77.8736	51.2695	79.4166	51.2695	77.8652	51.2695	79.3694	51.2695	77.8715	51.2695	79.2839	51.2695	77.8953	51.2695	79.1644	51.2695	77.9394	51.2695	79.0179	51.2695	78.0066	51.2695	78.8537	51.2695	78.0983	51.2695	78.6817	51.2695	78.215	51.2695	78.5123	51.2695	78.3544
52.7344	79.2355	52.7344	79.1321	52.7344	79.3472	52.7344	79.0379	52.7344	79.4653	52.7344	78.9531	52.7344	79.5868	52.7344	78.8775	52.7344	79.7073	52.7344	78.8107	52.7344	79.8213	52.7344	78.7524	52.7344	79.922	52.7344	78.7028	52.7344	80.0028	52.7344	78.6619	52.7344	80.0572	52.7344	78.6305	52.7344	80.0797	52.7344	78.6098	52.7344	80.0668	52.7344	78.6014	52.7344	80.0174	52.7344	78.6072	52.7344	79.9329	52.7344	78.6297	52.7344	79.8177	52.7344	78.6713	52.7344	79.6784	52.7344	78.7342	52.7344	79.5235	52.7344	78.8197	52.7344	79.3625	52.7344	78.9281	52.7344	79.2045	52.7344	79.0576
54.1992	79.7394	54.1992	79.6416	54.1992	79.8441	54.1992	79.5518	54.1992	79.9539	54.1992	79.4705	54.1992	80.0657	54.1992	79.398	54.1992	80.1755	54.1992	79.3341	54.1992	80.2784	54.1992	79.2788	54.1992	80.3684	54.1992	79.2322	54.1992	80.4394	54.1992	79.1946	54.1992	80.4856	54.1992	79.1664	54.1992	80.5023	54.1992	79.1484	54.1992	80.4864	54.1992	79.1418	54.1992	80.4371	54.1992	79.1483	54.1992	80.356	54.1992	79.1695	54.1992	80.2475	54.1992	79.2074	54.1992	80.118	54.1992	79.264	54.1992	79.9754	54.1992	79.3405	54.1992	79.8285	54.1992	79.4374	54.1992	79.6855	54.1992	79.5534
55.6641	80.1605	55.6641	80.0633	55.6641	80.2623	55.6641	79.972	55.6641	80.3664	55.6641	79.8875	55.6641	80.4701	55.6641	79.8106	55.6641	80.5697	55.6641	79.7417	55.6641	80.6606	55.6641	79.6814	55.6641	80.7376	55.6641	79.6299	55.6641	80.7954	55.6641	79.5879	55.6641	80.829	55.6641	79.556	55.6641	80.8344	55.6641	79.5348	55.6641	80.8092	55.6641	79.5254	55.6641	80.7533	55.6641	79.529	55.6641	80.6686	55.6641	79.547	55.6641	80.5597	55.6641	79.5809	55.6641	80.4328	55.6641	79.6324	55.6641	80.2956	55.6641	79.7025	55.6641	80.1561	55.6641	79.7916	55.6641	80.0218	55.6641	79.8988
58.5938	80.9885	58.5938	80.8957	58.5938	81.0832	58.5938	80.8069	58.5938	81.1777	58.5938	80.7236	58.5938	81.2691	58.5938	80.6472	58.5938	81.3539	58.5938	80.5785	58.5938	81.4284	58.5938	80.5186	58.5938	81.4883	58.5938	80.4681	58.5938	81.5295	58.5938	80.4275	58.5938	81.5481	58.5938	80.3971	58.5938	81.5413	58.5938	80.3773	58.5938	81.5077	58.5938	80.3685	58.5938	81.4479	58.5938	80.3713	58.5938	81.3643	58.5938	80.3865	58.5938	81.2614	58.5938	80.415	58.5938	81.1453	58.5938	80.4578	58.5938	81.0227	58.5938	80.5161	58.5938	80.9005	58.5938	80.5903	58.5938	80.7848	58.5938	80.6804
60.0586	81.2202	60.0586	81.1277	60.0586	81.3128	60.0586	81.0377	60.0586	81.4033	60.0586	80.952	60.0586	81.4887	60.0586	80.8725	60.0586	81.566	60.0586	80.8005	60.0586	81.6317	60.0586	80.7372	60.0586	81.682	60.0586	80.6838	60.0586	81.7134	60.0586	80.6407	60.0586	81.7227	60.0586	80.6085	60.0586	81.7077	60.0586	80.5874	60.0586	81.6675	60.0586	80.5776	60.0586	81.6031	60.0586	80.5793	60.0586	81.5173	60.0586	80.593	60.0586	81.4148	60.0586	80.6191	60.0586	81.3014	60.0586	80.6585	60.0586	81.1837	60.0586	80.7119	60.0586	81.068	60.0586	80.7801	60.0586	80.9598	60.0586	80.8631
62.9883	81.8303	62.9883	81.7406	62.9883	81.918	62.9883	81.6515	62.9883	82.0012	62.9883	81.5653	62.9883	82.0771	62.9883	81.4844	62.9883	82.1429	62.9883	81.4105	62.9883	82.1959	62.9883	81.3456	62.9883	82.233	62.9883	81.2907	62.9883	82.2515	62.9883	81.2467	62.9883	82.2493	62.9883	81.2141	62.9883	82.225	62.9883	81.1929	62.9883	82.1786	62.9883	81.183	62.9883	82.1114	62.9883	81.1842	62.9883	82.0265	62.9883	81.1963	62.9883	81.9286	62.9883	81.2195	62.9883	81.8231	62.9883	81.2542	62.9883	81.7159	62.9883	81.3008	62.9883	81.6123	62.9883	81.3601	62.9883	81.5168	62.9883	81.4322
64.4531	82.143	64.4531	82.0556	64.4531	82.2275	64.4531	81.9677	64.4531	82.3062	64.4531	81.882	64.4531	82.3765	64.4531	81.801	64.4531	82.4359	64.4531	81.7268	64.4531	82.4817	64.4531	81.6614	64.4531	82.5113	64.4531	81.606	64.4531	82.5226	64.4531	81.5616	64.4531	82.5138	64.4531	81.5285	64.4531	82.4841	64.4531	81.5069	64.4531	82.4338	64.4531	81.4963	64.4531	82.3647	64.4531	81.4964	64.4531	82.28	64.4531	81.5069	64.4531	82.1843	64.4531	81.5275	64.4531	82.083	64.4531	81.5586	64.4531	81.9816	64.4531	81.6005	64.4531	81.8849	64.4531	81.6539	64.4531	81.7966	64.4531	81.7193
67.3828	82.5892	67.3828	82.5047	67.3828	82.6687	67.3828	82.4182	67.3828	82.7403	67.3828	82.3326	67.3828	82.8016	67.3828	82.2508	67.3828	82.8501	67.3828	82.1755	67.3828	82.8838	67.3828	82.1088	67.3828	82.9008	67.3828	82.0524	67.3828	82.8997	67.3828	82.0074	67.3828	82.8798	67.3828	81.9742	67.3828	82.8409	67.3828	81.9524	67.3828	82.7844	67.3828	81.9416	67.3828	82.7124	67.3828	81.941	67.3828	82.6286	67.3828	81.9497	67.3828	82.5374	67.3828	81.9671	67.3828	82.4439	67.3828	81.9932	67.3828	82.3528	67.3828	82.0281	67.3828	82.268	67.3828	82.0725	67.3828	82.1923	67.3828	82.127
68.8477	82.8073	68.8477	82.723	68.8477	82.8855	68.8477	82.6359	68.8477	82.955	68.8477	82.549	68.8477	83.0131	68.8477	82.4656	68.8477	83.0575	68.8477	82.3885	68.8477	83.0865	68.8477	82.3201	68.8477	83.0984	68.8477	82.2623	68.8477	83.0922	68.8477	82.2161	68.8477	83.0676	68.8477	82.1821	68.8477	83.0249	68.8477	82.1599	68.8477	82.9656	68.8477	82.149	68.8477	82.8922	68.8477	82.1483	68.8477	82.8084	68.8477	82.1569	68.8477	82.7186	68.8477	82.1739	68.8477	82.6276	68.8477	82.199	68.8477	82.5399	68.8477	82.2323	68.8477	82.459	68.8477	82.2742	68.8477	82.3873	68.8477	82.3257
71.7773	83.324	71.7773	83.2447	71.7773	83.3951	71.7773	83.1605	71.7773	83.4551	71.7773	83.0749	71.7773	83.5017	71.7773	82.9913	71.7773	83.533	71.7773	82.9129	71.7773	83.5477	71.7773	82.8426	71.7773	83.5451	71.7773	82.7826	71.7773	83.5249	71.7773	82.7341	71.7773	83.4878	71.7773	82.6978	71.7773	83.435	71.7773	82.6733	71.7773	83.3687	71.7773	82.6599	71.7773	83.2922	71.7773	82.6563	71.7773	83.2092	71.7773	82.6611	71.7773	83.1242	71.7773	82.6732	71.7773	83.0415	71.7773	82.6919	71.7773	82.9647	71.7773	82.717	71.7773	82.8963	71.7773	82.749	71.7773	82.8377	71.7773	82.7888
74.707	83.7331	74.707	83.6584	74.707	83.7979	74.707	83.5772	74.707	83.8499	74.707	83.4933	74.707	83.8869	74.707	83.4103	74.707	83.9071	74.707	83.3317	74.707	83.9099	74.707	83.2607	74.707	83.8948	74.707	83.1996	74.707	83.8625	74.707	83.1498	74.707	83.8143	74.707	83.1119	74.707	83.7523	74.707	83.0857	74.707	83.6795	74.707	83.0701	74.707	83.5996	74.707	83.0635	74.707	83.5167	74.707	83.0644	74.707	83.4354	74.707	83.0714	74.707	83.3595	74.707	83.0834	74.707	83.2922	74.707	83.1002	74.707	83.235	74.707	83.1225	74.707	83.1883	74.707	83.1513
77.6367	83.9874	77.6367	83.9151	77.6367	84.0488	77.6367	83.8353	77.6367	84.0961	77.6367	83.7519	77.6367	84.1272	77.6367	83.6692	77.6367	84.1405	77.6367	83.5908	77.6367	84.1355	77.6367	83.52	77.6367	84.1125	77.6367	83.4594	77.6367	84.0726	77.6367	83.4106	77.6367	84.0178	77.6367	83.374	77.6367	83.9507	77.6367	83.3493	77.6367	83.8749	77.6367	83.335	77.6367	83.7945	77.6367	83.3295	77.6367	83.714	77.6367	83.3306	77.6367	83.6375	77.6367	83.3366	77.6367	83.5687	77.6367	83.3462	77.6367	83.5099	77.6367	83.3589	77.6367	83.4622	77.6367	83.3753	77.6367	83.4249	77.6367	83.3967
79.1016	84.1053	79.1016	84.0331	79.1016	84.1656	79.1016	83.9529	79.1016	84.2113	79.1016	83.8688	79.1016	84.2399	79.1016	83.7848	79.1016	84.2501	79.1016	83.7051	79.1016	84.2416	79.1016	83.6331	79.1016	84.2149	79.1016	83.5716	79.1016	84.1714	79.1016	83.5222	79.1016	84.1134	79.1016	83.4854	79.1016	84.0439	79.1016	83.4608	79.1016	83.9666	79.1016	83.4471	79.1016	83.8859	79.1016	83.4422	79.1016	83.8062	79.1016	83.4439	79.1016	83.7316	79.1016	83.4503	79.1016	83.6655	79.1016	83.4598	79.1016	83.6099	79.1016	83.4719	79.1016	83.5656	79.1016	83.4869	79.1016	83.5316	79.1016	83.5061
82.0313	84.4388	82.0313	84.3686	82.0313	84.4958	82.0313	84.2891	82.0313	84.5367	82.0313	84.2044	82.0313	84.5593	82.0313	84.1192	82.0313	84.5624	82.0313	84.0377	82.0313	84.5462	82.0313	83.9636	82.0313	84.5114	82.0313	83.8999	82.0313	84.4601	82.0313	83.8485	82.0313	84.3951	82.0313	83.8101	82.0313	84.32	82.0313	83.7842	82.0313	84.239	82.0313	83.7693	82.0313	84.1566	82.0313	83.7634	82.0313	84.0774	82.0313	83.7639	82.0313	84.0054	82.0313	83.7686	82.0313	83.9438	82.0313	83.7757	82.0313	83.894	82.0313	83.7844	82.0313	83.856	82.0313	83.7951	82.0313	83.8285	82.0313	83.809
84.9609	84.7544	84.9609	84.6861	84.9609	84.8085	84.9609	84.6072	84.9609	84.8452	84.9609	84.5223	84.9609	84.8625	84.9609	84.4361	84.9609	84.8596	84.9609	84.3531	84.9609	84.8367	84.9609	84.2775	84.9609	84.7952	84.9609	84.2124	84.9609	84.7376	84.9609	84.16	84.9609	84.6671	84.9609	84.1211	84.9609	84.588	84.9609	84.0952	84.9609	84.5047	84.9609	84.0806	84.9609	84.4221	84.9609	84.0751	84.9609	84.3448	84.9609	84.0759	84.9609	84.2767	84.9609	84.0804	84.9609	84.2204	84.9609	84.0866	84.9609	84.1769	84.9609	84.0933	84.9609	84.1455	84.9609	84.1008	84.9609	84.1243	84.9609	84.1103
87.8906	84.9495	87.8906	84.8842	87.8906	84.9988	87.8906	84.8066	87.8906	85.0289	87.8906	84.7215	87.8906	85.0382	87.8906	84.6337	87.8906	85.0261	87.8906	84.5481	87.8906	84.9934	87.8906	84.4691	87.8906	84.9419	87.8906	84.4002	87.8906	84.8748	87.8906	84.3439	87.8906	84.7962	87.8906	84.3011	87.8906	84.7105	87.8906	84.2717	87.8906	84.623	87.8906	84.2539	87.8906	84.5386	87.8906	84.2454	87.8906	84.4619	87.8906	84.2434	87.8906	84.3965	87.8906	84.245	87.8906	84.3446	87.8906	84.2479	87.8906	84.3067	87.8906	84.2509	87.8906	84.2815	87.8906	84.254	87.8906	84.2665	87.8906	84.2584
90.8203	85.1487	90.8203	85.0844	90.8203	85.1957	90.8203	85.0067	90.8203	85.2224	90.8203	84.9206	90.8203	85.227	90.8203	84.831	90.8203	85.2092	90.8203	84.7432	90.8203	85.17	90.8203	84.6618	90.8203	85.1119	90.8203	84.5907	90.8203	85.0383	90.8203	84.5325	90.8203	84.9537	90.8203	84.4882	90.8203	84.8634	90.8203	84.4577	90.8203	84.7728	90.8203	84.4394	90.8203	84.6872	90.8203	84.4306	90.8203	84.6113	90.8203	84.4283	90.8203	84.5485	90.8203	84.4294	90.8203	84.5006	90.8203	84.4314	90.8203	84.4676	90.8203	84.4326	90.8203	84.4476	90.8203	84.433	90.8203	84.4375	90.8203	84.4338
95.2148	85.4508	95.2148	85.3891	95.2148	85.4931	95.2148	85.3122	95.2148	85.5132	95.2148	85.2249	95.2148	85.5096	95.2148	85.1327	95.2148	85.4822	95.2148	85.0409	95.2148	85.4326	95.2148	84.9547	95.2148	85.3637	95.2148	84.8783	95.2148	85.2798	95.2148	84.8145	95.2148	85.186	95.2148	84.7649	95.2148	85.0881	95.2148	84.7294	95.2148	84.9921	95.2148	84.7065	95.2148	84.9036	95.2148	84.6936	95.2148	84.8272	95.2148	84.6876	95.2148	84.7662	95.2148	84.6853	95.2148	84.7218	95.2148	84.6839	95.2148	84.6934	95.2148	84.6816	95.2148	84.6786	95.2148	84.6782	95.2148	84.6737	95.2148	84.6747
98.1445	85.5947	98.1445	85.5361	98.1445	85.6327	98.1445	85.461	98.1445	85.6473	98.1445	85.3744	98.1445	85.637	98.1445	85.2818	98.1445	85.6022	98.1445	85.189	98.1445	85.5447	98.1445	85.1013	98.1445	85.4679	98.1445	85.023	98.1445	85.3764	98.1445	84.9573	98.1445	85.2759	98.1445	84.9058	98.1445	85.1728	98.1445	84.8684	98.1445	85.0733	98.1445	84.8436	98.1445	84.9833	98.1445	84.8288	98.1445	84.9075	98.1445	84.8204	98.1445	84.849	98.1445	84.8152	98.1445	84.8088	98.1445	84.8102	98.1445	84.7858	98.1445	84.8036	98.1445	84.777	98.1445	84.7951	98.1445	84.7785	98.1445	84.7858
101.074	85.7325	101.074	85.676	101.074	85.7673	101.074	85.6022	101.074	85.7779	101.074	85.516	101.074	85.763	101.074	85.4232	101.074	85.723	101.074	85.3297	101.074	85.6603	101.074	85.2411	101.074	85.5785	101.074	85.1619	101.074	85.4829	101.074	85.0958	101.074	85.3795	101.074	85.0443	101.074	85.275	101.074	85.0075	101.074	85.176	101.074	84.9838	101.074	85.0885	101.074	84.9704	101.074	85.0169	101.074	84.9635	101.074	84.9639	101.074	84.9596	101.074	84.93	101.074	84.9555	101.074	84.9133	101.074	84.9489	101.074	84.9104	101.074	84.9393	101.074	84.9167	101.074	84.9277
105.469	85.9395	105.469	85.8895	105.469	85.9644	105.469	85.8187	105.469	85.962	105.469	85.7322	105.469	85.9314	105.469	85.6362	105.469	85.8738	105.469	85.5371	105.469	85.7924	105.469	85.4414	105.469	85.6919	105.469	85.3543	105.469	85.5786	105.469	85.2801	105.469	85.4597	105.469	85.2211	105.469	85.343	105.469	85.1778	105.469	85.2359	105.469	85.1486	105.469	85.1449	105.469	85.1306	105.469	85.0746	105.469	85.1196	105.469	85.0273	105.469	85.1114	105.469	85.0026	105.469	85.1021	105.469	84.9975	105.469	85.089	105.469	85.0074	105.469	85.0711	105.469	85.0265	105.469	85.0493
108.398	86.1542	108.398	86.111	108.398	86.1699	108.398	86.0444	108.398	86.1557	108.398	85.9596	108.398	86.1112	108.398	85.8628	108.398	86.0377	108.398	85.7606	108.398	85.9388	108.398	85.6594	108.398	85.8199	108.398	85.5648	108.398	85.6879	108.398	85.4812	108.398	85.5509	108.398	85.4113	108.398	85.4177	108.398	85.3559	108.398	85.2964	108.398	85.3139	108.398	85.1943	108.398	85.2824	108.398	85.1165	108.398	85.2577	108.398	85.0656	108.398	85.2355	108.398	85.0412	108.398	85.2123	108.398	85.04	108.398	85.1854	108.398	85.0569	108.398	85.1541	108.398	85.0855	108.398	85.1196
112.793	86.3807	112.793	86.333	112.793	86.4016	112.793	86.2626	112.793	86.3929	112.793	86.1752	112.793	86.354	112.793	86.0771	112.793	86.2863	112.793	85.9751	112.793	86.1933	112.793	85.8757	112.793	86.0806	112.793	85.7846	112.793	85.9553	112.793	85.7063	112.793	85.8258	112.793	85.6432	112.793	85.7008	112.793	85.5958	112.793	85.5885	112.793	85.5628	112.793	85.4958	112.793	85.5412	112.793	85.4272	112.793	85.5268	112.793	85.3843	112.793	85.5154	112.793	85.3658	112.793	85.5029	112.793	85.3678	112.793	85.4864	112.793	85.3847	112.793	85.4646	112.793	85.4101	112.793	85.4383
117.188	86.5235	117.188	86.4776	117.188	86.5403	117.188	86.4066	117.188	86.5257	117.188	86.3162	117.188	86.4794	117.188	86.2131	117.188	86.4033	117.188	86.1043	117.188	86.3014	117.188	85.997	117.188	86.1798	117.188	85.8975	117.188	86.046	117.188	85.811	117.188	85.909	117.188	85.7405	117.188	85.7775	117.188	85.6871	117.188	85.6603	117.188	85.6494	117.188	85.5642	117.188	85.6245	117.188	85.4938	117.188	85.608	117.188	85.4505	117.188	85.5951	117.188	85.4327	117.188	85.5815	117.188	85.4363	117.188	85.5639	117.188	85.4551	117.188	85.5407	117.188	85.4826	117.188	85.5127
120.117	86.6395	120.117	86.5978	120.117	86.6501	120.117	86.5294	120.117	86.6273	120.117	86.4399	120.117	86.571	120.117	86.3365	120.117	86.4835	120.117	86.2265	120.117	86.3693	120.117	86.1174	120.117	86.2352	120.117	86.0158	120.117	86.0897	120.117	85.9272	120.117	85.9425	120.117	85.8549	120.117	85.8037	120.117	85.7999	120.117	85.6824	120.117	85.7609	120.117	85.5859	120.117	85.7347	120.117	85.5188	120.117	85.7166	120.117	85.4821	120.117	85.7015	120.117	85.4735	120.117	85.6844	120.117	85.4877	120.117	85.6619	120.117	85.5177	120.117	85.6323	120.117	85.556	120.117	85.596
124.512	86.7816	124.512	86.7359	124.512	86.7959	124.512	86.6634	124.512	86.7764	124.512	86.57	124.512	86.7229	124.512	86.4628	124.512	86.6373	124.512	86.3496	124.512	86.5243	124.512	86.238	124.512	86.3907	124.512	86.1347	124.512	86.245	124.512	86.0452	124.512	86.0973	124.512	85.9731	124.512	85.9577	124.512	85.9193	124.512	85.8357	124.512	85.8826	124.512	85.7388	124.512	85.8597	124.512	85.6715	124.512	85.8455	124.512	85.635	124.512	85.8348	124.512	85.6266	124.512	85.8224	124.512	85.6408	124.512	85.8043	124.512	85.6703	124.512	85.7785	124.512	85.7075	124.512	85.7452
128.906	86.8209	128.906	86.7743	128.906	86.8346	128.906	86.6993	128.906	86.8131	128.906	86.602	128.906	86.7564	128.906	86.4898	128.906	86.667	128.906	86.3706	128.906	86.5498	128.906	86.2528	128.906	86.4121	128.906	86.1437	128.906	86.263	128.906	86.0494	128.906	86.113	128.906	85.974	128.906	85.9726	128.906	85.9189	128.906	85.8516	128.906	85.8829	128.906	85.7573	128.906	85.8625	128.906	85.6939	128.906	85.8525	128.906	85.6617	128.906	85.8471	128.906	85.6574	128.906	85.8405	128.906	85.6747	128.906	85.8281	128.906	85.7057	128.906	85.8073	128.906	85.7424	128.906	85.7779
133.301	86.8646	133.301	86.8194	133.301	86.8759	133.301	86.7445	133.301	86.851	133.301	86.6461	133.301	86.7903	133.301	86.5316	133.301	86.6964	133.301	86.4094	133.301	86.5747	133.301	86.2879	133.301	86.4327	133.301	86.1749	133.301	86.2797	133.301	86.0768	133.301	86.1263	133.301	85.998	133.301	85.9832	133.301	85.9401	133.301	85.8602	133.301	85.9021	133.301	85.7649	133.301	85.8806	133.301	85.7014	133.301	85.8703	133.301	85.6701	133.301	85.865	133.301	85.6674	133.301	85.8587	133.301	85.6867	133.301	85.8464	133.301	85.7198	133.301	85.8254	133.301	85.7584	133.301	85.7953
139.16	86.846	139.16	86.7994	139.16	86.8564	139.16	86.721	139.16	86.8287	139.16	86.617	139.16	86.7636	139.16	86.4951	139.16	86.6645	139.16	86.3643	139.16	86.5372	139.16	86.2336	139.16	86.3899	139.16	86.1114	139.16	86.2328	139.16	86.005	139.16	86.0766	139.16	85.9194	139.16	85.9324	139.16	85.8567	139.16	85.81	139.16	85.8164	139.16	85.7163	139.16	85.795	139.16	85.6552	139.16	85.787	139.16	85.626	139.16	85.7859	139.16	85.6245	139.16	85.7852	139.16	85.6436	139.16	85.7795	139.16	85.6747	139.16	85.7651	139.16	85.7095	139.16	85.7412
143.555	86.8466	143.555	86.8009	143.555	86.8539	143.555	86.7209	143.555	86.8213	143.555	86.6132	143.555	86.7498	143.555	86.4856	143.555	86.6433	143.555	86.3475	143.555	86.5086	143.555	86.2084	143.555	86.3546	143.555	86.0775	143.555	86.192	143.555	85.9626	143.555	86.0324	143.555	85.8693	143.555	85.8868	143.555	85.8004	143.555	85.7648	143.555	85.7557	143.555	85.673	143.555	85.7318	143.555	85.6142	143.555	85.7233	143.555	85.5871	143.555	85.7235	143.555	85.5868	143.555	85.7256	143.555	85.6057	143.555	85.7237	143.555	85.6351	143.555	85.7138	143.555	85.6668	143.555	85.6944
147.949	86.8062	147.949	86.7623	147.949	86.8095	147.949	86.682	147.949	86.7709	147.949	86.5716	147.949	86.6917	147.949	86.4391	147.949	86.5763	147.949	86.2941	147.949	86.4318	147.949	86.1463	147.949	86.2678	147.949	86.0057	147.949	86.0956	147.949	85.8804	147.949	85.9275	147.949	85.777	147.949	85.7752	147.949	85.6986	147.949	85.6486	147.949	85.6457	147.949	85.5543	147.949	85.6152	147.949	85.4948	147.949	85.6018	147.949	85.4679	147.949	85.5989	147.949	85.468	147.949	85.5995	147.949	85.4868	147.949	85.5976	147.949	85.5153	147.949	85.5888	147.949	85.5455	147.949	85.5712
153.809	86.7599	153.809	86.7279	153.809	86.7471	153.809	86.6548	153.809	86.6888	153.809	86.5468	153.809	86.5873	153.809	86.4122	153.809	86.4479	153.809	86.2609	153.809	86.279	153.809	86.1034	153.809	86.0916	153.809	85.9504	153.809	85.8983	153.809	85.8112	153.809	85.7127	153.809	85.6933	153.809	85.5475	153.809	85.6007	153.809	85.4132	153.809	85.5343	153.809	85.3164	153.809	85.4915	153.809	85.2591	153.809	85.4669	153.809	85.2381	153.809	85.4535	153.809	85.2464	153.809	85.4443	153.809	85.2746	153.809	85.4329	153.809	85.3129	153.809	85.4148	153.809	85.3528	153.809	85.3879
159.668	86.9521	159.668	86.9244	159.668	86.9329	159.668	86.8537	159.668	86.8659	159.668	86.7462	159.668	86.7534	159.668	86.6104	159.668	86.6008	159.668	86.4559	159.668	86.4164	159.668	86.2933	159.668	86.2114	159.668	86.1332	159.668	85.9987	159.668	85.985	159.668	85.7925	159.668	85.8564	159.668	85.6064	159.668	85.7521	159.668	85.4522	159.668	85.6735	159.668	85.3384	159.668	85.6183	159.668	85.2684	159.668	85.5814	159.668	85.2404	159.668	85.5557	159.668	85.248	159.668	85.5337	159.668	85.2815	159.668	85.5086	159.668	85.33	159.668	85.4758	159.668	85.3833	159.668	85.4335
165.527	86.9275	165.527	86.8997	165.527	86.9083	165.527	86.8285	165.527	86.8415	165.527	86.7204	165.527	86.7301	165.527	86.5841	165.527	86.5806	165.527	86.4298	165.527	86.4023	165.527	86.2684	165.527	86.2076	165.527	86.1107	165.527	86.0101	165.527	85.9666	165.527	85.8238	165.527	85.8438	165.527	85.6614	165.527	85.7471	165.527	85.533	165.527	85.678	165.527	85.4444	165.527	85.6343	165.527	85.3964	165.527	85.6111	165.527	85.3848	165.527	85.6013	165.527	85.4016	165.527	85.597	165.527	85.4365	165.527	85.5911	165.527	85.4791	165.527	85.578	165.527	85.5205	165.527	85.5545
171.387	86.8278	171.387	86.7976	171.387	86.8082	171.387	86.7214	171.387	86.7381	171.387	86.606	171.387	86.6203	171.387	86.4608	171.387	86.4617	171.387	86.2964	171.387	86.2722	171.387	86.1245	171.387	86.065	171.387	85.9568	171.387	85.8551	171.387	85.8038	171.387	85.6578	171.387	85.6739	171.387	85.4875	171.387	85.5724	171.387	85.3551	171.387	85.5009	171.387	85.2667	171.387	85.4574	171.387	85.2225	171.387	85.4364	171.387	85.2171	171.387	85.4303	171.387	85.2406	171.387	85.4308	171.387	85.2811	171.387	85.4301	171.387	85.3272	171.387	85.4217	171.387	85.3695	171.387	85.4018
177.246	86.7307	177.246	86.7	177.246	86.71	177.246	86.6215	177.246	86.6377	177.246	86.5021	177.246	86.5175	177.246	86.3511	177.246	86.3569	177.246	86.1797	177.246	86.1666	177.246	86.0003	177.246	85.9603	177.246	85.8249	177.246	85.7528	177.246	85.665	177.246	85.5595	177.246	85.5296	177.246	85.3937	177.246	85.4246	177.246	85.2657	177.246	85.3521	177.246	85.1809	177.246	85.3102	177.246	85.1389	177.246	85.2933	177.246	85.1338	177.246	85.2934	177.246	85.1558	177.246	85.3015	177.246	85.1933	177.246	85.309	177.246	85.2348	177.246	85.3089	177.246	85.2712	177.246	85.2967
183.105	86.5465	183.105	86.5212	183.105	86.5166	183.105	86.4438	183.105	86.4322	183.105	86.3208	183.105	86.2981	183.105	86.1618	183.105	86.1231	183.105	85.9783	183.105	85.9197	183.105	85.7832	183.105	85.7027	183.105	85.5901	183.105	85.4885	183.105	85.4114	183.105	85.293	183.105	85.2578	183.105	85.1299	183.105	85.1371	183.105	85.0087	183.105	85.0527	183.105	84.9335	183.105	85.0041	183.105	84.9021	183.105	84.9863	183.105	84.9066	183.105	84.9916	183.105	84.9352	183.105	85.0103	183.105	84.9745	183.105	85.0322	183.105	85.0125	183.105	85.0484	183.105	85.04	183.105	85.0522
188.965	86.4646	188.965	86.4565	188.965	86.4124	188.965	86.3907	188.965	86.3014	188.965	86.2733	188.965	86.1376	188.965	86.1134	188.965	85.9313	188.965	85.9225	188.965	85.6967	188.965	85.7133	188.965	85.4508	188.965	85.499	188.965	85.2118	188.965	85.2925	188.965	84.997	188.965	85.1051	188.965	84.8209	188.965	84.9457	188.965	84.6928	188.965	84.8202	188.965	84.6152	188.965	84.7307	188.965	84.5838	188.965	84.6759	188.965	84.588	188.965	84.6512	188.965	84.6135	188.965	84.6493	188.965	84.6458	188.965	84.6612	188.965	84.6731	188.965	84.6772	188.965	84.688	188.965	84.6884
196.289	86.5543	196.289	86.556	196.289	86.4898	196.289	86.4981	196.289	86.3635	196.289	86.388	196.289	86.1816	196.289	86.2359	196.289	85.9553	196.289	86.0541	196.289	85.6998	196.289	85.856	196.289	85.4334	196.289	85.6547	196.289	85.1751	196.289	85.4621	196.289	84.9428	196.289	85.288	196.289	84.7507	196.289	85.1384	196.289	84.6082	196.289	85.0159	196.289	84.5184	196.289	84.9199	196.289	84.4777	196.289	84.847	196.289	84.4772	196.289	84.7928	196.289	84.504	196.289	84.7522	196.289	84.5449	196.289	84.7203	196.289	84.5888	196.289	84.692	196.289	84.6289	196.289	84.6628
203.613	86.4133	203.613	86.4107	203.613	86.344	203.613	86.3409	203.613	86.2031	203.613	86.2127	203.613	85.997	203.613	86.0383	203.613	85.7381	203.613	85.8318	203.613	85.4449	203.613	85.6089	203.613	85.1403	203.613	85.3851	203.613	84.8485	203.613	85.1747	203.613	84.592	203.613	84.9893	203.613	84.3876	203.613	84.8362	203.613	84.2443	203.613	84.7181	203.613	84.1626	203.613	84.6325	203.613	84.1358	203.613	84.5736	203.613	84.1518	203.613	84.5333	203.613	84.196	203.613	84.5036	203.613	84.2539	203.613	84.4772	203.613	84.3138	203.613	84.4483	203.613	84.3679	203.613	84.4128
210.938	86.3519	210.938	86.3447	210.938	86.2861	210.938	86.2686	210.938	86.1474	210.938	86.1316	210.938	85.9414	210.938	85.9451	210.938	85.6794	210.938	85.7225	210.938	85.3784	210.938	85.479	210.938	85.0606	210.938	85.2304	210.938	84.751	210.938	84.992	210.938	84.4743	210.938	84.7775	210.938	84.2514	210.938	84.5969	210.938	84.0945	210.938	84.4561	210.938	84.0058	210.938	84.3554	210.938	83.9775	210.938	84.2905	210.938	83.9946	210.938	84.254	210.938	84.0388	210.938	84.2365	210.938	84.0929	210.938	84.2287	210.938	84.1436	210.938	84.2218	210.938	84.1829	210.938	84.2083
218.262	86.2792	218.262	86.2886	218.262	86.1937	218.262	86.2263	218.262	86.0327	218.262	86.1011	218.262	85.8024	218.262	85.9243	218.262	85.5151	218.262	85.7098	218.262	85.1888	218.262	85.4726	218.262	84.8465	218.262	85.2279	218.262	84.5135	218.262	84.99	218.262	84.2147	218.262	84.7714	218.262	83.9707	218.262	84.5811	218.262	83.7948	218.262	84.424	218.262	83.6906	218.262	84.3003	218.262	83.6517	218.262	84.2065	218.262	83.6646	218.262	84.1364	218.262	83.7115	218.262	84.0828	218.262	83.7748	218.262	84.0385	218.262	83.8408	218.262	83.997	218.262	83.901	218.262	83.9526
225.586	86.1895	225.586	86.1976	225.586	86.0986	225.586	86.1281	225.586	85.9255	225.586	85.9904	225.586	85.6776	225.586	85.7976	225.586	85.3698	225.586	85.5649	225.586	85.0245	225.586	85.309	225.586	84.6701	225.586	85.047	225.586	84.338	225.586	84.7953	225.586	84.0571	225.586	84.5683	225.586	83.8487	225.586	84.377	225.586	83.7215	225.586	84.2279	225.586	83.6713	225.586	84.1221	225.586	83.6832	225.586	84.0559	225.586	83.7365	225.586	84.0219	225.586	83.8093	225.586	84.0105	225.586	83.883	225.586	84.0112	225.586	83.9442	225.586	84.0135	225.586	83.986	225.586	84.0076
232.91	86.349	232.91	86.3617	232.91	86.2473	232.91	86.2921	232.91	86.0545	232.91	86.1503	232.91	85.775	232.91	85.9492	232.91	85.4204	232.91	85.7029	232.91	85.0109	232.91	85.4264	232.91	84.5753	232.91	85.1352	232.91	84.1492	232.91	84.8443	232.91	83.7709	232.91	84.5682	232.91	83.4741	232.91	84.3192	232.91	83.2801	232.91	84.107	232.91	83.1924	232.91	83.9375	232.91	83.1959	232.91	83.812	232.91	83.263	232.91	83.728	232.91	83.3612	232.91	83.6789	232.91	83.4617	232.91	83.6551	232.91	83.5442	232.91	83.6435	232.91	83.5998	232.91	83.6297
241.699	86.262	241.699	86.2456	241.699	86.1952	241.699	86.1542	241.699	86.0419	241.699	85.9996	241.699	85.8046	241.699	85.7961	241.699	85.492	241.699	85.5591	241.699	85.1192	241.699	85.3034	241.699	84.7083	241.699	85.0423	241.699	84.2871	241.699	84.7865	241.699	83.8873	241.699	84.544	241.699	83.541	241.699	84.3194	241.699	83.274	241.699	84.1153	241.699	83.0996	241.699	83.9322	241.699	83.0149	241.699	83.77	241.699	83.0023	241.699	83.6287	241.699	83.0366	241.699	83.5089	241.699	83.093	241.699	83.411	241.699	83.1541	241.699	83.3331	241.699	83.2124	241.699	83.2696
250.488	86.0574	250.488	86.0528	250.488	85.972	250.488	85.9664	250.488	85.7942	250.488	85.8109	250.488	85.5291	250.488	85.602	250.488	85.1902	250.488	85.3571	250.488	84.7992	250.488	85.0936	250.488	84.385	250.488	84.8277	250.488	83.9795	250.488	84.5731	250.488	83.6132	250.488	84.3401	250.488	83.3109	250.488	84.1348	250.488	83.0889	250.488	83.9589	250.488	82.9533	250.488	83.8106	250.488	82.8991	250.488	83.6856	250.488	82.9114	250.488	83.5794	250.488	82.9682	250.488	83.4884	250.488	83.0465	250.488	83.4096	250.488	83.1285	250.488	83.3396	250.488	83.2044	250.488	83.2733
259.277	86.0391	259.277	86.0168	259.277	85.9716	259.277	85.9144	259.277	85.8099	259.277	85.7461	259.277	85.5564	259.277	85.5289	259.277	85.222	259.277	85.2815	259.277	84.8272	259.277	85.0227	259.277	84.4021	259.277	84.7691	259.277	83.9845	259.277	84.5338	259.277	83.6134	259.277	84.3251	259.277	83.3213	259.277	84.146	259.277	83.1265	259.277	83.9951	259.277	83.0296	259.277	83.8676	259.277	83.0159	259.277	83.7578	259.277	83.0601	259.277	83.6613	259.277	83.1338	259.277	83.5762	259.277	83.213	259.277	83.5031	259.277	83.283	259.277	83.4421	259.277	83.3403	259.277	83.3903
268.066	85.8121	268.066	85.7801	268.066	85.7517	268.066	85.6638	268.066	85.5968	268.066	85.4773	268.066	85.3518	268.066	85.2392	268.066	85.0284	268.066	84.9716	268.066	84.6465	268.066	84.698	268.066	84.2349	268.066	84.4397	268.066	83.83	268.066	84.2137	268.066	83.4705	268.066	84.0299	268.066	83.1899	268.066	83.8905	268.066	83.0081	268.066	83.7907	268.066	82.9273	268.066	83.7209	268.066	82.9328	268.066	83.6699	268.066	82.9994	268.066	83.6275	268.066	83.0979	268.066	83.5866	268.066	83.2033	268.066	83.5434	268.066	83.2989	268.066	83.4961	268.066	83.3783	268.066	83.4425
276.855	85.7175	276.855	85.7172	276.855	85.6174	276.855	85.6197	276.855	85.4214	276.855	85.4354	276.855	85.1412	276.855	85.1813	276.855	84.7937	276.855	84.8796	276.855	84.3997	276.855	84.5559	276.855	83.9828	276.855	84.237	276.855	83.5707	276.855	83.9477	276.855	83.1948	276.855	83.707	276.855	82.8877	276.855	83.525	276.855	82.6756	276.855	83.4007	276.855	82.5695	276.855	83.3244	276.855	82.5606	276.855	83.2809	276.855	82.6242	276.855	83.2549	276.855	82.7292	276.855	83.2334	276.855	82.847	276.855	83.2076	276.855	82.9571	276.855	83.1713	276.855	83.049	276.855	83.1198
287.109	85.7679	287.109	85.7709	287.109	85.6437	287.109	85.6607	287.109	85.4002	287.109	85.4523	287.109	85.0506	287.109	85.1666	287.109	84.6215	287.109	84.8283	287.109	84.1518	287.109	84.4651	287.109	83.6877	287.109	84.1051	287.109	83.274	287.109	83.7745	287.109	82.9453	287.109	83.4942	287.109	82.7202	287.109	83.2761	287.109	82.6024	287.109	83.1225	287.109	82.5827	287.109	83.0269	287.109	82.6409	287.109	82.9786	287.109	82.7483	287.109	82.9667	287.109	82.8719	287.109	82.9819	287.109	82.9821	287.109	83.0151	287.109	83.058	287.109	83.0549	287.109	83.0912	287.109	83.0858
297.363	85.8819	297.363	85.8842	297.363	85.7532	297.363	85.771	297.363	85.4948	297.363	85.5588	297.363	85.1141	297.363	85.2685	297.363	84.633	297.363	84.9243	297.363	84.0902	297.363	84.5532	297.363	83.5399	297.363	84.1833	297.363	83.0436	297.363	83.8405	297.363	82.6547	297.363	83.5452	297.363	82.404	297.363	83.3079	297.363	82.2949	297.363	83.1283	297.363	82.3064	297.363	82.9975	297.363	82.4022	297.363	82.9036	297.363	82.5387	297.363	82.8374	297.363	82.674	297.363	82.7962	297.363	82.7762	297.363	82.7812	297.363	82.8299	297.363	82.7915	297.363	82.8378	297.363	82.817
307.617	86.0309	307.617	86.0006	307.617	85.9331	307.617	85.8564	307.617	85.6998	307.617	85.6168	307.617	85.3328	307.617	85.3038	307.617	84.8464	307.617	84.9408	307.617	84.2717	307.617	84.5524	307.617	83.6598	307.617	84.1647	307.617	83.0782	307.617	83.8049	307.617	82.5974	307.617	83.4994	307.617	82.2681	307.617	83.2676	307.617	82.1051	307.617	83.1145	307.617	82.089	307.617	83.0289	307.617	82.1805	307.617	82.9887	307.617	82.3343	307.617	82.9714	307.617	82.508	307.617	82.9621	307.617	82.6678	307.617	82.9542	307.617	82.7922	307.617	82.943	307.617	82.8747	307.617	82.9207
319.336	86.0886	319.336	86.0425	319.336	85.987	319.336	85.8665	319.336	85.7281	319.336	85.5849	319.336	85.3121	319.336	85.2275	319.336	84.753	319.336	84.8271	319.336	84.0848	319.336	84.4171	319.336	83.3685	319.336	84.028	319.336	82.6937	319.336	83.6851	319.336	82.1634	319.336	83.4068	319.336	81.8573	319.336	83.2038	319.336	81.7931	319.336	83.0767	319.336	81.9233	319.336	83.0143	319.336	82.1669	319.336	82.9962	319.336	82.4445	319.336	83	319.336	82.6966	319.336	83.0105	319.336	82.8872	319.336	83.0236	319.336	83.0033	319.336	83.0405	319.336	83.0522	319.336	83.056
329.59	86.3412	329.59	86.2472	329.59	86.2906	329.59	86.0252	329.59	86.0838	329.59	85.6968	329.59	85.7155	329.59	85.2873	329.59	85.1887	329.59	84.8261	329.59	84.5183	329.59	84.3463	329.59	83.7383	329.59	83.8839	329.59	82.9112	329.59	83.4755	329.59	82.1365	329.59	83.152	329.59	81.5403	329.59	82.9312	329.59	81.2314	329.59	82.8122	329.59	81.2374	329.59	82.7756	329.59	81.4849	329.59	82.791	329.59	81.8494	329.59	82.8281	329.59	82.2174	329.59	82.8652	329.59	82.518	329.59	82.8915	329.59	82.7238	329.59	82.9027	329.59	82.8405	329.59	82.8915
341.309	85.9947	341.309	85.8908	341.309	85.9732	341.309	85.6761	341.309	85.8167	341.309	85.3699	341.309	85.5215	341.309	84.9951	341.309	85.0915	341.309	84.5773	341.309	84.5411	341.309	84.1441	341.309	83.8993	341.309	83.7249	341.309	83.2151	341.309	83.3511	341.309	82.5592	341.309	83.0536	341.309	82.0176	341.309	82.8573	341.309	81.6709	341.309	82.7712	341.309	81.5612	341.309	82.7819	341.309	81.6695	341.309	82.8556	341.309	81.925	341.309	82.9513	341.309	82.2397	341.309	83.0342	341.309	82.54	341.309	83.0838	341.309	82.7819	341.309	83.091	341.309	82.9504	341.309	83.0496
353.027	86.0565	353.027	85.9625	353.027	86.006	353.027	85.7377	353.027	85.8044	353.027	85.4022	353.027	85.4528	353.027	84.9808	353.027	84.9609	353.027	84.5017	353.027	84.3493	353.027	83.9947	353.027	83.6525	353.027	83.4903	353.027	82.9238	353.027	83.0202	353.027	82.2383	353.027	82.6173	353.027	81.6882	353.027	82.3136	353.027	81.3616	353.027	82.1325	353.027	81.3029	353.027	82.0796	353.027	81.4832	353.027	82.137	353.027	81.8126	353.027	82.2707	353.027	82.1839	353.027	82.442	353.027	82.5101	353.027	82.6161	353.027	82.7385	353.027	82.7623	353.027	82.8497	353.027	82.85
366.211	86.183	366.211	86.0847	366.211	86.134	366.211	85.8512	366.211	85.9322	366.211	85.501	366.211	85.5796	366.211	85.0581	366.211	85.0855	366.211	84.5503	366.211	84.4688	366.211	84.0083	366.211	83.7604	366.211	83.4652	366.211	83.006	366.211	82.9552	366.211	82.2679	366.211	82.5126	366.211	81.6231	366.211	82.1667	366.211	81.1529	366.211	81.9353	366.211	80.919	366.211	81.818	366.211	80.9326	366.211	81.7957	366.211	81.1396	366.211	81.838	366.211	81.4426	366.211	81.9151	366.211	81.7422	366.211	82.0031	366.211	81.9687	366.211	82.0807	366.211	82.093	366.211	82.1213
379.395	86.5833	379.395	86.4402	379.395	86.5641	379.395	86.154	379.395	86.3703	379.395	85.749	379.395	85.9989	379.395	85.2539	379.395	85.4578	379.395	84.6995	379.395	84.7698	379.395	84.1192	379.395	83.9753	379.395	83.5487	379.395	83.1352	379.395	83.0267	379.395	82.3314	379.395	82.5911	379.395	81.6616	379.395	82.271	379.395	81.2206	379.395	82.0734	379.395	81.0634	379.395	81.9792	379.395	81.1683	379.395	81.9521	379.395	81.4411	379.395	81.9599	379.395	81.7613	379.395	81.9893	379.395	82.0308	379.395	82.0438	379.395	82.1949	379.395	82.123	379.395	82.244	379.395	82.2045
392.578	86.1616	392.578	85.96	392.578	86.2423	392.578	85.6482	392.578	86.1922	392.578	85.2408	392.578	85.9992	392.578	84.7581	392.578	85.6509	392.578	84.2238	392.578	85.1416	392.578	83.6627	392.578	84.4804	392.578	83.1006	392.578	83.6995	392.578	82.5697	392.578	82.8607	392.578	82.1147	392.578	82.0644	392.578	81.7904	392.578	81.4472	392.578	81.6405	392.578	81.1394	392.578	81.6655	392.578	81.1802	392.578	81.8124	392.578	81.4788	392.578	82.0049	392.578	81.8759	392.578	82.1856	392.578	82.2318	392.578	82.335	392.578	82.4663	392.578	82.4558	392.578	82.5606	392.578	82.5419
405.762	85.7564	405.762	85.5838	405.762	85.7528	405.762	85.2462	405.762	85.583	405.762	84.7714	405.762	85.2758	405.762	84.1959	405.762	84.8699	405.762	83.5574	405.762	84.4001	405.762	82.89	405.762	83.8867	405.762	82.2242	405.762	83.3377	405.762	81.5951	405.762	82.7608	405.762	81.0526	405.762	82.1824	405.762	80.6638	405.762	81.6631	405.762	80.4939	405.762	81.2955	405.762	80.5642	405.762	81.1627	405.762	80.8256	405.762	81.2705	405.762	81.1803	405.762	81.5293	405.762	81.5324	405.762	81.8129	405.762	81.8205	405.762	82.027	405.762	82.0201	405.762	82.1317	405.762	82.1259
420.41	86.1244	420.41	85.937	420.41	86.1365	420.41	85.595	420.41	85.9644	420.41	85.1278	420.41	85.6128	420.41	84.5684	420.41	85.1001	420.41	83.9476	420.41	84.4569	420.41	83.2894	420.41	83.7229	420.41	82.6107	420.41	82.9426	420.41	81.9259	420.41	82.1663	420.41	81.2567	420.41	81.4595	420.41	80.6437	420.41	80.9094	420.41	80.1516	420.41	80.6074	420.41	79.8551	420.41	80.5947	420.41	79.8014	420.41	80.8176	420.41	79.9745	420.41	81.1466	420.41	80.3027	420.41	81.4417	420.41	80.6987	420.41	81.6031	420.41	81.0864	420.41	81.5873	420.41	81.4015
435.059	85.265	435.059	85.0175	435.059	85.3567	435.059	84.6377	435.059	85.2829	435.059	84.1619	435.059	85.0472	435.059	83.6327	435.059	84.6655	435.059	83.0888	435.059	84.1666	435.059	82.556	435.059	83.5899	435.059	82.0434	435.059	82.9765	435.059	81.5495	435.059	82.3606	435.059	81.077	435.059	81.7708	435.059	80.6469	435.059	81.2468	435.059	80.3001	435.059	80.8473	435.059	80.0776	435.059	80.6241	435.059	79.9895	435.059	80.5776	435.059	80.0057	435.059	80.642	435.059	80.0819	435.059	80.7204	435.059	80.1939	435.059	80.7346	435.059	80.339	435.059	80.6553	435.059	80.5062
451.172	84.9907	451.172	84.7213	451.172	85.0801	451.172	84.2991	451.172	84.9786	451.172	83.7646	451.172	84.6894	451.172	83.164	451.172	84.2267	451.172	82.5398	451.172	83.6163	451.172	81.9231	451.172	82.9005	451.172	81.3306	451.172	82.1413	451.172	80.7682	451.172	81.4155	451.172	80.2406	451.172	80.8037	451.172	79.7656	451.172	80.3853	451.172	79.3866	451.172	80.225	451.172	79.1686	451.172	80.3302	451.172	79.1642	451.172	80.6141	451.172	79.3723	451.172	80.9327	451.172	79.7318	451.172	81.1619	451.172	80.1561	451.172	81.2372	451.172	80.5686	451.172	81.1474	451.172	80.9132
465.82	84.1323	465.82	83.883	465.82	84.2221	465.82	83.4987	465.82	84.1443	465.82	83.0177	465.82	83.9036	465.82	82.4836	465.82	83.5115	465.82	81.9332	465.82	82.9834	465.82	81.3871	465.82	82.3415	465.82	80.8469	465.82	81.6215	465.82	80.3024	465.82	80.8757	465.82	79.7446	465.82	80.1735	465.82	79.1828	465.82	79.5997	465.82	78.6576	465.82	79.242	465.82	78.2394	465.82	79.1511	465.82	78.0005	465.82	79.2889	465.82	77.974	465.82	79.5293	465.82	78.1416	465.82	79.7217	465.82	78.4564	465.82	79.7568	465.82	78.8586	465.82	79.5958	465.82	79.2698
483.398	83.3711	483.398	83.1222	483.398	83.431	483.398	82.7141	483.398	83.3046	483.398	82.2007	483.398	83.0245	483.398	81.6458	483.398	82.6393	483.398	81.1061	483.398	82.1895	483.398	80.6175	483.398	81.689	483.398	80.1903	483.398	81.1284	483.398	79.816	483.398	80.5014	483.398	79.4795	483.398	79.8378	483.398	79.1694	483.398	79.2297	483.398	78.8818	483.398	78.8284	483.398	78.6203	483.398	78.7717	483.398	78.403	483.398	79.0545	483.398	78.2763	483.398	79.4981	483.398	78.313	483.398	79.873	483.398	78.5678	483.398	80.0187	483.398	79.0085	483.398	79.8803	483.398	79.5018
499.512	83.8831	499.512	83.6238	499.512	83.9098	499.512	83.1573	499.512	83.7039	499.512	82.5312	499.512	83.2923	499.512	81.8074	499.512	82.7315	499.512	81.0509	499.512	82.1082	499.512	80.3215	499.512	81.5204	499.512	79.6658	499.512	81.0268	499.512	79.1139	499.512	80.6076	499.512	78.6819	499.512	80.197	499.512	78.3807	499.512	79.7671	499.512	78.2185	499.512	79.3789	499.512	78.1841	499.512	79.1516	499.512	78.2318	499.512	79.1571	499.512	78.3046	499.512	79.3356	499.512	78.3868	499.512	79.5307	499.512	78.528	499.512	79.5906	499.512	78.7869	499.512	79.4453	499.512	79.1349
517.09	84.2298	517.09	83.9576	517.09	84.2833	517.09	83.5086	517.09	84.1009	517.09	82.9391	517.09	83.6933	517.09	82.3035	517.09	83.0957	517.09	81.6412	517.09	82.3631	517.09	80.9702	517.09	81.5656	517.09	80.2928	517.09	80.7831	517.09	79.6079	517.09	80.0847	517.09	78.9291	517.09	79.5051	517.09	78.2995	517.09	79.0508	517.09	77.7928	517.09	78.7401	517.09	77.4788	517.09	78.6145	517.09	77.3654	517.09	78.6794	517.09	77.3824	517.09	78.842	517.09	77.4505	517.09	78.9458	517.09	77.5662	517.09	78.8658	517.09	77.7971	517.09	78.5762	517.09	78.1676
536.133	82.9778	536.133	82.6371	536.133	83.0932	536.133	82.1215	536.133	82.9615	536.133	81.499	536.133	82.596	536.133	80.8425	536.133	82.0511	536.133	80.2134	536.133	81.4201	536.133	79.6497	536.133	80.8084	536.133	79.1571	536.133	80.2776	536.133	78.7092	536.133	79.8129	536.133	78.2636	536.133	79.3642	536.133	77.7941	536.133	78.931	536.133	77.3265	536.133	78.6037	536.133	76.9455	536.133	78.5024	536.133	76.7393	536.133	78.6379	536.133	76.717	536.133	78.8611	536.133	76.8183	536.133	78.97	536.133	77.0192	536.133	78.8308	536.133	77.3695	536.133	78.43	536.133	77.8812
555.176	82.8146	555.176	82.488	555.176	82.9111	555.176	81.99	555.176	82.7432	555.176	81.3922	555.176	82.3067	555.176	80.7624	555.176	81.635	555.176	80.1495	555.176	80.8115	555.176	79.5774	555.176	79.9753	555.176	79.0504	555.176	79.2757	555.176	78.5658	555.176	78.7723	555.176	78.1248	555.176	78.3969	555.176	77.7304	555.176	78.0525	555.176	77.3722	555.176	77.7385	555.176	77.0216	555.176	77.5673	555.176	76.6568	555.176	77.6334	555.176	76.3021	555.176	77.8495	555.176	76.0463	555.176	77.9882	555.176	76.0163	555.176	77.864	555.176	76.2996	555.176	77.4407	555.176	76.8425
574.219	82.9509	574.219	82.5741	574.219	83.0621	574.219	81.996	574.219	82.8733	574.219	81.2994	574.219	82.3799	574.219	80.5642	574.219	81.6055	574.219	79.8459	574.219	80.6169	574.219	79.167	574.219	79.5563	574.219	78.5214	574.219	78.6355	574.219	77.8912	574.219	78.0092	574.219	77.2807	574.219	77.6356	574.219	76.753	574.219	77.3728	574.219	76.4196	574.219	77.1811	574.219	76.3317	574.219	77.1507	574.219	76.3779	574.219	77.333	574.219	76.3611	574.219	77.5998	574.219	76.1788	574.219	77.7243	574.219	75.9455	574.219	77.5409	574.219	75.9591	574.219	77.0349	574.219	76.3922
594.727	82.5627	594.727	82.1145	594.727	82.7968	594.727	81.5187	594.727	82.7733	594.727	80.8519	594.727	82.4691	594.727	80.1799	594.727	81.8714	594.727	79.5472	594.727	80.9833	594.727	78.9793	594.727	79.8627	594.727	78.4831	594.727	78.6766	594.727	78.043	594.727	77.6826	594.727	77.6253	594.727	77.0448	594.727	77.2009	594.727	76.6931	594.727	76.7811	594.727	76.4912	594.727	76.4364	594.727	76.4219	594.727	76.2501	594.727	76.5065	594.727	76.2124	594.727	76.6382	594.727	76.1881	594.727	76.6211	594.727	76.0447	594.727	76.3559	594.727	75.8172	594.727	75.9639	594.727	75.7335
615.234	82.5783	615.234	82.132	615.234	82.8105	615.234	81.5433	615.234	82.7879	615.234	80.885	615.234	82.5104	615.234	80.2076	615.234	82.007	615.234	79.5376	615.234	81.3203	615.234	78.886	615.234	80.508	615.234	78.2497	615.234	79.6521	615.234	77.6148	615.234	78.8314	615.234	76.9779	615.234	78.0579	615.234	76.376	615.234	77.2767	615.234	75.8966	615.234	76.4926	615.234	75.6386	615.234	75.91	615.234	75.6216	615.234	75.8039	615.234	75.7347	615.234	76.1095	615.234	75.818	615.234	76.4396	615.234	75.8104	615.234	76.5062	615.234	75.8155	615.234	76.2906	615.234	75.9855
637.207	82.3559	637.207	82.0993	637.207	82.3639	637.207	81.6178	637.207	82.1248	637.207	80.9545	637.207	81.6716	637.207	80.1794	637.207	81.0633	637.207	79.3987	637.207	80.3713	637.207	78.7311	637.207	79.6746	637.207	78.2358	637.207	79.0534	637.207	77.8577	637.207	78.5526	637.207	77.4698	637.207	78.1418	637.207	76.9788	637.207	77.7474	637.207	76.4201	637.207	77.3474	637.207	75.9892	637.207	77.0373	637.207	75.9068	637.207	76.9703	637.207	76.1582	637.207	77.161	637.207	76.5011	637.207	77.4091	637.207	76.7487	637.207	77.4912	637.207	76.9144	637.207	77.3518	637.207	77.1121
659.18	83.6311	659.18	83.2769	659.18	83.7076	659.18	82.6873	659.18	83.4714	659.18	81.9089	659.18	82.8947	659.18	80.9875	659.18	81.9673	659.18	79.9735	659.18	80.7457	659.18	78.9392	659.18	79.4417	659.18	77.9915	659.18	78.4229	659.18	77.2437	659.18	77.9119	659.18	76.7313	659.18	77.7341	659.18	76.3736	659.18	77.6098	659.18	76.0678	659.18	77.45	659.18	75.8002	659.18	77.3289	659.18	75.612	659.18	77.3364	659.18	75.4762	659.18	77.4535	659.18	75.3123	659.18	77.5173	659.18	75.1729	659.18	77.3128	659.18	75.3286	659.18	76.7372	659.18	75.9426
682.617	83.5649	682.617	83.2348	682.617	83.5722	682.617	82.6139	682.617	83.277	682.617	81.7753	682.617	82.7312	682.617	80.818	682.617	81.9629	682.617	79.8548	682.617	80.9601	682.617	78.986	682.617	79.7718	682.617	78.2599	682.617	78.6611	682.617	77.6576	682.617	78.0092	682.617	77.1263	682.617	77.8458	682.617	76.6186	682.617	77.807	682.617	76.1137	682.617	77.6329	682.617	75.6684	682.617	77.383	682.617	75.4735	682.617	77.2989	682.617	75.6662	682.617	77.4458	682.617	76.0153	682.617	77.5348	682.617	76.1458	682.617	77.2493	682.617	76.0277	682.617	76.6158	682.617	76.0856
707.52	84.4889	707.52	84.1527	707.52	84.469	707.52	83.4885	707.52	84.091	707.52	82.5397	707.52	83.3797	707.52	81.3657	707.52	82.3689	707.52	80.0592	707.52	81.1005	707.52	78.7662	707.52	79.7041	707.52	77.6673	707.52	78.5093	707.52	76.8852	707.52	77.8833	707.52	76.3806	707.52	77.7661	707.52	75.9978	707.52	77.7632	707.52	75.6256	707.52	77.6426	707.52	75.2857	707.52	77.4718	707.52	75.1042	707.52	77.4527	707.52	75.2091	707.52	77.6147	707.52	75.5651	707.52	77.7139	707.52	75.9553	707.52	77.5138	707.52	76.2473	707.52	77.0428	707.52	76.5653
732.422	85.4023	732.422	84.8377	732.422	85.5171	732.422	83.8944	732.422	85.1755	732.422	82.6909	732.422	84.4304	732.422	81.3683	732.422	83.3463	732.422	80.0659	732.422	81.9432	732.422	78.8951	732.422	80.2606	732.422	77.9235	732.422	78.6179	732.422	77.1793	732.422	77.6866	732.422	76.658	732.422	77.6309	732.422	76.3131	732.422	77.8103	732.422	76.0682	732.422	77.7983	732.422	75.8642	732.422	77.6817	732.422	75.6903	732.422	77.7341	732.422	75.5699	732.422	77.9774	732.422	75.5193	732.422	78.1012	732.422	75.5422	732.422	77.8108	732.422	75.7306	732.422	77.0944	732.422	76.2685
757.324	86.0168	757.324	85.3579	757.324	86.1775	757.324	84.2584	757.324	85.837	757.324	82.8184	757.324	85.0599	757.324	81.1951	757.324	83.9348	757.324	79.6159	757.324	82.4827	757.324	78.3324	757.324	80.6768	757.324	77.5012	757.324	78.7433	757.324	77.0644	757.324	77.5098	757.324	76.7901	757.324	77.5384	757.324	76.4984	757.324	78.1104	757.324	76.2089	757.324	78.5191	757.324	76.0201	757.324	78.6278	757.324	75.9156	757.324	78.5577	757.324	75.8532	757.324	78.4282	757.324	75.8719	757.324	78.1422	757.324	75.9129	757.324	77.4874	757.324	75.8603	757.324	76.5695	757.324	75.9439
785.156	86.5794	785.156	85.7211	785.156	86.9144	785.156	84.4564	785.156	86.6792	785.156	82.988	785.156	85.894	785.156	81.5724	785.156	84.6393	785.156	80.3678	785.156	82.9967	785.156	79.3147	785.156	80.965	785.156	78.2768	785.156	78.5833	785.156	77.2656	785.156	76.5606	785.156	76.4515	785.156	76.2483	785.156	75.9317	785.156	77.0783	785.156	75.6503	785.156	77.7141	785.156	75.5964	785.156	77.9621	785.156	75.7312	785.156	78.2055	785.156	75.8134	785.156	78.6389	785.156	75.6816	785.156	78.9531	785.156	75.56	785.156	78.7609	785.156	75.9029	785.156	77.9693	785.156	76.842
811.523	86.4693	811.523	85.4908	811.523	86.8899	811.523	84.1374	811.523	86.7314	811.523	82.7311	811.523	86.1053	811.523	81.5643	811.523	85.161	811.523	80.6672	811.523	83.9092	811.523	79.8507	811.523	82.1473	811.523	78.9248	811.523	79.6386	811.523	77.7914	811.523	76.6381	811.523	76.5182	811.523	75.053	811.523	75.4644	811.523	76.0555	811.523	75.0119	811.523	77.4821	811.523	75.0368	811.523	78.3551	811.523	75.3646	811.523	78.729	811.523	76.0042	811.523	78.791	811.523	76.541	811.523	78.5673	811.523	76.4352	811.523	77.8886	811.523	75.7907	811.523	76.7091	811.523	75.6813
840.82	86.2785	840.82	84.9338	840.82	87.1181	840.82	83.4793	840.82	87.271	840.82	82.396	840.82	86.745	840.82	81.8599	840.82	85.7037	840.82	81.6276	840.82	84.3557	840.82	81.402	840.82	82.7378	840.82	81.0284	840.82	80.6773	840.82	80.4035	840.82	78.1192	840.82	79.3633	840.82	75.7093	840.82	77.747	840.82	74.7854	840.82	75.791	840.82	75.3176	840.82	74.6038	840.82	76.3915	840.82	74.6552	840.82	77.623	840.82	74.8809	840.82	78.5594	840.82	74.9803	840.82	78.6657	840.82	75.1755	840.82	77.6802	840.82	75.179	840.82	76.0214	840.82	75.0865
870.117	86.0922	870.117	84.8203	870.117	86.9823	870.117	83.5604	870.117	87.3118	870.117	82.8074	870.117	87.0485	870.117	82.627	870.117	86.2728	870.117	82.6386	870.117	85.1147	870.117	82.5899	870.117	83.6174	870.117	82.4188	870.117	81.6639	870.117	82.0169	870.117	79.1296	870.117	81.1784	870.117	76.4327	870.117	79.7041	870.117	75.2812	870.117	77.6172	870.117	75.987	870.117	75.8559	870.117	76.7878	870.117	76.0414	870.117	77.3285	870.117	77.14	870.117	77.8789	870.117	77.4454	870.117	78.1689	870.117	76.5113	870.117	77.705	870.117	74.8818	870.117	76.3041	870.117	74.6676
900.879	86.2721	900.879	85.1375	900.879	87.1491	900.879	84.4294	900.879	87.4115	900.879	84.3508	900.879	87.0606	900.879	84.3162	900.879	86.2917	900.879	83.8838	900.879	85.3346	900.879	83.1159	900.879	84.2572	900.879	82.3755	900.879	82.9169	900.879	81.92	900.879	81.1424	900.879	81.5949	900.879	79.0044	900.879	81.0127	900.879	77.082	900.879	79.7956	900.879	76.0278	900.879	77.6064	900.879	75.7717	900.879	74.7551	900.879	76.3973	900.879	74.7445	900.879	77.6581	900.879	77.341	900.879	78.3052	900.879	78.5947	900.879	77.3998	900.879	77.7678	900.879	75.2103	900.879	75.4042
933.105	86.3545	933.105	85.6531	933.105	87.0336	933.105	85.3899	933.105	87.2337	933.105	85.3854	933.105	86.8313	933.105	85.0908	933.105	85.9462	933.105	84.2178	933.105	84.7918	933.105	82.8812	933.105	83.5606	933.105	81.603	933.105	82.4253	933.105	81.0225	933.105	81.5479	933.105	81.1364	933.105	80.9208	933.105	81.3144	933.105	80.3123	933.105	80.9356	933.105	79.4464	933.105	79.5174	933.105	78.1467	933.105	76.7835	933.105	76.7978	933.105	74.465	933.105	76.6841	933.105	76.1738	933.105	77.3041	933.105	78.0254	933.105	76.92	933.105	77.9842	933.105	75.8186	933.105	76.4748
965.332	86.8412	965.332	86.0627	965.332	87.6618	965.332	85.7195	965.332	87.9089	965.332	85.528	965.332	87.3187	965.332	85.0706	965.332	86.0669	965.332	84.1849	965.332	84.6251	965.332	82.8939	965.332	83.2018	965.332	81.3549	965.332	81.4373	965.332	79.8929	965.332	79.1541	965.332	78.8626	965.332	77.5075	965.332	78.3329	965.332	77.8062	965.332	78.2372	965.332	78.6078	965.332	78.306	965.332	78.8501	965.332	77.6574	965.332	78.6144	965.332	75.5578	965.332	78.2222	965.332	74.2964	965.332	77.5012	965.332	76.8726	965.332	75.9734	965.332	78.4428	965.332	75.5484	965.332	77.5897
1,000.49	86.8997	1,000.49	86.2456	1,000.49	87.6339	1,000.49	85.9668	1,000.49	87.9339	1,000.49	85.8346	1,000.49	87.4973	1,000.49	85.4323	1,000.49	86.3744	1,000.49	84.5337	1,000.49	84.9278	1,000.49	83.1853	1,000.49	83.4723	1,000.49	81.6576	1,000.49	81.8032	1,000.49	80.3342	1,000.49	79.4295	1,000.49	79.5288	1,000.49	76.607	1,000.49	79.134	1,000.49	75.9883	1,000.49	78.6204	1,000.49	77.593	1,000.49	77.8046	1,000.49	78.3905	1,000.49	77.2396	1,000.49	77.8803	1,000.49	77.0198	1,000.49	77.1552	1,000.49	76.4711	1,000.49	77.0407	1,000.49	76.316	1,000.49	76.8943	1,000.49	77.3595	1,000.49	77.2455	1,000.49	77.8546
1,035.64	86.7886	1,035.64	86.2259	1,035.64	87.7619	1,035.64	86.4583	1,035.64	88.187	1,035.64	86.6722	1,035.64	87.6911	1,035.64	86.1956	1,035.64	86.4841	1,035.64	84.8381	1,035.64	85.135	1,035.64	82.6253	1,035.64	83.955	1,035.64	79.7631	1,035.64	82.6015	1,035.64	77.103	1,035.64	80.8339	1,035.64	76.5353	1,035.64	79.2466	1,035.64	77.6388	1,035.64	78.6404	1,035.64	78.2452	1,035.64	78.5643	1,035.64	77.824	1,035.64	78.2587	1,035.64	77.2471	1,035.64	77.6825	1,035.64	77.2092	1,035.64	77.4699	1,035.64	76.7813	1,035.64	77.4588	1,035.64	76.2286	1,035.64	76.97	1,035.64	77.0641	1,035.64	77.1219	1,035.64	77.6871
1,072.27	87.2918	1,072.27	87.1512	1,072.27	87.9141	1,072.27	87.3672	1,072.27	88.288	1,072.27	87.223	1,072.27	87.8768	1,072.27	86.3379	1,072.27	86.6749	1,072.27	84.7206	1,072.27	85.1089	1,072.27	82.6821	1,072.27	83.6903	1,072.27	80.835	1,072.27	82.2571	1,072.27	79.8501	1,072.27	80.0563	1,072.27	79.5315	1,072.27	77.0098	1,072.27	78.8193	1,072.27	76.1459	1,072.27	77.3412	1,072.27	77.9789	1,072.27	76.0365	1,072.27	78.888	1,072.27	75.6172	1,072.27	78.3929	1,072.27	75.6223	1,072.27	77.4609	1,072.27	76.0518	1,072.27	77.1814	1,072.27	76.7762	1,072.27	77.1993	1,072.27	77.2983	1,072.27	77.2425	1,072.27	77.3923
1,108.89	87.3548	1,108.89	87.5404	1,108.89	87.9567	1,108.89	87.7644	1,108.89	88.656	1,108.89	87.2852	1,108.89	88.4797	1,108.89	86.0549	1,108.89	87.2224	1,108.89	84.4109	1,108.89	85.5	1,108.89	82.7264	1,108.89	84.3179	1,108.89	81.0692	1,108.89	83.3209	1,108.89	79.4931	1,108.89	81.2683	1,108.89	78.5359	1,108.89	77.8381	1,108.89	78.0985	1,108.89	75.9063	1,108.89	77.3278	1,108.89	77.6526	1,108.89	76.0102	1,108.89	79.0218	1,108.89	74.7887	1,108.89	78.9585	1,108.89	74.9308	1,108.89	78.2246	1,108.89	76.0162	1,108.89	77.5988	1,108.89	76.686	1,108.89	76.6563	1,108.89	77.0113	1,108.89	76.3412	1,108.89	76.9457
1,148.44	87.4691	1,148.44	87.848	1,148.44	87.8169	1,148.44	88.0206	1,148.44	88.5111	1,148.44	87.3912	1,148.44	88.496	1,148.44	86.1028	1,148.44	87.3614	1,148.44	84.6176	1,148.44	85.4351	1,148.44	83.1597	1,148.44	83.7727	1,148.44	81.4949	1,148.44	82.7204	1,148.44	79.642	1,148.44	80.9735	1,148.44	78.6782	1,148.44	77.4856	1,148.44	78.6481	1,148.44	74.8526	1,148.44	77.877	1,148.44	77.615	1,148.44	76.0977	1,148.44	79.3742	1,148.44	75.3706	1,148.44	78.8711	1,148.44	76.1925	1,148.44	77.5213	1,148.44	76.4426	1,148.44	76.9075	1,148.44	76.3792	1,148.44	76.1827	1,148.44	76.7994	1,148.44	75.9004	1,148.44	76.6595
1,189.45	87.6718	1,189.45	87.7096	1,189.45	87.6006	1,189.45	87.3614	1,189.45	87.8872	1,189.45	86.5875	1,189.45	88.0095	1,189.45	85.4691	1,189.45	87.0776	1,189.45	84.1169	1,189.45	84.9369	1,189.45	82.5401	1,189.45	82.9044	1,189.45	80.5125	1,189.45	82.4194	1,189.45	77.682	1,189.45	81.6051	1,189.45	75.2122	1,189.45	78.3454	1,189.45	76.3717	1,189.45	71.0727	1,189.45	77.8836	1,189.45	73.249	1,189.45	77.2955	1,189.45	77.3398	1,189.45	74.6783	1,189.45	78.0716	1,189.45	74.5656	1,189.45	77.3165	1,189.45	76.9872	1,189.45	76.5236	1,189.45	77.3692	1,189.45	76.1218	1,189.45	76.5959	1,189.45	76.3833	1,189.45	76.5038
1,230.47	86.5563	1,230.47	86.5527	1,230.47	86.7725	1,230.47	86.415	1,230.47	86.996	1,230.47	85.8661	1,230.47	86.7764	1,230.47	84.9737	1,230.47	85.8414	1,230.47	83.8089	1,230.47	84.0909	1,230.47	82.1908	1,230.47	81.938	1,230.47	79.8031	1,230.47	80.8214	1,230.47	76.1478	1,230.47	80.6433	1,230.47	69.7409	1,230.47	79.1349	1,230.47	69.9928	1,230.47	74.1343	1,230.47	76.2074	1,230.47	65.1454	1,230.47	78.0558	1,230.47	73.4408	1,230.47	76.2307	1,230.47	75.747	1,230.47	73.1811	1,230.47	75.3242	1,230.47	76.4882	1,230.47	75.1653	1,230.47	77.9666	1,230.47	74.9688	1,230.47	76.6752	1,230.47	74.4201	1,230.47	74.9313
1,274.41	85.9614	1,274.41	86.1462	1,274.41	86.2351	1,274.41	86.1167	1,274.41	86.5928	1,274.41	85.2994	1,274.41	86.3048	1,274.41	83.7126	1,274.41	85.2124	1,274.41	81.8319	1,274.41	83.4602	1,274.41	80.3538	1,274.41	81.1987	1,274.41	79.6371	1,274.41	79.2674	1,274.41	79.2528	1,274.41	79.1435	1,274.41	78.0482	1,274.41	79.2696	1,274.41	73.9329	1,274.41	77.3817	1,274.41	63.2226	1,274.41	72.3259	1,274.41	73.712	1,274.41	69.8186	1,274.41	76.1541	1,274.41	71.7987	1,274.41	71.7989	1,274.41	71.6544	1,274.41	71.2695	1,274.41	71.8441	1,274.41	77.3774	1,274.41	71.7331	1,274.41	77.6255	1,274.41	71.9903	1,274.41	74.6424
1,319.82	86.0532	1,319.82	86.5842	1,319.82	85.7884	1,319.82	86.2752	1,319.82	86.2079	1,319.82	84.76	1,319.82	86.3483	1,319.82	82.3226	1,319.82	85.4934	1,319.82	79.6502	1,319.82	83.575	1,319.82	77.4688	1,319.82	81.3072	1,319.82	76.0063	1,319.82	80.0095	1,319.82	74.7691	1,319.82	79.4258	1,319.82	73.341	1,319.82	78.5403	1,319.82	72.1501	1,319.82	76.8313	1,319.82	70.3828	1,319.82	73.8666	1,319.82	69.8033	1,319.82	72.8424	1,319.82	74.2254	1,319.82	74.1128	1,319.82	75.2579	1,319.82	73.888	1,319.82	71.3019	1,319.82	73.6828	1,319.82	74.2323	1,319.82	72.5989	1,319.82	77.6293	1,319.82	72.313	1,319.82	76.3778
1,366.7	86.2592	1,366.7	86.8386	1,366.7	85.8701	1,366.7	86.5288	1,366.7	86.1554	1,366.7	85.0304	1,366.7	86.3238	1,366.7	82.744	1,366.7	85.8253	1,366.7	80.5786	1,366.7	84.4391	1,366.7	79.3852	1,366.7	82.1399	1,366.7	79.0738	1,366.7	79.8578	1,366.7	79.1428	1,366.7	78.9514	1,366.7	78.7087	1,366.7	78.2485	1,366.7	76.5109	1,366.7	76.0111	1,366.7	72.088	1,366.7	72.1812	1,366.7	69.9506	1,366.7	72.7779	1,366.7	72.0661	1,366.7	73.9564	1,366.7	73.6269	1,366.7	72.3405	1,366.7	72.2374	1,366.7	71.6764	1,366.7	72.3027	1,366.7	70.8125	1,366.7	76.294	1,366.7	72.5963	1,366.7	76.4749
1,413.57	86.2073	1,413.57	86.9758	1,413.57	85.459	1,413.57	86.3843	1,413.57	85.777	1,413.57	84.2427	1,413.57	86.0522	1,413.57	81.5427	1,413.57	85.547	1,413.57	80.1658	1,413.57	84.1614	1,413.57	80.1897	1,413.57	81.7693	1,413.57	80.2381	1,413.57	79.4123	1,413.57	79.9392	1,413.57	79.4983	1,413.57	79.9539	1,413.57	79.7216	1,413.57	79.3361	1,413.57	77.8782	1,413.57	76.4449	1,413.57	73.7139	1,413.57	72.5742	1,413.57	70.0836	1,413.57	72.7924	1,413.57	71.8031	1,413.57	73.2023	1,413.57	72.5737	1,413.57	73.1769	1,413.57	71.5855	1,413.57	72.984	1,413.57	68.6519	1,413.57	74.7777	1,413.57	72.0493	1,413.57	75.6964
1,463.38	86.8281	1,463.38	87.0928	1,463.38	85.7433	1,463.38	85.7892	1,463.38	85.5788	1,463.38	83.3763	1,463.38	85.7953	1,463.38	81.5759	1,463.38	85.1196	1,463.38	81.5191	1,463.38	83.552	1,463.38	81.6754	1,463.38	81.3232	1,463.38	80.981	1,463.38	78.5431	1,463.38	79.369	1,463.38	76.4839	1,463.38	78.2883	1,463.38	76.8684	1,463.38	78.299	1,463.38	77.2286	1,463.38	77.4822	1,463.38	75.435	1,463.38	75.7459	1,463.38	72.9159	1,463.38	75.3546	1,463.38	72.4752	1,463.38	74.6364	1,463.38	69.6278	1,463.38	71.5217	1,463.38	67.3988	1,463.38	71.8002	1,463.38	66.135	1,463.38	74.6553	1,463.38	72.5486	1,463.38	75.4246
1,516.11	87.7295	1,516.11	87.6534	1,516.11	86.5182	1,516.11	85.7548	1,516.11	85.8024	1,516.11	83.3274	1,516.11	85.738	1,516.11	82.719	1,516.11	85.0532	1,516.11	82.8714	1,516.11	83.5765	1,516.11	82.5082	1,516.11	81.7213	1,516.11	81.412	1,516.11	79.4417	1,516.11	79.3049	1,516.11	76.655	1,516.11	76.9725	1,516.11	76.691	1,516.11	76.1331	1,516.11	78.1857	1,516.11	75.5331	1,516.11	77.4757	1,516.11	74.9338	1,516.11	75.5425	1,516.11	75.2322	1,516.11	73.5951	1,516.11	74.7433	1,516.11	66.0082	1,516.11	73.3918	1,516.11	66.8074	1,516.11	72.387	1,516.11	67.0837	1,516.11	74.0681	1,516.11	73.1353	1,516.11	75.6101
1,568.85	88.0005	1,568.85	87.6362	1,568.85	86.9583	1,568.85	85.8459	1,568.85	86.1769	1,568.85	84.5848	1,568.85	85.9744	1,568.85	84.383	1,568.85	85.3664	1,568.85	83.676	1,568.85	84.3108	1,568.85	82.5012	1,568.85	82.5752	1,568.85	81.7702	1,568.85	79.7329	1,568.85	80.5891	1,568.85	77.1162	1,568.85	78.5282	1,568.85	76.102	1,568.85	77.543	1,568.85	75.0586	1,568.85	75.9074	1,568.85	74.5362	1,568.85	71.7357	1,568.85	74.5672	1,568.85	74.0255	1,568.85	74.9168	1,568.85	74.6714	1,568.85	71.4778	1,568.85	73.3385	1,568.85	62.3797	1,568.85	73.3052	1,568.85	64.2112	1,568.85	74.0182	1,568.85	74.5695	1,568.85	76.7365
1,624.51	87.7212	1,624.51	87.1806	1,624.51	86.807	1,624.51	85.8517	1,624.51	85.9624	1,624.51	85.1794	1,624.51	86.4087	1,624.51	85.5249	1,624.51	86.0284	1,624.51	85.5308	1,624.51	84.1546	1,624.51	84.1685	1,624.51	82.3757	1,624.51	82.0482	1,624.51	81.0247	1,624.51	79.7337	1,624.51	78.5685	1,624.51	75.946	1,624.51	76.8745	1,624.51	76.2949	1,624.51	77.08	1,624.51	78.1908	1,624.51	75.801	1,624.51	74.2512	1,624.51	73.9641	1,624.51	69.5529	1,624.51	75.2492	1,624.51	75.7617	1,624.51	73.0444	1,624.51	73.2214	1,624.51	61.017	1,624.51	72.0789	1,624.51	62.9234	1,624.51	73.8484	1,624.51	73.8546	1,624.51	74.867
1,681.64	87.7613	1,681.64	87.018	1,681.64	86.8059	1,681.64	85.476	1,681.64	85.3982	1,681.64	85.6567	1,681.64	85.8585	1,681.64	86.9501	1,681.64	86.1737	1,681.64	86.8337	1,681.64	84.2751	1,681.64	84.9261	1,681.64	81.365	1,681.64	81.746	1,681.64	81.2787	1,681.64	79.1146	1,681.64	80.844	1,681.64	77.4405	1,681.64	78.2941	1,681.64	74.9683	1,681.64	77.8234	1,681.64	77.4116	1,681.64	78.1958	1,681.64	78.2437	1,681.64	76.4055	1,681.64	71.2057	1,681.64	75.4111	1,681.64	74.0728	1,681.64	71.1785	1,681.64	76.3563	1,681.64	58.7655	1,681.64	70.5125	1,681.64	60.5401	1,681.64	74.3501	1,681.64	69.6248	1,681.64	74.124
1,741.7	87.9527	1,741.7	86.7324	1,741.7	87.3844	1,741.7	85.8206	1,741.7	85.6732	1,741.7	86.8995	1,741.7	85.3093	1,741.7	87.0492	1,741.7	85.817	1,741.7	84.8336	1,741.7	84.5551	1,741.7	81.1829	1,741.7	81.0309	1,741.7	79.0683	1,741.7	78.8046	1,741.7	78.3022	1,741.7	79.6062	1,741.7	75.062	1,741.7	78.3506	1,741.7	67.475	1,741.7	76.7088	1,741.7	74.6886	1,741.7	77.7734	1,741.7	77.9456	1,741.7	76.4086	1,741.7	73.2345	1,741.7	73.9886	1,741.7	70.021	1,741.7	68.6366	1,741.7	77.3813	1,741.7	52.9822	1,741.7	72.5801	1,741.7	61.4629	1,741.7	71.4945	1,741.7	72.9706	1,741.7	76.1084
1,803.22	87.6347	1,803.22	86.5522	1,803.22	87.1428	1,803.22	86.1581	1,803.22	85.681	1,803.22	86.7945	1,803.22	84.8948	1,803.22	86.0626	1,803.22	84.7045	1,803.22	83.5364	1,803.22	83.8708	1,803.22	80.1351	1,803.22	81.3861	1,803.22	75.5712	1,803.22	77.3538	1,803.22	66.3903	1,803.22	78.2944	1,803.22	67.4644	1,803.22	79.3639	1,803.22	70.0394	1,803.22	77.8014	1,803.22	61.6704	1,803.22	77.2268	1,803.22	77.4739	1,803.22	75.6202	1,803.22	78.5665	1,803.22	70.1299	1,803.22	65.8107	1,803.22	56.654	1,803.22	75.1355	1,803.22	63.0914	1,803.22	75.9347	1,803.22	68.2335	1,803.22	65.8705	1,803.22	75.423	1,803.22	75.4647
1,866.21	86.1852	1,866.21	85.542	1,866.21	85.8415	1,866.21	85.9767	1,866.21	84.7323	1,866.21	86.3232	1,866.21	84.2941	1,866.21	84.7231	1,866.21	84.0451	1,866.21	81.268	1,866.21	82.8981	1,866.21	77.5964	1,866.21	80.46	1,866.21	75.9315	1,866.21	76.1669	1,866.21	76.1694	1,866.21	74.6598	1,866.21	74.9944	1,866.21	77.3672	1,866.21	73.9322	1,866.21	77.245	1,866.21	73.4209	1,866.21	76.729	1,866.21	66.7421	1,866.21	75.9394	1,866.21	76.8398	1,866.21	71.3642	1,866.21	73.9361	1,866.21	64.698	1,866.21	68.2237	1,866.21	64.2656	1,866.21	76.1315	1,866.21	68.4742	1,866.21	68.9004	1,866.21	74.944	1,866.21	72.9595
1,932.13	84.6735	1,932.13	84.0552	1,932.13	84.8186	1,932.13	84.9115	1,932.13	83.4783	1,932.13	84.6026	1,932.13	82.826	1,932.13	81.9642	1,932.13	82.5248	1,932.13	79.1716	1,932.13	81.0918	1,932.13	77.6739	1,932.13	78.69	1,932.13	75.4631	1,932.13	74.0279	1,932.13	74.4612	1,932.13	68.7341	1,932.13	74.1391	1,932.13	73.8078	1,932.13	70.454	1,932.13	74.0498	1,932.13	71.9281	1,932.13	74.0053	1,932.13	67.6105	1,932.13	74.4564	1,932.13	69.41	1,932.13	70.6792	1,932.13	74.7581	1,932.13	69.4194	1,932.13	60.4683	1,932.13	66.9596	1,932.13	74.2495	1,932.13	67.8686	1,932.13	71.8938	1,932.13	72.3366	1,932.13	67.3362
1,999.51	83.7751	1,999.51	84.0528	1,999.51	83.9874	1,999.51	84.1319	1,999.51	82.8442	1,999.51	82.3346	1,999.51	81.1183	1,999.51	79.6584	1,999.51	80.2823	1,999.51	77.5978	1,999.51	78.4308	1,999.51	75.7324	1,999.51	75.7038	1,999.51	73.9382	1,999.51	73.7694	1,999.51	72.8962	1,999.51	68.0154	1,999.51	74.3344	1,999.51	70.1294	1,999.51	72.4408	1,999.51	73.3213	1,999.51	69.77	1,999.51	69.7549	1,999.51	71.0586	1,999.51	71.081	1,999.51	58.3426	1,999.51	70.4104	1,999.51	70.4981	1,999.51	65.9533	1,999.51	65.5495	1,999.51	57.5472	1,999.51	70.1762	1,999.51	66.6455	1,999.51	71.9936	1,999.51	71.1065	1,999.51	57.2782
2,069.82	83.1413	2,069.82	83.9675	2,069.82	82.6396	2,069.82	83.4171	2,069.82	82.6925	2,069.82	80.8658	2,069.82	82.0102	2,069.82	77.7654	2,069.82	80.7296	2,069.82	76.6795	2,069.82	79.2891	2,069.82	76.0519	2,069.82	76.1423	2,069.82	74.2898	2,069.82	72.5886	2,069.82	69.8041	2,069.82	70.5672	2,069.82	70.1844	2,069.82	67.4333	2,069.82	70.3428	2,069.82	72.5607	2,069.82	64.2104	2,069.82	70.5792	2,069.82	68.8432	2,069.82	70.6579	2,069.82	66.7214	2,069.82	69.2334	2,069.82	68.2098	2,069.82	64.06	2,069.82	68.2526	2,069.82	61.6179	2,069.82	60.3849	2,069.82	62.5839	2,069.82	70.6566	2,069.82	67.884	2,069.82	61.9158
2,143.07	83.6933	2,143.07	83.6632	2,143.07	82.7757	2,143.07	82.6873	2,143.07	82.3444	2,143.07	80.7275	2,143.07	82.3041	2,143.07	79.1761	2,143.07	80.8522	2,143.07	77.922	2,143.07	79.1409	2,143.07	75.814	2,143.07	76.6628	2,143.07	72.4814	2,143.07	71.6272	2,143.07	66.3895	2,143.07	69.3338	2,143.07	57.3829	2,143.07	65.1231	2,143.07	63.4392	2,143.07	69.6451	2,143.07	61.8427	2,143.07	71.0961	2,143.07	62.4428	2,143.07	67.2134	2,143.07	66.394	2,143.07	67.6682	2,143.07	64.4474	2,143.07	63.9025	2,143.07	69.7545	2,143.07	59.5076	2,143.07	55.282	2,143.07	59.9977	2,143.07	69.0655	2,143.07	60.5445	2,143.07	66.3154
2,219.24	84.9868	2,219.24	84.1094	2,219.24	84.3551	2,219.24	83.267	2,219.24	81.9066	2,219.24	81.9189	2,219.24	81.6235	2,219.24	79.7926	2,219.24	81.5384	2,219.24	76.2838	2,219.24	79.7907	2,219.24	73.2273	2,219.24	76.9941	2,219.24	70.6206	2,219.24	71.9836	2,219.24	70.6285	2,219.24	67.299	2,219.24	69.87	2,219.24	68.0347	2,219.24	66.2092	2,219.24	62.0277	2,219.24	70.226	2,219.24	70.329	2,219.24	64.1641	2,219.24	69.6326	2,219.24	68.1764	2,219.24	67.9555	2,219.24	56.951	2,219.24	67.4784	2,219.24	70.1962	2,219.24	65.1393	2,219.24	66.09	2,219.24	58.1961	2,219.24	70.1369	2,219.24	55.2517	2,219.24	70.5776
2,296.88	85.0643	2,296.88	85.0714	2,296.88	85.443	2,296.88	85.3617	2,296.88	84.0257	2,296.88	83.801	2,296.88	82.6573	2,296.88	80.3312	2,296.88	82.9196	2,296.88	78.8277	2,296.88	82.1782	2,296.88	77.9968	2,296.88	80.2375	2,296.88	75.2852	2,296.88	77.5436	2,296.88	74.1124	2,296.88	73.2454	2,296.88	74.2496	2,296.88	73.0321	2,296.88	71.2534	2,296.88	68.8258	2,296.88	72.0816	2,296.88	70.3543	2,296.88	67.86	2,296.88	73.9643	2,296.88	71.5124	2,296.88	69.8371	2,296.88	68.234	2,296.88	70.5042	2,296.88	72.0852	2,296.88	69.5367	2,296.88	71.8437	2,296.88	64.5994	2,296.88	70.1907	2,296.88	61.9441	2,296.88	73.3585
2,378.91	86.7089	2,378.91	87.6218	2,378.91	86.7512	2,378.91	87.6463	2,378.91	85.4278	2,378.91	84.6749	2,378.91	84.6746	2,378.91	83.7015	2,378.91	85.1596	2,378.91	83.6747	2,378.91	84.6624	2,378.91	81.4546	2,378.91	82.8912	2,378.91	78.0498	2,378.91	80.5893	2,378.91	73.5877	2,378.91	77.9249	2,378.91	73.737	2,378.91	76.1913	2,378.91	69.6283	2,378.91	75.3618	2,378.91	69.0219	2,378.91	72.8992	2,378.91	69.1024	2,378.91	77.3742	2,378.91	74.5581	2,378.91	73.4997	2,378.91	72.4361	2,378.91	72.4594	2,378.91	73.9375	2,378.91	68.892	2,378.91	74.7836	2,378.91	58.3244	2,378.91	71.1713	2,378.91	63.8854	2,378.91	76.516
2,462.4	86.6517	2,462.4	88.6659	2,462.4	87.3034	2,462.4	87.4767	2,462.4	86.4462	2,462.4	85.3571	2,462.4	84.5488	2,462.4	85.7197	2,462.4	86.1965	2,462.4	83.8888	2,462.4	86.1717	2,462.4	81.9481	2,462.4	84.4422	2,462.4	79.1718	2,462.4	82.5237	2,462.4	74.6049	2,462.4	78.0707	2,462.4	72.9475	2,462.4	78.7868	2,462.4	73.7211	2,462.4	78.6856	2,462.4	71.5069	2,462.4	78.2361	2,462.4	72.0222	2,462.4	76.7939	2,462.4	70.5737	2,462.4	75.8127	2,462.4	75.1238	2,462.4	71.4938	2,462.4	71.5868	2,462.4	70.8265	2,462.4	77.2473	2,462.4	60.8962	2,462.4	72.975	2,462.4	67.9944	2,462.4	78.5035
2,548.83	83.4686	2,548.83	85.2458	2,548.83	81.9382	2,548.83	83.7965	2,548.83	83.9823	2,548.83	84.6429	2,548.83	83.5595	2,548.83	85.0372	2,548.83	84.4232	2,548.83	83.3064	2,548.83	85.3163	2,548.83	76.971	2,548.83	83.674	2,548.83	77.0523	2,548.83	82.0012	2,548.83	78.4402	2,548.83	79.1455	2,548.83	73.5394	2,548.83	76.9507	2,548.83	75.0583	2,548.83	76.911	2,548.83	70.7448	2,548.83	77.1833	2,548.83	73.3417	2,548.83	76.9095	2,548.83	64.792	2,548.83	73.8926	2,548.83	74.8928	2,548.83	71.6627	2,548.83	69.1513	2,548.83	70.945	2,548.83	76.8664	2,548.83	48.567	2,548.83	69.7321	2,548.83	60.8277	2,548.83	75.9332
2,639.65	83.8178	2,639.65	84.1048	2,639.65	82.548	2,639.65	84.1793	2,639.65	82.6682	2,639.65	84.8659	2,639.65	84.1086	2,639.65	84.4156	2,639.65	84.8711	2,639.65	81.4857	2,639.65	85.3702	2,639.65	80.7617	2,639.65	83.7668	2,639.65	80.0107	2,639.65	80.2597	2,639.65	80.3372	2,639.65	78.3474	2,639.65	78.2309	2,639.65	74.846	2,639.65	76.8706	2,639.65	76.2022	2,639.65	74.0419	2,639.65	75.2181	2,639.65	73.1496	2,639.65	74.1557	2,639.65	69.8982	2,639.65	69.9398	2,639.65	73.1697	2,639.65	66.9379	2,639.65	69.1282	2,639.65	63.2345	2,639.65	75.7711	2,639.65	64.3967	2,639.65	72.3814	2,639.65	70.7187	2,639.65	75.7169
2,731.93	85.0053	2,731.93	85.5611	2,731.93	85.1686	2,731.93	85.9095	2,731.93	85.2166	2,731.93	86.6536	2,731.93	84.8871	2,731.93	84.5381	2,731.93	85.7635	2,731.93	82.8275	2,731.93	85.4103	2,731.93	84.0163	2,731.93	83.5919	2,731.93	81.8768	2,731.93	80.0758	2,731.93	79.9226	2,731.93	75.6813	2,731.93	76.8059	2,731.93	72.3285	2,731.93	74.2641	2,731.93	69.8153	2,731.93	74.5458	2,731.93	76.9923	2,731.93	71.4065	2,731.93	74.1836	2,731.93	71.9336	2,731.93	68.6474	2,731.93	71.3297	2,731.93	60.3149	2,731.93	70.9853	2,731.93	64.8086	2,731.93	74.541	2,731.93	67.5242	2,731.93	73.0872	2,731.93	70.9152	2,731.93	74.8117
2,828.61	86.2742	2,828.61	86.5506	2,828.61	86.312	2,828.61	86.7113	2,828.61	86.944	2,828.61	87.1529	2,828.61	85.9621	2,828.61	85.2973	2,828.61	85.9503	2,828.61	83.6098	2,828.61	85.733	2,828.61	83.652	2,828.61	83.3606	2,828.61	82.1516	2,828.61	80.9851	2,828.61	78.0147	2,828.61	77.424	2,828.61	75.8716	2,828.61	75.044	2,828.61	72.6011	2,828.61	69.5592	2,828.61	73.7408	2,828.61	74.1746	2,828.61	69.9861	2,828.61	74.9732	2,828.61	71.7448	2,828.61	69.8278	2,828.61	71.928	2,828.61	63.0722	2,828.61	72.0473	2,828.61	53.7312	2,828.61	72.7508	2,828.61	69.8382	2,828.61	74.1004	2,828.61	72.4016	2,828.61	73.8024
2,928.22	87.6571	2,928.22	87.6625	2,928.22	87.4308	2,928.22	87.5954	2,928.22	87.5609	2,928.22	87.1455	2,928.22	86.5427	2,928.22	85.4664	2,928.22	86.4697	2,928.22	85.2021	2,928.22	86.1436	2,928.22	83.832	2,928.22	84.1539	2,928.22	81.6024	2,928.22	82.1159	2,928.22	77.9507	2,928.22	76.0294	2,928.22	76.4695	2,928.22	72.127	2,928.22	75.1933	2,928.22	70.7	2,928.22	72.3701	2,928.22	73.0622	2,928.22	71.7259	2,928.22	73.6633	2,928.22	70.4432	2,928.22	72.1815	2,928.22	72.3916	2,928.22	48.8775	2,928.22	72.8353	2,928.22	65.1253	2,928.22	71.5981	2,928.22	71.8529	2,928.22	73.4423	2,928.22	71.2219	2,928.22	70.7628
3,030.76	88.188	3,030.76	87.6534	3,030.76	87.9294	3,030.76	88.0699	3,030.76	87.9202	3,030.76	87.1754	3,030.76	86.414	3,030.76	84.9739	3,030.76	86.1496	3,030.76	85.5477	3,030.76	86.3417	3,030.76	83.2057	3,030.76	84.439	3,030.76	80.2108	3,030.76	82.0068	3,030.76	77.2892	3,030.76	76.029	3,030.76	72.023	3,030.76	70.6796	3,030.76	71.7103	3,030.76	70.8803	3,030.76	69.1863	3,030.76	75.5708	3,030.76	68.5071	3,030.76	74.4276	3,030.76	70.1394	3,030.76	74.0697	3,030.76	71.3306	3,030.76	62.3496	3,030.76	72.7821	3,030.76	65.0032	3,030.76	70.4144	3,030.76	71.4222	3,030.76	73.5381	3,030.76	69.058	3,030.76	70.4536
3,137.7	88.2325	3,137.7	87.9614	3,137.7	88.3431	3,137.7	88.109	3,137.7	88.1173	3,137.7	86.5594	3,137.7	86.2752	3,137.7	86.1671	3,137.7	85.3048	3,137.7	85.0656	3,137.7	86.0524	3,137.7	82.1087	3,137.7	84.2	3,137.7	79.0698	3,137.7	80.47	3,137.7	73.7939	3,137.7	75.4163	3,137.7	74.9127	3,137.7	72.4726	3,137.7	73.6037	3,137.7	73.5481	3,137.7	72.7847	3,137.7	74.3485	3,137.7	66.3413	3,137.7	74.9206	3,137.7	70.6654	3,137.7	73.1324	3,137.7	67.9831	3,137.7	41.8926	3,137.7	73.1859	3,137.7	66.5685	3,137.7	70.6019	3,137.7	70.4634	3,137.7	72.7927	3,137.7	66.6143	3,137.7	68.9743
3,249.02	88.6815	3,249.02	88.4303	3,249.02	88.4405	3,249.02	87.8242	3,249.02	88.2483	3,249.02	86.3233	3,249.02	86.1735	3,249.02	86.6138	3,249.02	84.3375	3,249.02	83.999	3,249.02	85.4355	3,249.02	80.5414	3,249.02	84.1261	3,249.02	79.1639	3,249.02	80.2417	3,249.02	78.7895	3,249.02	75.6467	3,249.02	78.1413	3,249.02	74.2041	3,249.02	72.088	3,249.02	74.4751	3,249.02	72.5811	3,249.02	72.8446	3,249.02	69.6566	3,249.02	72.9498	3,249.02	69.9352	3,249.02	68.5146	3,249.02	67.203	3,249.02	59.2815	3,249.02	72.7244	3,249.02	66.3361	3,249.02	70.8095	3,249.02	69.9962	3,249.02	72.2986	3,249.02	66.8538	3,249.02	69.5177
3,363.28	88.6509	3,363.28	87.8618	3,363.28	88.5843	3,363.28	87.3767	3,363.28	88.001	3,363.28	86.6437	3,363.28	85.7422	3,363.28	85.7759	3,363.28	83.0672	3,363.28	83.3835	3,363.28	84.5703	3,363.28	81.4693	3,363.28	84.0427	3,363.28	81.4181	3,363.28	81.6166	3,363.28	78.8699	3,363.28	78.7973	3,363.28	73.6714	3,363.28	75.9273	3,363.28	73.6513	3,363.28	75.8976	3,363.28	71.5268	3,363.28	71.3442	3,363.28	70.9108	3,363.28	73.9721	3,363.28	68.6892	3,363.28	64.8056	3,363.28	70.3416	3,363.28	55.7943	3,363.28	71.1439	3,363.28	67.6849	3,363.28	71.9087	3,363.28	71.0195	3,363.28	73.1057	3,363.28	65.2724	3,363.28	68.7361
3,481.93	88.4951	3,481.93	87.3619	3,481.93	88.4773	3,481.93	86.7876	3,481.93	87.5343	3,481.93	85.6637	3,481.93	85.2487	3,481.93	85.3108	3,481.93	81.6645	3,481.93	82.64	3,481.93	83.6589	3,481.93	82.7595	3,481.93	84.4607	3,481.93	80.65	3,481.93	81.453	3,481.93	77.5636	3,481.93	80.084	3,481.93	77.1831	3,481.93	77.4612	3,481.93	74.8396	3,481.93	76.2218	3,481.93	69.2487	3,481.93	72.6288	3,481.93	70.5688	3,481.93	71.6673	3,481.93	66.5277	3,481.93	60.2012	3,481.93	71.4659	3,481.93	51.0494	3,481.93	68.4801	3,481.93	68.4014	3,481.93	71.9733	3,481.93	71.1427	3,481.93	72.766	3,481.93	63.4643	3,481.93	68.0495
3,604.98	87.927	3,604.98	87.2952	3,604.98	88.12	3,604.98	85.961	3,604.98	86.5763	3,604.98	85.4342	3,604.98	85.2138	3,604.98	83.912	3,604.98	80.8494	3,604.98	82.6299	3,604.98	83.0229	3,604.98	83.1438	3,604.98	83.6644	3,604.98	80.3317	3,604.98	81.8624	3,604.98	78.7872	3,604.98	81.0126	3,604.98	72.6556	3,604.98	78.2845	3,604.98	70.8027	3,604.98	70.4011	3,604.98	68.997	3,604.98	72.812	3,604.98	69.0816	3,604.98	70.6035	3,604.98	60.3869	3,604.98	60.385	3,604.98	71.5917	3,604.98	50.2712	3,604.98	67.5352	3,604.98	68.263	3,604.98	71.9313	3,604.98	71.1722	3,604.98	72.8546	3,604.98	55.2741	3,604.98	69.1103
3,732.42	88.1049	3,732.42	86.9719	3,732.42	88.0121	3,732.42	85.4235	3,732.42	86.6468	3,732.42	85.282	3,732.42	84.3645	3,732.42	82.4924	3,732.42	81.815	3,732.42	83.7468	3,732.42	82.4296	3,732.42	81.9926	3,732.42	83.4647	3,732.42	78.64	3,732.42	82.0361	3,732.42	72.1161	3,732.42	79.7673	3,732.42	70.9716	3,732.42	76.2032	3,732.42	71.5186	3,732.42	70.6292	3,732.42	65.1726	3,732.42	69.716	3,732.42	67.7427	3,732.42	68.9703	3,732.42	62.0148	3,732.42	65.4832	3,732.42	69.111	3,732.42	61.6246	3,732.42	67.773	3,732.42	68.3147	3,732.42	71.3917	3,732.42	70.6075	3,732.42	72.3007	3,732.42	55.5359	3,732.42	68.3199
3,864.26	89.0505	3,864.26	87.2557	3,864.26	88.7559	3,864.26	86.4706	3,864.26	86.3979	3,864.26	84.7451	3,864.26	84.7367	3,864.26	84.0115	3,864.26	81.7963	3,864.26	84.1636	3,864.26	81.4501	3,864.26	80.4059	3,864.26	83.3107	3,864.26	76.9303	3,864.26	81.8778	3,864.26	77.7203	3,864.26	77.5512	3,864.26	75.7345	3,864.26	74.4973	3,864.26	72.4126	3,864.26	66.5766	3,864.26	69.8344	3,864.26	67.531	3,864.26	67.1456	3,864.26	68.3607	3,864.26	66.6042	3,864.26	68.1185	3,864.26	64.6932	3,864.26	63.2413	3,864.26	69.4095	3,864.26	67.6364	3,864.26	69.6397	3,864.26	69.8954	3,864.26	72.0385	3,864.26	59.08	3,864.26	69.5957
4,000.49	88.4533	4,000.49	87.3939	4,000.49	88.4446	4,000.49	86.1374	4,000.49	86.5945	4,000.49	84.4476	4,000.49	84.6823	4,000.49	84.7514	4,000.49	81.8144	4,000.49	82.916	4,000.49	82.3649	4,000.49	79.5611	4,000.49	83.4132	4,000.49	81.2762	4,000.49	79.9559	4,000.49	77.6431	4,000.49	75.4488	4,000.49	73.8843	4,000.49	74.263	4,000.49	73.1661	4,000.49	72.8242	4,000.49	70.2625	4,000.49	66.2075	4,000.49	66.8996	4,000.49	68.4045	4,000.49	66.4257	4,000.49	66.4212	4,000.49	65.6922	4,000.49	64.3683	4,000.49	68.8732	4,000.49	69.1811	4,000.49	70.3156	4,000.49	70.6482	4,000.49	69.8944	4,000.49	63.2778	4,000.49	67.8215
4,141.11	88.7482	4,141.11	87.6645	4,141.11	88.3244	4,141.11	85.6918	4,141.11	86.2121	4,141.11	84.1897	4,141.11	84.5556	4,141.11	84.2822	4,141.11	82.9247	4,141.11	81.4431	4,141.11	82.827	4,141.11	82.4643	4,141.11	82.8835	4,141.11	80.8462	4,141.11	79.1465	4,141.11	76.1777	4,141.11	74.3708	4,141.11	76.2616	4,141.11	65.6287	4,141.11	72.7084	4,141.11	72.3749	4,141.11	69.3112	4,141.11	66.9761	4,141.11	66.9286	4,141.11	66.044	4,141.11	64.2961	4,141.11	65.7694	4,141.11	64.5218	4,141.11	62.2253	4,141.11	68.1424	4,141.11	68.1406	4,141.11	70.1327	4,141.11	69.8858	4,141.11	69.8277	4,141.11	64.7317	4,141.11	66.215
4,287.6	88.7099	4,287.6	87.5747	4,287.6	88.4245	4,287.6	85.5947	4,287.6	86.1095	4,287.6	84.7521	4,287.6	85.5693	4,287.6	83.2976	4,287.6	83.6955	4,287.6	82.5788	4,287.6	81.9732	4,287.6	82.5586	4,287.6	83.432	4,287.6	78.85	4,287.6	78.8831	4,287.6	74.0194	4,287.6	71.7103	4,287.6	65.0715	4,287.6	61.5532	4,287.6	62.8248	4,287.6	68.3895	4,287.6	67.2417	4,287.6	67.0643	4,287.6	66.488	4,287.6	70.5001	4,287.6	58.9321	4,287.6	65.1174	4,287.6	61.5207	4,287.6	60.9447	4,287.6	67.3295	4,287.6	65.7902	4,287.6	68.1672	4,287.6	68.852	4,287.6	69.0878	4,287.6	64.4623	4,287.6	65.8299
4,438.48	88.5612	4,438.48	87.8292	4,438.48	88.0297	4,438.48	85.6767	4,438.48	86.0795	4,438.48	84.4223	4,438.48	85.0488	4,438.48	83.1629	4,438.48	83.5305	4,438.48	82.8992	4,438.48	81.4467	4,438.48	81.3931	4,438.48	82.4958	4,438.48	74.9668	4,438.48	78.3242	4,438.48	75.0749	4,438.48	66.7357	4,438.48	74.3671	4,438.48	65.9361	4,438.48	69.472	4,438.48	60.4254	4,438.48	65.7741	4,438.48	68.6441	4,438.48	67.8053	4,438.48	70.2253	4,438.48	59.4294	4,438.48	66.4126	4,438.48	61.1539	4,438.48	61.7479	4,438.48	65.8205	4,438.48	67.0601	4,438.48	68.1335	4,438.48	68.1518	4,438.48	69.0727	4,438.48	61.7596	4,438.48	68.49
4,595.21	88.1726	4,595.21	87.5023	4,595.21	87.7851	4,595.21	85.4382	4,595.21	86.0709	4,595.21	84.4686	4,595.21	84.372	4,595.21	82.9946	4,595.21	83.0344	4,595.21	83.2159	4,595.21	80.7258	4,595.21	78.6153	4,595.21	80.9987	4,595.21	77.6777	4,595.21	76.6517	4,595.21	77.3229	4,595.21	66.5533	4,595.21	73.4084	4,595.21	67.7322	4,595.21	72.8131	4,595.21	66.1954	4,595.21	68.1293	4,595.21	63.8615	4,595.21	64.5559	4,595.21	67.932	4,595.21	62.6968	4,595.21	62.0186	4,595.21	60.1936	4,595.21	63.423	4,595.21	64.0425	4,595.21	64.554	4,595.21	68.2847	4,595.21	68.5461	4,595.21	68.9618	4,595.21	59.8488	4,595.21	66.6162
4,756.35	87.4645	4,756.35	86.38	4,756.35	86.4589	4,756.35	84.9214	4,756.35	85.4954	4,756.35	82.8547	4,756.35	84.8406	4,756.35	82.5112	4,756.35	82.5988	4,756.35	80.5762	4,756.35	79.5738	4,756.35	78.6142	4,756.35	79.2566	4,756.35	78.7322	4,756.35	75.3869	4,756.35	74.7273	4,756.35	70.9825	4,756.35	71.839	4,756.35	70.6843	4,756.35	70.4239	4,756.35	70.2095	4,756.35	68.2797	4,756.35	54.3278	4,756.35	63.2992	4,756.35	64.9574	4,756.35	60.2524	4,756.35	61.1372	4,756.35	56.9687	4,756.35	66.1333	4,756.35	64.5701	4,756.35	65.7447	4,756.35	65.2799	4,756.35	66.5633	4,756.35	68.784	4,756.35	58.5939	4,756.35	63.9263
4,924.8	84.9482	4,924.8	84.3228	4,924.8	83.8438	4,924.8	82.9874	4,924.8	83.5692	4,924.8	81.4813	4,924.8	82.8004	4,924.8	80.8719	4,924.8	80.7792	4,924.8	78.6938	4,924.8	78.0725	4,924.8	78.4194	4,924.8	77.9084	4,924.8	75.5862	4,924.8	76.2109	4,924.8	69.6764	4,924.8	73.8776	4,924.8	65.552	4,924.8	69.5444	4,924.8	63.6369	4,924.8	68.894	4,924.8	64.5816	4,924.8	49.0336	4,924.8	62.3994	4,924.8	58.9058	4,924.8	59.007	4,924.8	60.6717	4,924.8	52.2549	4,924.8	66.0912	4,924.8	61.6416	4,924.8	65.6747	4,924.8	61.2876	4,924.8	64.2727	4,924.8	64.2911	4,924.8	59.1544	4,924.8	61.5604
5,097.66	86.3495	5,097.66	86.1756	5,097.66	85.93	5,097.66	85.1353	5,097.66	85.1057	5,097.66	84.1158	5,097.66	84.8632	5,097.66	82.6823	5,097.66	82.0896	5,097.66	81.4968	5,097.66	78.1398	5,097.66	80.4219	5,097.66	78.6747	5,097.66	74.4851	5,097.66	79.2635	5,097.66	72.7298	5,097.66	77.0324	5,097.66	71.4085	5,097.66	68.9472	5,097.66	65.2994	5,097.66	69.7721	5,097.66	63.5423	5,097.66	49.6879	5,097.66	65.5455	5,097.66	49.807	5,097.66	58.8877	5,097.66	61.0706	5,097.66	55.3987	5,097.66	67.2888	5,097.66	61.2279	5,097.66	66.1569	5,097.66	63.195	5,097.66	65.031	5,097.66	63.9393	5,097.66	63.4046	5,097.66	59.2601
5,277.83	88.024	5,277.83	88.2931	5,277.83	87.4939	5,277.83	87.3801	5,277.83	87.4933	5,277.83	86.489	5,277.83	86.7814	5,277.83	84.564	5,277.83	84.3062	5,277.83	83.9083	5,277.83	81.6871	5,277.83	80.075	5,277.83	80.778	5,277.83	77.0314	5,277.83	81.7775	5,277.83	76.7434	5,277.83	77.5406	5,277.83	74.3216	5,277.83	55.3023	5,277.83	71.7967	5,277.83	66.1945	5,277.83	68.9171	5,277.83	57.2621	5,277.83	64.8387	5,277.83	55.2098	5,277.83	64.1339	5,277.83	61.8419	5,277.83	58.2523	5,277.83	66.2769	5,277.83	63.9166	5,277.83	66.2632	5,277.83	65.5126	5,277.83	65.6282	5,277.83	67.4733	5,277.83	64.7479	5,277.83	65.327
5,463.87	88.3283	5,463.87	88.5882	5,463.87	88.2005	5,463.87	88.2945	5,463.87	88.2588	5,463.87	86.9417	5,463.87	87.6474	5,463.87	85.1472	5,463.87	85.6084	5,463.87	83.3097	5,463.87	82.1709	5,463.87	80.3521	5,463.87	82.3985	5,463.87	80.2962	5,463.87	81.6968	5,463.87	77.1741	5,463.87	77.683	5,463.87	72.7096	5,463.87	70.4023	5,463.87	69.4683	5,463.87	70.1454	5,463.87	70.2833	5,463.87	65.2409	5,463.87	63.8396	5,463.87	48.9902	5,463.87	62.7813	5,463.87	60.3751	5,463.87	55.6694	5,463.87	68.5813	5,463.87	63.4789	5,463.87	65.5269	5,463.87	66.8155	5,463.87	64.6428	5,463.87	67.1376	5,463.87	65.6833	5,463.87	67.5832
5,657.23	88.2151	5,657.23	89.057	5,657.23	88.877	5,657.23	88.8183	5,657.23	88.9975	5,657.23	87.4866	5,657.23	88.0062	5,657.23	85.5933	5,657.23	86.5038	5,657.23	83.1852	5,657.23	83.9475	5,657.23	81.6871	5,657.23	84.0764	5,657.23	79.1034	5,657.23	81.0199	5,657.23	73.1043	5,657.23	70.3831	5,657.23	71.2777	5,657.23	70.0595	5,657.23	65.4444	5,657.23	70.7881	5,657.23	66.3631	5,657.23	65.2635	5,657.23	65.3902	5,657.23	54.327	5,657.23	61.4649	5,657.23	56.1754	5,657.23	55.4824	5,657.23	66.934	5,657.23	58.0042	5,657.23	63.5652	5,657.23	64.7379	5,657.23	64.2867	5,657.23	69.637	5,657.23	65.504	5,657.23	68.3595
5,856.45	88.1508	5,856.45	89.0476	5,856.45	88.5828	5,856.45	89.0678	5,856.45	89.4361	5,856.45	87.8221	5,856.45	87.8229	5,856.45	85.7194	5,856.45	86.593	5,856.45	83.6388	5,856.45	84.8182	5,856.45	81.5456	5,856.45	83.7631	5,856.45	75.2573	5,856.45	80.9727	5,856.45	73.6701	5,856.45	71.7944	5,856.45	73.1225	5,856.45	67.1934	5,856.45	70.3731	5,856.45	67.6284	5,856.45	67.6894	5,856.45	63.6025	5,856.45	66.6551	5,856.45	45.7161	5,856.45	64.7403	5,856.45	58.3906	5,856.45	56.2498	5,856.45	66.1008	5,856.45	58.7834	5,856.45	65.5868	5,856.45	61.1147	5,856.45	65.1371	5,856.45	68.0808	5,856.45	62.0614	5,856.45	67.5726
6,062.99	87.1351	6,062.99	88.599	6,062.99	88.3972	6,062.99	89.3434	6,062.99	89.1805	6,062.99	88.0757	6,062.99	87.9786	6,062.99	85.6978	6,062.99	86.3413	6,062.99	84.2375	6,062.99	83.8205	6,062.99	80.7043	6,062.99	82.3902	6,062.99	78.9581	6,062.99	79.3735	6,062.99	77.921	6,062.99	77.0774	6,062.99	73.8571	6,062.99	71.687	6,062.99	70.5363	6,062.99	68.6036	6,062.99	69.9581	6,062.99	60.216	6,062.99	64.3845	6,062.99	65.5082	6,062.99	66.2255	6,062.99	60.3372	6,062.99	57.6556	6,062.99	60.8346	6,062.99	61.0969	6,062.99	65.3837	6,062.99	64.5014	6,062.99	64.7933	6,062.99	66.6109	6,062.99	60.1395	6,062.99	64.4944
6,276.86	87.0732	6,276.86	88.6217	6,276.86	87.877	6,276.86	89.5656	6,276.86	88.6178	6,276.86	88.1544	6,276.86	87.7217	6,276.86	86.2476	6,276.86	85.0593	6,276.86	84.1041	6,276.86	81.9597	6,276.86	81.8473	6,276.86	80.9904	6,276.86	79.9054	6,276.86	78.7978	6,276.86	74.3718	6,276.86	76.8874	6,276.86	69.6926	6,276.86	70.7868	6,276.86	64.7337	6,276.86	65.6222	6,276.86	66.5603	6,276.86	59.8679	6,276.86	64.6282	6,276.86	66.8258	6,276.86	63.4003	6,276.86	60.1588	6,276.86	61.2096	6,276.86	59.663	6,276.86	54.9224	6,276.86	62.7869	6,276.86	63.3814	6,276.86	63.3658	6,276.86	66.0169	6,276.86	62.9343	6,276.86	57.6626
6,498.05	87.6168	6,498.05	89.3867	6,498.05	88.2345	6,498.05	90.0543	6,498.05	88.0253	6,498.05	88.7733	6,498.05	87.4133	6,498.05	87.2235	6,498.05	84.5888	6,498.05	85.4056	6,498.05	78.6177	6,498.05	83.5012	6,498.05	76.1556	6,498.05	78.2017	6,498.05	78.0268	6,498.05	74.1556	6,498.05	75.4105	6,498.05	73.7758	6,498.05	71.1863	6,498.05	70.5366	6,498.05	68.3706	6,498.05	67.8784	6,498.05	63.2983	6,498.05	66.9442	6,498.05	63.7037	6,498.05	65.6574	6,498.05	54.2999	6,498.05	63.7835	6,498.05	42.2968	6,498.05	54.2026	6,498.05	63.2147	6,498.05	61.949	6,498.05	60.6521	6,498.05	68.0962	6,498.05	62.0154	6,498.05	63.8857
6,726.56	87.3288	6,726.56	88.7718	6,726.56	88.5257	6,726.56	89.6504	6,726.56	88.2734	6,726.56	88.2339	6,726.56	87.0959	6,726.56	86.1111	6,726.56	84.8581	6,726.56	84.9375	6,726.56	81.1735	6,726.56	82.078	6,726.56	77.476	6,726.56	78.451	6,726.56	79.3634	6,726.56	77.5602	6,726.56	73.1869	6,726.56	73.5616	6,726.56	68.8377	6,726.56	70.7264	6,726.56	70.0339	6,726.56	69.0008	6,726.56	65.7956	6,726.56	65.6045	6,726.56	62.2415	6,726.56	65.2863	6,726.56	57.28	6,726.56	63.6042	6,726.56	48.52	6,726.56	57.0833	6,726.56	60.5508	6,726.56	62.1182	6,726.56	58.069	6,726.56	68.4089	6,726.56	65.1113	6,726.56	64.6184
6,963.87	87.3109	6,963.87	88.3518	6,963.87	88.5398	6,963.87	88.9879	6,963.87	88.3031	6,963.87	87.6575	6,963.87	86.7245	6,963.87	85.5233	6,963.87	85.2811	6,963.87	84.0539	6,963.87	83.1545	6,963.87	81.7159	6,963.87	79.3097	6,963.87	79.2835	6,963.87	78.1166	6,963.87	73.7855	6,963.87	64.3424	6,963.87	66.7204	6,963.87	58.2404	6,963.87	64.7204	6,963.87	64.2748	6,963.87	65.192	6,963.87	66.6859	6,963.87	64.0584	6,963.87	62.9775	6,963.87	63.9002	6,963.87	61.6135	6,963.87	62.4528	6,963.87	54.4063	6,963.87	49.6615	6,963.87	59.6653	6,963.87	61.8376	6,963.87	59.0267	6,963.87	65.7233	6,963.87	62.5861	6,963.87	64.2059
7,209.96	87.1672	7,209.96	87.9332	7,209.96	88.1098	7,209.96	88.7563	7,209.96	88.4168	7,209.96	86.8551	7,209.96	86.5182	7,209.96	85.207	7,209.96	84.1581	7,209.96	83.6399	7,209.96	82.6763	7,209.96	81.9999	7,209.96	79.6767	7,209.96	75.5291	7,209.96	75.1796	7,209.96	72.4325	7,209.96	69.6116	7,209.96	71.7392	7,209.96	66.8004	7,209.96	69.7801	7,209.96	59.103	7,209.96	66.3	7,209.96	65.505	7,209.96	66.4291	7,209.96	59.0431	7,209.96	65.1321	7,209.96	62.3409	7,209.96	64.0914	7,209.96	63.0183	7,209.96	47.0034	7,209.96	56.4796	7,209.96	60.0524	7,209.96	59.344	7,209.96	64.9896	7,209.96	62.4538	7,209.96	62.9874
7,464.84	87.5387	7,464.84	87.7327	7,464.84	87.56	7,464.84	88.1379	7,464.84	87.6688	7,464.84	86.2843	7,464.84	86.7337	7,464.84	84.1967	7,464.84	84.0534	7,464.84	83.0094	7,464.84	80.0851	7,464.84	81	7,464.84	76.3132	7,464.84	78.1055	7,464.84	75.4284	7,464.84	75.9786	7,464.84	70.1768	7,464.84	70.4277	7,464.84	68.4421	7,464.84	66.7362	7,464.84	56.6959	7,464.84	67.435	7,464.84	58.3633	7,464.84	63.3878	7,464.84	50.5461	7,464.84	63.3203	7,464.84	62.0561	7,464.84	61.1224	7,464.84	60.8246	7,464.84	50.9185	7,464.84	58.2471	7,464.84	60.7111	7,464.84	60.8399	7,464.84	65.6316	7,464.84	61.1282	7,464.84	59.5629
7,727.05	87.7983	7,727.05	87.5708	7,727.05	87.5166	7,727.05	87.5499	7,727.05	87.3298	7,727.05	86.007	7,727.05	86.5971	7,727.05	84.0139	7,727.05	84.2609	7,727.05	82.4249	7,727.05	78.5391	7,727.05	80.7553	7,727.05	74.2104	7,727.05	76.3701	7,727.05	75.5652	7,727.05	66.2556	7,727.05	72.4838	7,727.05	64.9488	7,727.05	67.4389	7,727.05	63.6456	7,727.05	59.4886	7,727.05	62.737	7,727.05	63.824	7,727.05	63.1046	7,727.05	39.8559	7,727.05	59.2493	7,727.05	60.1805	7,727.05	61.6639	7,727.05	58.8411	7,727.05	46.6786	7,727.05	58.1676	7,727.05	58.3082	7,727.05	61.4934	7,727.05	65.3198	7,727.05	57.9563	7,727.05	57.7734
7,999.51	88.5452	7,999.51	87.5807	7,999.51	87.9738	7,999.51	87.2822	7,999.51	87.4455	7,999.51	85.7496	7,999.51	86.1966	7,999.51	83.6494	7,999.51	84.3282	7,999.51	82.2359	7,999.51	79.3146	7,999.51	80.0233	7,999.51	76.0547	7,999.51	75.3952	7,999.51	75.7714	7,999.51	74.5437	7,999.51	75.3059	7,999.51	71.0434	7,999.51	69.9778	7,999.51	68.0582	7,999.51	61.414	7,999.51	64.5355	7,999.51	64.049	7,999.51	64.8302	7,999.51	58.3165	7,999.51	61.7782	7,999.51	53.9965	7,999.51	61.5706	7,999.51	58.8848	7,999.51	55.382	7,999.51	58.4424	7,999.51	57.2469	7,999.51	58.693	7,999.51	66.0818	7,999.51	58.302	7,999.51	60.0586
8,282.23	88.4913	8,282.23	87.591	8,282.23	87.7891	8,282.23	86.8503	8,282.23	87.087	8,282.23	85.3546	8,282.23	85.1944	8,282.23	83.0018	8,282.23	83.718	8,282.23	81.5908	8,282.23	80.8549	8,282.23	79.4569	8,282.23	78.1971	8,282.23	76.8292	8,282.23	78.0163	8,282.23	70.9631	8,282.23	73.5457	8,282.23	58.519	8,282.23	69.0537	8,282.23	59.2544	8,282.23	61.701	8,282.23	62.1049	8,282.23	59.4439	8,282.23	62.709	8,282.23	61.5015	8,282.23	57.8111	8,282.23	51.7316	8,282.23	60.4054	8,282.23	60.9246	8,282.23	55.8356	8,282.23	59.4168	8,282.23	57.6136	8,282.23	53.5355	8,282.23	63.8888	8,282.23	62.0295	8,282.23	60.8307
8,573.73	87.929	8,573.73	86.9013	8,573.73	86.7637	8,573.73	85.7147	8,573.73	86.027	8,573.73	84.7859	8,573.73	84.6156	8,573.73	82.5164	8,573.73	83.6188	8,573.73	81.6674	8,573.73	80.3133	8,573.73	78.9214	8,573.73	79.5351	8,573.73	74.2408	8,573.73	78.2149	8,573.73	73.1106	8,573.73	71.8855	8,573.73	70.9748	8,573.73	60.8625	8,573.73	68.1968	8,573.73	61.414	8,573.73	62.7889	8,573.73	48.2501	8,573.73	63.4999	8,573.73	62.9734	8,573.73	61.4439	8,573.73	57.1935	8,573.73	61.1811	8,573.73	57.1812	8,573.73	58.2636	8,573.73	56.6417	8,573.73	54.3797	8,573.73	56.4608	8,573.73	65.8158	8,573.73	56.0297	8,573.73	62.3438
8,876.95	88.2874	8,876.95	86.541	8,876.95	86.9475	8,876.95	85.4807	8,876.95	85.8257	8,876.95	85.1523	8,876.95	85.0947	8,876.95	82.8081	8,876.95	83.9806	8,876.95	81.3867	8,876.95	81.9169	8,876.95	79.1385	8,876.95	79.8672	8,876.95	77.0155	8,876.95	77.375	8,876.95	72.7509	8,876.95	66.3971	8,876.95	62.4276	8,876.95	52.8226	8,876.95	60.542	8,876.95	63.2785	8,876.95	61.6306	8,876.95	55.337	8,876.95	61.9788	8,876.95	55.4115	8,876.95	57.7182	8,876.95	55.4456	8,876.95	58.8354	8,876.95	58.5613	8,876.95	59.5551	8,876.95	55.9396	8,876.95	58.6277	8,876.95	54.7648	8,876.95	65.8675	8,876.95	60.573	8,876.95	61.1863
9,188.96	89.515	9,188.96	88.3806	9,188.96	87.9611	9,188.96	87.158	9,188.96	86.477	9,188.96	86.6593	9,188.96	85.6165	9,188.96	84.1929	9,188.96	83.7979	9,188.96	82.2008	9,188.96	80.9413	9,188.96	79.9801	9,188.96	77.723	9,188.96	76.0825	9,188.96	71.3976	9,188.96	72.3766	9,188.96	65.3165	9,188.96	70.5534	9,188.96	56.8397	9,188.96	67.1287	9,188.96	61.2915	9,188.96	63.5854	9,188.96	54.7306	9,188.96	61.9476	9,188.96	42.2633	9,188.96	60.8143	9,188.96	51.7465	9,188.96	60.0135	9,188.96	58.064	9,188.96	60.6934	9,188.96	58.3528	9,188.96	59.5093	9,188.96	57.5422	9,188.96	64.7816	9,188.96	63.0472	9,188.96	59.2373
9,514.16	89.8803	9,514.16	88.8887	9,514.16	88.3614	9,514.16	87.6792	9,514.16	86.6034	9,514.16	87.1588	9,514.16	85.48	9,514.16	84.541	9,514.16	83.2141	9,514.16	82.1518	9,514.16	79.8509	9,514.16	79.7434	9,514.16	75.858	9,514.16	77.298	9,514.16	71.582	9,514.16	73.0346	9,514.16	68.9567	9,514.16	66.7286	9,514.16	54.0528	9,514.16	61.8141	9,514.16	59.2792	9,514.16	62.4211	9,514.16	53.9446	9,514.16	59.3058	9,514.16	51.2933	9,514.16	59.2497	9,514.16	35.8898	9,514.16	56.5338	9,514.16	50.0989	9,514.16	58.7347	9,514.16	59.3459	9,514.16	59.4926	9,514.16	55.7708	9,514.16	64.9637	9,514.16	60.9865	9,514.16	61.1705
9,849.61	90.4081	9,849.61	89.7236	9,849.61	88.7996	9,849.61	88.471	9,849.61	86.9742	9,849.61	88.0565	9,849.61	85.7477	9,849.61	85.3493	9,849.61	83.683	9,849.61	82.8791	9,849.61	80.9939	9,849.61	80.8839	9,849.61	77.2965	9,849.61	76.7038	9,849.61	75.0778	9,849.61	71.9907	9,849.61	68.341	9,849.61	69.5984	9,849.61	57.2569	9,849.61	66.5675	9,849.61	52.975	9,849.61	62.7605	9,849.61	58.5896	9,849.61	60.5231	9,849.61	53.4202	9,849.61	61.8532	9,849.61	55.8252	9,849.61	54.3836	9,849.61	52.9482	9,849.61	58.7554	9,849.61	59.1452	9,849.61	58.4042	9,849.61	54.3894	9,849.61	63.6321	9,849.61	60.8736	9,849.61	61.1522
10,196.8	90.5778	10,196.8	90.1906	10,196.8	89.2154	10,196.8	89.0628	10,196.8	87.6426	10,196.8	88.4893	10,196.8	86.0312	10,196.8	86.0903	10,196.8	83.8349	10,196.8	83.722	10,196.8	81.5481	10,196.8	81.3502	10,196.8	80.3755	10,196.8	77.8015	10,196.8	76.2585	10,196.8	73.1809	10,196.8	65.3578	10,196.8	67.1165	10,196.8	60.803	10,196.8	63.4946	10,196.8	55.1687	10,196.8	62.3671	10,196.8	55.7089	10,196.8	59.3558	10,196.8	51.9152	10,196.8	62.396	10,196.8	58.5127	10,196.8	50.4644	10,196.8	55.1874	10,196.8	58.5158	10,196.8	57.4426	10,196.8	60.2639	10,196.8	51.7892	10,196.8	64.1891	10,196.8	58.9843	10,196.8	62.163
10,555.7	90.1094	10,555.7	89.999	10,555.7	89.512	10,555.7	89.0186	10,555.7	89.1735	10,555.7	88.5269	10,555.7	87.5892	10,555.7	86.2719	10,555.7	84.7221	10,555.7	84.4748	10,555.7	82.6462	10,555.7	81.7977	10,555.7	81.3714	10,555.7	76.9379	10,555.7	73.8365	10,555.7	71.806	10,555.7	69.6718	10,555.7	69.6316	10,555.7	63.5853	10,555.7	65.9316	10,555.7	58.8075	10,555.7	61.359	10,555.7	50.1613	10,555.7	59.4888	10,555.7	53.2554	10,555.7	61.7951	10,555.7	58.6632	10,555.7	43.0438	10,555.7	59.0844	10,555.7	56.0181	10,555.7	53.7444	10,555.7	59.8628	10,555.7	56.2604	10,555.7	63.6046	10,555.7	62.0985	10,555.7	63.8827
10,927.7	91.7317	10,927.7	91.7437	10,927.7	91.4447	10,927.7	90.4242	10,927.7	90.8164	10,927.7	88.752	10,927.7	88.5387	10,927.7	86.0262	10,927.7	84.7203	10,927.7	83.5137	10,927.7	81.4722	10,927.7	79.6036	10,927.7	77.3388	10,927.7	75.1069	10,927.7	70.2197	10,927.7	70.6004	10,927.7	67.7815	10,927.7	64.9362	10,927.7	59.5385	10,927.7	60.7946	10,927.7	56.2661	10,927.7	61.0961	10,927.7	39.5215	10,927.7	56.5751	10,927.7	52.0156	10,927.7	59.7469	10,927.7	57.7883	10,927.7	48.4244	10,927.7	58.7861	10,927.7	55.2121	10,927.7	41.0525	10,927.7	57.1477	10,927.7	49.8309	10,927.7	59.4975	10,927.7	60.4831	10,927.7	60.1992
11,313	92.7316	11,313	92.6198	11,313	91.9977	11,313	91.1244	11,313	90.7298	11,313	89.3659	11,313	88.1114	11,313	86.4276	11,313	84.4912	11,313	83.5609	11,313	79.1548	11,313	80.0646	11,313	71.4866	11,313	75.5752	11,313	76.0825	11,313	71.288	11,313	67.7381	11,313	69.5191	11,313	53.5342	11,313	64.4093	11,313	52.5731	11,313	61.7223	11,313	50.364	11,313	57.4797	11,313	52.541	11,313	59.6616	11,313	61.2918	11,313	54.0243	11,313	60.2915	11,313	52.5778	11,313	47.5466	11,313	59.5347	11,313	50.4285	11,313	61.3855	11,313	60.0363	11,313	61.3955
11,712.9	91.9523	11,712.9	91.9156	11,712.9	91.5944	11,712.9	90.3917	11,712.9	89.8935	11,712.9	88.4023	11,712.9	87.3211	11,712.9	86.1035	11,712.9	85.1251	11,712.9	82.5912	11,712.9	79.3049	11,712.9	78.4655	11,712.9	77.2827	11,712.9	75.3097	11,712.9	76.1416	11,712.9	70.081	11,712.9	63.6957	11,712.9	65.5323	11,712.9	56.3262	11,712.9	59.0815	11,712.9	57.7186	11,712.9	59.646	11,712.9	36.4903	11,712.9	55.9702	11,712.9	48.3901	11,712.9	59.2395	11,712.9	59.5658	11,712.9	52.1433	11,712.9	57.4178	11,712.9	47.8892	11,712.9	52.6969	11,712.9	57.8655	11,712.9	38.9698	11,712.9	60.4002	11,712.9	56.9996	11,712.9	60.0936
12,126	89.2071	12,126	89.3562	12,126	89.8037	12,126	87.6378	12,126	88.0757	12,126	84.927	12,126	85.8089	12,126	83.0154	12,126	83.6072	12,126	78.4986	12,126	79.2644	12,126	74.7339	12,126	78.3125	12,126	71.6057	12,126	71.4119	12,126	67.6827	12,126	66.374	12,126	64.9416	12,126	60.5277	12,126	60.3071	12,126	58.054	12,126	54.4431	12,126	45.4079	12,126	52.5519	12,126	50.5019	12,126	54.3891	12,126	56.767	12,126	49.7588	12,126	54.8836	12,126	40.1767	12,126	54.2971	12,126	55.1276	12,126	40.6506	12,126	59.2758	12,126	58.2113	12,126	57.5669
12,553.7	86.796	12,553.7	86.0344	12,553.7	88.0691	12,553.7	83.5906	12,553.7	87.0201	12,553.7	79.8654	12,553.7	85.3635	12,553.7	78.3842	12,553.7	83.4823	12,553.7	72.7103	12,553.7	79.8731	12,553.7	69.6145	12,553.7	75.8434	12,553.7	66.8728	12,553.7	70.8427	12,553.7	58.5072	12,553.7	67.9004	12,553.7	55.7685	12,553.7	57.5245	12,553.7	52.271	12,553.7	49.9764	12,553.7	43.7003	12,553.7	52.3195	12,553.7	43.0321	12,553.7	49.6837	12,553.7	51.8723	12,553.7	50.4826	12,553.7	37.8783	12,553.7	49.9728	12,553.7	32.6724	12,553.7	49.6745	12,553.7	46.9097	12,553.7	43.8394	12,553.7	52.2105	12,553.7	56.0011	12,553.7	52.5155
12,996.1	83.6009	12,996.1	81.9182	12,996.1	85.396	12,996.1	76.4543	12,996.1	85.2581	12,996.1	71.1735	12,996.1	82.6143	12,996.1	69.2798	12,996.1	81.3351	12,996.1	65.64	12,996.1	77.2558	12,996.1	66.8979	12,996.1	72.1193	12,996.1	63.3231	12,996.1	67.5259	12,996.1	62.3904	12,996.1	65.5525	12,996.1	58.916	12,996.1	50.0713	12,996.1	55.1217	12,996.1	48.0431	12,996.1	45.3172	12,996.1	53.2313	12,996.1	44.3822	12,996.1	40.9727	12,996.1	49.5251	12,996.1	43.5274	12,996.1	35.5057	12,996.1	50.7718	12,996.1	43.8511	12,996.1	51.1176	12,996.1	43.2244	12,996.1	41.8534	12,996.1	48.7436	12,996.1	53.8591	12,996.1	40.0627
13,454.6	83.4519	13,454.6	83.2428	13,454.6	83.8301	13,454.6	81.0639	13,454.6	83.2432	13,454.6	79.5962	13,454.6	79.841	13,454.6	77.7898	13,454.6	77.2868	13,454.6	74.4714	13,454.6	71.744	13,454.6	72.8616	13,454.6	68.244	13,454.6	69.096	13,454.6	64.7887	13,454.6	65.4208	13,454.6	61.2338	13,454.6	61.5515	13,454.6	46.4542	13,454.6	58.1664	13,454.6	43.54	13,454.6	49.7439	13,454.6	46.1781	13,454.6	45.681	13,454.6	39.595	13,454.6	49.896	13,454.6	47.9528	13,454.6	45.5541	13,454.6	45.1533	13,454.6	48.795	13,454.6	49.7832	13,454.6	42.2686	13,454.6	46.6127	13,454.6	53.6588	13,454.6	52.0231	13,454.6	47.7226
13,929.2	85.1066	13,929.2	85.9684	13,929.2	84.6978	13,929.2	85.0381	13,929.2	81.6234	13,929.2	83.2177	13,929.2	79.1961	13,929.2	79.8862	13,929.2	72.0053	13,929.2	75.9214	13,929.2	65.7371	13,929.2	72.1105	13,929.2	58.9211	13,929.2	67.0412	13,929.2	47.8643	13,929.2	62.9042	13,929.2	56.0073	13,929.2	59.2082	13,929.2	47.6346	13,929.2	54.0093	13,929.2	48.6313	13,929.2	48.0321	13,929.2	40.1845	13,929.2	47.8866	13,929.2	44.4711	13,929.2	47.5865	13,929.2	42.0838	13,929.2	42.6579	13,929.2	41.4533	13,929.2	47.3594	13,929.2	49.99	13,929.2	41.1602	13,929.2	48.1525	13,929.2	52.7399	13,929.2	50.7667	13,929.2	53.4173
14,419.9	88.2607	14,419.9	88.8682	14,419.9	87.9245	14,419.9	87.2281	14,419.9	86.089	14,419.9	85.435	14,419.9	83.709	14,419.9	79.9039	14,419.9	77.1395	14,419.9	74.9548	14,419.9	71.7458	14,419.9	68.0477	14,419.9	65.7215	14,419.9	58.3667	14,419.9	56.4904	14,419.9	64.1183	14,419.9	65.1489	14,419.9	57.5939	14,419.9	52.0344	14,419.9	55.9023	14,419.9	50.386	14,419.9	46.5009	14,419.9	44.8568	14,419.9	49.896	14,419.9	50.8158	14,419.9	51.7672	14,419.9	50.128	14,419.9	45.461	14,419.9	46.8795	14,419.9	47.0775	14,419.9	54.3142	14,419.9	48.2335	14,419.9	53.6909	14,419.9	49.7724	14,419.9	52.371	14,419.9	57.9122
14,928.2	89.5565	14,928.2	88.8898	14,928.2	88.1242	14,928.2	86.6269	14,928.2	86.319	14,928.2	83.5048	14,928.2	83.1733	14,928.2	77.5131	14,928.2	77.5876	14,928.2	71.7388	14,928.2	72.2649	14,928.2	67.7487	14,928.2	64.8865	14,928.2	66.2275	14,928.2	62.2653	14,928.2	67.1957	14,928.2	65.8996	14,928.2	58.6717	14,928.2	48.0737	14,928.2	55.8528	14,928.2	45.4792	14,928.2	48.4565	14,928.2	47.2459	14,928.2	51.2148	14,928.2	47.6833	14,928.2	52.8702	14,928.2	50.5205	14,928.2	47.8377	14,928.2	44.2376	14,928.2	43.4756	14,928.2	53.3005	14,928.2	53.3861	14,928.2	50.8786	14,928.2	45.5707	14,928.2	47.5928	14,928.2	57.0072
15,455.6	79.7448	15,455.6	78.4048	15,455.6	78.0403	15,455.6	75.8668	15,455.6	75.5288	15,455.6	72.3123	15,455.6	71.8743	15,455.6	67.3474	15,455.6	66.7705	15,455.6	61.8076	15,455.6	62.0051	15,455.6	59.9791	15,455.6	55.3164	15,455.6	58.3468	15,455.6	57.7442	15,455.6	54.4106	15,455.6	50.0724	15,455.6	40.2108	15,455.6	42.8207	15,455.6	41.9646	15,455.6	47.6807	15,455.6	34.1713	15,455.6	41.1203	15,455.6	35.5824	15,455.6	31.6899	15,455.6	41.5462	15,455.6	37.537	15,455.6	39.4382	15,455.6	33.5289	15,455.6	32.344	15,455.6	41.53	15,455.6	42.0372	15,455.6	36.9748	15,455.6	27.9173	15,455.6	32.3454	15,455.6	42.6521
16,000.5	84.3059	16,000.5	83.7061	16,000.5	82.5962	16,000.5	83.4443	16,000.5	81.877	16,000.5	81.3375	16,000.5	78.9458	16,000.5	77.8575	16,000.5	75.3657	16,000.5	73.053	16,000.5	68.7991	16,000.5	69.253	16,000.5	67.1111	16,000.5	65.1803	16,000.5	60.5858	16,000.5	58.6601	16,000.5	43.9738	16,000.5	51.0152	16,000.5	50.4995	16,000.5	49.0651	16,000.5	49.6521	16,000.5	41.9155	16,000.5	51.7024	16,000.5	43.2499	16,000.5	41.333	16,000.5	48.7288	16,000.5	34.0605	16,000.5	44.5357	16,000.5	40.3333	16,000.5	41.9612	16,000.5	41.1269	16,000.5	47.0997	16,000.5	39.017	16,000.5	36.2972	16,000.5	39.5102	16,000.5	47.9277
16,564.5	88.7367	16,564.5	87.9363	16,564.5	88.0597	16,564.5	86.8856	16,564.5	86.1084	16,564.5	84.0273	16,564.5	82.3763	16,564.5	79.7506	16,564.5	77.8288	16,564.5	73.4893	16,564.5	70.0784	16,564.5	69.1475	16,564.5	64.9294	16,564.5	60.6792	16,564.5	52.3495	16,564.5	55.8897	16,564.5	57.4828	16,564.5	51.6117	16,564.5	51.8114	16,564.5	48.5238	16,564.5	49.6974	16,564.5	43.1797	16,564.5	53.8461	16,564.5	42.4752	16,564.5	39.2709	16,564.5	48.453	16,564.5	45.3518	16,564.5	46.8159	16,564.5	20.4739	16,564.5	44.159	16,564.5	42.2401	16,564.5	50.9773	16,564.5	36.4696	16,564.5	43.638	16,564.5	45.5243	16,564.5	48.9118
17,148.9	82.2204	17,148.9	81.9312	17,148.9	81.9221	17,148.9	79.9143	17,148.9	79.9452	17,148.9	75.6438	17,148.9	75.1657	17,148.9	70.9346	17,148.9	69.7062	17,148.9	68.365	17,148.9	59.6421	17,148.9	61.8765	17,148.9	50.9745	17,148.9	60.0356	17,148.9	55.039	17,148.9	58.831	17,148.9	55.3565	17,148.9	51.6588	17,148.9	49.4459	17,148.9	45.2568	17,148.9	40.9622	17,148.9	38.3565	17,148.9	46.1483	17,148.9	37.9386	17,148.9	43.9861	17,148.9	45.1968	17,148.9	39.7773	17,148.9	43.6454	17,148.9	33.5279	17,148.9	43.601	17,148.9	40.922	17,148.9	40.9139	17,148.9	40.2345	17,148.9	38.1187	17,148.9	47.018	17,148.9	44.8031
17,752.4	83.2323	17,752.4	83.9178	17,752.4	82.0526	17,752.4	81.9404	17,752.4	79.0954	17,752.4	78.5749	17,752.4	73.8241	17,752.4	73.6335	17,752.4	64.275	17,752.4	68.8564	17,752.4	59.4368	17,752.4	59.7965	17,752.4	46.1925	17,752.4	57.358	17,752.4	55.1999	17,752.4	53.4148	17,752.4	42.6202	17,752.4	45.8026	17,752.4	41.5761	17,752.4	38.2609	17,752.4	39.6839	17,752.4	29.5111	17,752.4	42.2782	17,752.4	28.1857	17,752.4	30.6717	17,752.4	40.3224	17,752.4	32.6838	17,752.4	34.9958	17,752.4	12.3142	17,752.4	40.0397	17,752.4	36.8132	17,752.4	29.9468	17,752.4	38.4873	17,752.4	38.5912	17,752.4	44.2453	17,752.4	40.7058
18,379.4	86.2031	18,379.4	86.0671	18,379.4	85.247	18,379.4	83.6537	18,379.4	81.9421	18,379.4	79.3013	18,379.4	77.2264	18,379.4	73.3121	18,379.4	69.3862	18,379.4	68.5983	18,379.4	61.8676	18,379.4	54.6183	18,379.4	59.7295	18,379.4	56.6727	18,379.4	48.5006	18,379.4	51.8315	18,379.4	51.5269	18,379.4	42.5831	18,379.4	39.3713	18,379.4	34.7703	18,379.4	48.0548	18,379.4	19.2721	18,379.4	47.838	18,379.4	27.9732	18,379.4	34.4877	18,379.4	37.7748	18,379.4	37.6832	18,379.4	21.2067	18,379.4	39.2506	18,379.4	27.8136	18,379.4	42.3265	18,379.4	33.7411	18,379.4	37.9356	18,379.4	46.565	18,379.4	48.8326	18,379.4	42.8187
19,026.9	88.9098	19,026.9	88.1779	19,026.9	88.423	19,026.9	84.9913	19,026.9	85.0015	19,026.9	79.6846	19,026.9	79.5562	19,026.9	70.1152	19,026.9	69.8807	19,026.9	61.3846	19,026.9	62.2111	19,026.9	53.6292	19,026.9	62.0033	19,026.9	45.0712	19,026.9	55.2338	19,026.9	41.1511	19,026.9	54.7881	19,026.9	41.9347	19,026.9	48.7963	19,026.9	40.0984	19,026.9	47.8866	19,026.9	38.094	19,026.9	49.3449	19,026.9	37.9601	19,026.9	42.8763	19,026.9	33.4757	19,026.9	40.3705	19,026.9	41.1973	19,026.9	38.6534	19,026.9	42.2025	19,026.9	45.8546	19,026.9	42.8736	19,026.9	43.2398	19,026.9	49.0641	19,026.9	46.4845	19,026.9	40.007
19,697.8	88.6309	19,697.8	87.9099	19,697.8	88.0497	19,697.8	84.4133	19,697.8	83.713	19,697.8	78.2223	19,697.8	76.7001	19,697.8	61.0513	19,697.8	62.9114	19,697.8	62.2785	19,697.8	60.6377	19,697.8	64.2218	19,697.8	61.9649	19,697.8	59.1109	19,697.8	39.1984	19,697.8	54.9645	19,697.8	55.5347	19,697.8	48.4093	19,697.8	48.8358	19,697.8	44.8147	19,697.8	52.9104	19,697.8	40.526	19,697.8	47.7515	19,697.8	38.4443	19,697.8	38.8563	19,697.8	40.8333	19,697.8	44.5442	19,697.8	44.1325	19,697.8	41.265	19,697.8	45.4571	19,697.8	44.1832	19,697.8	46.1205	19,697.8	44.6092	19,697.8	47.6767	19,697.8	49.4267	19,697.8	38.3242
19,999.5	84.6489	19,999.5	83.8772	19,999.5	84.0127	19,999.5	80.3468	19,999.5	79.0179	19,999.5	73.0655	19,999.5	69.8399	19,999.5	61.0308	19,999.5	61.147	19,999.5	65.6977	19,999.5	63.436	19,999.5	63.9946	19,999.5	58.2844	19,999.5	58.0296	19,999.5	44.5124	19,999.5	54.9302	19,999.5	49.0113	19,999.5	46.0307	19,999.5	43.0988	19,999.5	43.336	19,999.5	52.4108	19,999.5	42.5519	19,999.5	47.8965	19,999.5	24.2865	19,999.5	51.5546	19,999.5	45.318	19,999.5	43.3286	19,999.5	49.6171	19,999.5	46.5642	19,999.5	44.4476	19,999.5	42.232	19,999.5	44.3665	19,999.5	46.2213	19,999.5	38.1288	19,999.5	44.2619	19,999.5	43.3965
