"SPL Horizontal"																																																																							
"On-Axis"		"10°"		"-10°"		"20°"		"-20°"		"30°"		"-30°"		"40°"		"-40°"		"50°"		"-50°"		"60°"		"-60°"		"70°"		"-70°"		"80°"		"-80°"		"90°"		"-90°"		"100°"		"-100°"		"110°"		"-110°"		"120°"		"-120°"		"130°"		"-130°"		"140°"		"-140°"		"150°"		"-150°"		"160°"		"-160°"		"170°"		"-170°"		"180°"	
"Frequency [Hz]"	"Sound Pessure Level [dB]  / [2.83V 1m] "	"Frequency [Hz]"	"Sound Pessure Level [dB]  / [2.83V 1m] "	"Frequency [Hz]"	"Sound Pessure Level [dB]  / [2.83V 1m] "	"Frequency [Hz]"	"Sound Pessure Level [dB]  / [2.83V 1m] "	"Frequency [Hz]"	"Sound Pessure Level [dB]  / [2.83V 1m] "	"Frequency [Hz]"	"Sound Pessure Level [dB]  / [2.83V 1m] "	"Frequency [Hz]"	"Sound Pessure Level [dB]  / [2.83V 1m] "	"Frequency [Hz]"	"Sound Pessure Level [dB]  / [2.83V 1m] "	"Frequency [Hz]"	"Sound Pessure Level [dB]  / [2.83V 1m] "	"Frequency [Hz]"	"Sound Pessure Level [dB]  / [2.83V 1m] "	"Frequency [Hz]"	"Sound Pessure Level [dB]  / [2.83V 1m] "	"Frequency [Hz]"	"Sound Pessure Level [dB]  / [2.83V 1m] "	"Frequency [Hz]"	"Sound Pessure Level [dB]  / [2.83V 1m] "	"Frequency [Hz]"	"Sound Pessure Level [dB]  / [2.83V 1m] "	"Frequency [Hz]"	"Sound Pessure Level [dB]  / [2.83V 1m] "	"Frequency [Hz]"	"Sound Pessure Level [dB]  / [2.83V 1m] "	"Frequency [Hz]"	"Sound Pessure Level [dB]  / [2.83V 1m] "	"Frequency [Hz]"	"Sound Pessure Level [dB]  / [2.83V 1m] "	"Frequency [Hz]"	"Sound Pessure Level [dB]  / [2.83V 1m] "	"Frequency [Hz]"	"Sound Pessure Level [dB]  / [2.83V 1m] "	"Frequency [Hz]"	"Sound Pessure Level [dB]  / [2.83V 1m] "	"Frequency [Hz]"	"Sound Pessure Level [dB]  / [2.83V 1m] "	"Frequency [Hz]"	"Sound Pessure Level [dB]  / [2.83V 1m] "	"Frequency [Hz]"	"Sound Pessure Level [dB]  / [2.83V 1m] "	"Frequency [Hz]"	"Sound Pessure Level [dB]  / [2.83V 1m] "	"Frequency [Hz]"	"Sound Pessure Level [dB]  / [2.83V 1m] "	"Frequency [Hz]"	"Sound Pessure Level [dB]  / [2.83V 1m] "	"Frequency [Hz]"	"Sound Pessure Level [dB]  / [2.83V 1m] "	"Frequency [Hz]"	"Sound Pessure Level [dB]  / [2.83V 1m] "	"Frequency [Hz]"	"Sound Pessure Level [dB]  / [2.83V 1m] "	"Frequency [Hz]"	"Sound Pessure Level [dB]  / [2.83V 1m] "	"Frequency [Hz]"	"Sound Pessure Level [dB]  / [2.83V 1m] "	"Frequency [Hz]"	"Sound Pessure Level [dB]  / [2.83V 1m] "	"Frequency [Hz]"	"Sound Pessure Level [dB]  / [2.83V 1m] "	"Frequency [Hz]"	"Sound Pessure Level [dB]  / [2.83V 1m] "	"Frequency [Hz]"	"Sound Pessure Level [dB]  / [2.83V 1m] "
20.5078	43.3236	20.5078	43.1562	20.5078	43.4748	20.5078	42.9855	20.5078	43.6191	20.5078	42.8499	20.5078	43.7827	20.5078	42.8109	20.5078	44.0013	20.5078	42.9392	20.5078	44.3093	20.5078	43.2854	20.5078	44.7265	20.5078	43.8525	20.5078	45.2504	20.5078	44.5916	20.5078	45.8564	20.5078	45.4264	20.5078	46.5069	20.5078	46.2818	20.5078	47.1627	20.5078	47.1004	20.5078	47.7902	20.5078	47.8438	20.5078	48.3643	20.5078	48.4896	20.5078	48.8677	20.5078	49.0257	20.5078	49.2888	20.5078	49.4469	20.5078	49.62	20.5078	49.752	20.5078	49.8554	20.5078	49.9424	20.5078	49.9904	20.5078	50.0207
21.9727	50.9313	21.9727	50.9778	21.9727	50.9507	21.9727	51.0885	21.9727	51.0373	21.9727	51.2615	21.9727	51.1913	21.9727	51.4939	21.9727	51.4105	21.9727	51.7805	21.9727	51.6887	21.9727	52.1133	21.9727	52.0154	21.9727	52.4809	21.9727	52.3772	21.9727	52.8695	21.9727	52.7587	21.9727	53.2638	21.9727	53.1447	21.9727	53.6488	21.9727	53.5214	21.9727	54.0107	21.9727	53.8775	21.9727	54.3381	21.9727	54.2041	21.9727	54.6222	21.9727	54.4942	21.9727	54.8567	21.9727	54.7426	21.9727	55.0377	21.9727	54.9448	21.9727	55.1628	21.9727	55.0974	21.9727	55.2311	21.9727	55.1973	21.9727	55.2424
23.4375	53.5981	23.4375	53.5684	23.4375	53.6287	23.4375	53.5423	23.4375	53.6603	23.4375	53.5254	23.4375	53.6958	23.4375	53.5257	23.4375	53.7399	23.4375	53.552	23.4375	53.7979	23.4375	53.6126	23.4375	53.8746	23.4375	53.7126	23.4375	53.9736	23.4375	53.8528	23.4375	54.096	23.4375	54.029	23.4375	54.2404	23.4375	54.232	23.4375	54.4025	23.4375	54.4498	23.4375	54.5762	23.4375	54.6687	23.4375	54.7534	23.4375	54.8756	23.4375	54.9252	23.4375	55.0589	23.4375	55.0826	23.4375	55.2094	23.4375	55.2167	23.4375	55.3202	23.4375	55.3199	23.4375	55.3873	23.4375	55.3855	23.4375	55.4089
24.9023	54.228	24.9023	54.1915	24.9023	54.2682	24.9023	54.1618	24.9023	54.3128	24.9023	54.1452	24.9023	54.3653	24.9023	54.1511	24.9023	54.4312	24.9023	54.1899	24.9023	54.5166	24.9023	54.2714	24.9023	54.6267	24.9023	54.4018	24.9023	54.765	24.9023	54.5818	24.9023	54.9314	24.9023	54.8056	24.9023	55.123	24.9023	55.0617	24.9023	55.3331	24.9023	55.3346	24.9023	55.5531	24.9023	55.6072	24.9023	55.7724	24.9023	55.8635	24.9023	55.9802	24.9023	56.0895	24.9023	56.1662	24.9023	56.2748	24.9023	56.321	24.9023	56.412	24.9023	56.4369	24.9023	56.497	24.9023	56.5076	24.9023	56.5286
26.3672	55.0797	26.3672	55.0941	26.3672	55.0904	26.3672	55.1366	26.3672	55.1262	26.3672	55.2122	26.3672	55.1898	26.3672	55.3267	26.3672	55.2858	26.3672	55.4848	26.3672	55.4192	26.3672	55.6885	26.3672	55.594	26.3672	55.9353	26.3672	55.8107	26.3672	56.2181	26.3672	56.0658	26.3672	56.5256	26.3672	56.3512	26.3672	56.8438	26.3672	56.6553	26.3672	57.1579	26.3672	56.9644	26.3672	57.4536	26.3672	57.2647	26.3672	57.7183	26.3672	57.5434	26.3672	57.9418	26.3672	57.7896	26.3672	58.1166	26.3672	57.9948	26.3672	58.2376	26.3672	58.1526	26.3672	58.302	26.3672	58.2583	26.3672	58.3087
27.832	58.4108	27.832	58.4312	27.832	58.4083	27.832	58.4698	27.832	58.4251	27.832	58.5283	27.832	58.4642	27.832	58.6096	27.832	58.5292	27.832	58.7162	27.832	58.6235	27.832	58.8498	27.832	58.7492	27.832	59.0102	27.832	58.9058	27.832	59.1944	27.832	59.09	27.832	59.3969	27.832	59.2954	27.832	59.6101	27.832	59.5137	27.832	59.8248	27.832	59.7353	27.832	60.0314	27.832	59.9501	27.832	60.2207	27.832	60.1492	27.832	60.3846	27.832	60.3244	27.832	60.5165	27.832	60.4692	27.832	60.6115	27.832	60.5788	27.832	60.6662	27.832	60.6495	27.832	60.6789
29.2969	60.7568	29.2969	60.7604	29.2969	60.7649	29.2969	60.7764	29.2969	60.7853	29.2969	60.8065	29.2969	60.8195	29.2969	60.853	29.2969	60.8697	29.2969	60.9184	29.2969	60.9377	29.2969	61.0047	29.2969	61.0249	29.2969	61.1123	29.2969	61.1312	29.2969	61.24	29.2969	61.255	29.2969	61.3841	29.2969	61.393	29.2969	61.5392	29.2969	61.5404	29.2969	61.6983	29.2969	61.6916	29.2969	61.8539	29.2969	61.84	29.2969	61.9983	29.2969	61.9794	29.2969	62.1247	29.2969	62.1037	29.2969	62.2274	29.2969	62.2077	29.2969	62.302	29.2969	62.2868	29.2969	62.3459	29.2969	62.3376	29.2969	62.3577
30.7617	62.2833	30.7617	62.282	30.7617	62.2935	30.7617	62.2907	30.7617	62.3128	30.7617	62.3111	30.7617	62.3422	30.7617	62.3457	30.7617	62.3832	30.7617	62.3967	30.7617	62.4376	30.7617	62.4662	30.7617	62.5071	30.7617	62.5549	30.7617	62.5922	30.7617	62.6618	30.7617	62.6924	30.7617	62.7841	30.7617	62.8059	30.7617	62.9172	30.7617	62.9292	30.7617	63.0552	30.7617	63.0576	30.7617	63.1912	30.7617	63.1856	30.7617	63.3185	30.7617	63.3072	30.7617	63.4307	30.7617	63.4166	30.7617	63.5225	30.7617	63.5085	30.7617	63.5898	30.7617	63.5787	30.7617	63.6297	30.7617	63.6236	30.7617	63.641
32.2266	63.9688	32.2266	63.9743	32.2266	63.9717	32.2266	63.9887	32.2266	63.9831	32.2266	64.0133	32.2266	64.004	32.2266	64.0497	32.2266	64.0357	32.2266	64.0997	32.2266	64.0799	32.2266	64.1643	32.2266	64.1378	32.2266	64.244	32.2266	64.2101	32.2266	64.3379	32.2266	64.2963	32.2266	64.4436	32.2266	64.3948	32.2266	64.5573	32.2266	64.5026	32.2266	64.6742	32.2266	64.6157	32.2266	64.7887	32.2266	64.7291	32.2266	64.8952	32.2266	64.8377	32.2266	64.9882	32.2266	64.9363	32.2266	65.0632	32.2266	65.0204	32.2266	65.1166	32.2266	65.0861	32.2266	65.1461	32.2266	65.1302	32.2266	65.1506
33.6914	65.5791	33.6914	65.5837	33.6914	65.5808	33.6914	65.5952	33.6914	65.589	33.6914	65.6147	33.6914	65.6045	33.6914	65.6434	33.6914	65.6286	33.6914	65.683	33.6914	65.6627	33.6914	65.7345	33.6914	65.708	33.6914	65.7983	33.6914	65.7653	33.6914	65.8739	33.6914	65.8345	33.6914	65.9595	33.6914	65.9145	33.6914	66.0521	33.6914	66.003	33.6914	66.1477	33.6914	66.0966	33.6914	66.2419	33.6914	66.1912	33.6914	66.3299	33.6914	66.2822	33.6914	66.4073	33.6914	66.3652	33.6914	66.47	33.6914	66.436	33.6914	66.5151	33.6914	66.4912	33.6914	66.5403	33.6914	66.528	33.6914	66.5447
35.1563	67.1049	35.1563	67.1145	35.1563	67.1006	35.1563	67.1293	35.1563	67.1018	35.1563	67.1502	35.1563	67.1095	35.1563	67.1779	35.1563	67.1248	35.1563	67.2136	35.1563	67.1491	35.1563	67.2581	35.1563	67.1836	35.1563	67.3118	35.1563	67.229	35.1563	67.3741	35.1563	67.2852	35.1563	67.4438	35.1563	67.3514	35.1563	67.5187	35.1563	67.4256	35.1563	67.5957	35.1563	67.505	35.1563	67.6712	35.1563	67.5861	35.1563	67.7415	35.1563	67.6649	35.1563	67.8028	35.1563	67.7376	35.1563	67.8519	35.1563	67.8006	35.1563	67.8861	35.1563	67.8507	35.1563	67.9036	35.1563	67.8855	35.1563	67.9034
36.6211	68.2434	36.6211	68.2477	36.6211	68.2434	36.6211	68.2565	36.6211	68.2475	36.6211	68.2705	36.6211	68.2564	36.6211	68.2909	36.6211	68.271	36.6211	68.3187	36.6211	68.2922	36.6211	68.3547	36.6211	68.321	36.6211	68.3993	36.6211	68.3583	36.6211	68.4522	36.6211	68.4041	36.6211	68.5121	36.6211	68.458	36.6211	68.5771	36.6211	68.5186	36.6211	68.6444	36.6211	68.5839	36.6211	68.7107	36.6211	68.6509	36.6211	68.7726	36.6211	68.7165	36.6211	68.8267	36.6211	68.7773	36.6211	68.8702	36.6211	68.8303	36.6211	68.9006	36.6211	68.8726	36.6211	68.9164	36.6211	68.9019	36.6211	68.9168
38.0859	69.9319	38.0859	69.9402	38.0859	69.9273	38.0859	69.9523	38.0859	69.9265	38.0859	69.9687	38.0859	69.93	38.0859	69.9898	38.0859	69.9384	38.0859	70.0164	38.0859	69.9527	38.0859	70.0488	38.0859	69.9736	38.0859	70.0873	38.0859	70.0015	38.0859	70.1315	38.0859	70.0368	38.0859	70.1803	38.0859	70.0792	38.0859	70.2321	38.0859	70.1277	38.0859	70.2848	38.0859	70.1808	38.0859	70.3358	38.0859	70.2364	38.0859	70.3825	38.0859	70.2918	38.0859	70.4222	38.0859	70.3443	38.0859	70.4528	38.0859	70.3911	38.0859	70.4725	38.0859	70.4299	38.0859	70.4802	38.0859	70.4585	38.0859	70.4755
39.5508	71.3476	39.5508	71.3622	39.5508	71.3355	39.5508	71.3791	39.5508	71.3264	39.5508	71.3984	39.5508	71.321	39.5508	71.4205	39.5508	71.3203	39.5508	71.4457	39.5508	71.3253	39.5508	71.4743	39.5508	71.337	39.5508	71.5067	39.5508	71.3562	39.5508	71.5425	39.5508	71.3833	39.5508	71.5812	39.5508	71.4181	39.5508	71.6216	39.5508	71.4597	39.5508	71.6622	39.5508	71.5069	39.5508	71.701	39.5508	71.5575	39.5508	71.736	39.5508	71.609	39.5508	71.7652	39.5508	71.6589	39.5508	71.7866	39.5508	71.7042	39.5508	71.7989	39.5508	71.7428	39.5508	71.8009	39.5508	71.7725	39.5508	71.7921
41.0156	72.3778	41.0156	72.4235	41.0156	72.3335	41.0156	72.47	41.0156	72.2916	41.0156	72.517	41.0156	72.2533	41.0156	72.5643	41.0156	72.2199	41.0156	72.6116	41.0156	72.1932	41.0156	72.6587	41.0156	72.175	41.0156	72.7051	41.0156	72.1668	41.0156	72.7496	41.0156	72.1702	41.0156	72.7911	41.0156	72.186	41.0156	72.8277	41.0156	72.2145	41.0156	72.8572	41.0156	72.2555	41.0156	72.8775	41.0156	72.3077	41.0156	72.8863	41.0156	72.3693	41.0156	72.8819	41.0156	72.4382	41.0156	72.8633	41.0156	72.5115	41.0156	72.8303	41.0156	72.5862	41.0156	72.7838	41.0156	72.6587	41.0156	72.7257
42.4805	73.8526	42.4805	73.8529	42.4805	73.8532	42.4805	73.8541	42.4805	73.8547	42.4805	73.8565	42.4805	73.8572	42.4805	73.8602	42.4805	73.8611	42.4805	73.8657	42.4805	73.8667	42.4805	73.8731	42.4805	73.8743	42.4805	73.8828	42.4805	73.8839	42.4805	73.8946	42.4805	73.8955	42.4805	73.9083	42.4805	73.9086	42.4805	73.9235	42.4805	73.9228	42.4805	73.9394	42.4805	73.9371	42.4805	73.9553	42.4805	73.951	42.4805	73.97	42.4805	73.9639	42.4805	73.9828	42.4805	73.9753	42.4805	73.9928	42.4805	73.9851	42.4805	73.9995	42.4805	73.9931	42.4805	74.0026	42.4805	73.999	42.4805	74.0023
43.9453	74.8483	43.9453	74.8555	43.9453	74.8415	43.9453	74.863	43.9453	74.8353	43.9453	74.8708	43.9453	74.8302	43.9453	74.8792	43.9453	74.8266	43.9453	74.8883	43.9453	74.825	43.9453	74.8984	43.9453	74.8261	43.9453	74.9095	43.9453	74.8303	43.9453	74.9217	43.9453	74.8378	43.9453	74.9348	43.9453	74.8485	43.9453	74.9484	43.9453	74.8623	43.9453	74.9619	43.9453	74.8785	43.9453	74.9746	43.9453	74.8964	43.9453	74.9856	43.9453	74.9151	43.9453	74.9941	43.9453	74.9338	43.9453	74.9993	43.9453	74.9516	43.9453	75.0008	43.9453	74.9676	43.9453	74.9981	43.9453	74.9811	43.9453	74.9915
45.4102	75.6728	45.4102	75.6797	45.4102	75.6658	45.4102	75.6863	45.4102	75.6589	45.4102	75.6926	45.4102	75.6524	45.4102	75.6989	45.4102	75.647	45.4102	75.7053	45.4102	75.643	45.4102	75.712	45.4102	75.6411	45.4102	75.7193	45.4102	75.6418	45.4102	75.7274	45.4102	75.6453	45.4102	75.7361	45.4102	75.6519	45.4102	75.7454	45.4102	75.6615	45.4102	75.7548	45.4102	75.6736	45.4102	75.7637	45.4102	75.6878	45.4102	75.7715	45.4102	75.7033	45.4102	75.7775	45.4102	75.7193	45.4102	75.7809	45.4102	75.7349	45.4102	75.7812	45.4102	75.7493	45.4102	75.778	45.4102	75.7617	45.4102	75.7715
46.875	76.4504	46.875	76.4619	46.875	76.4379	46.875	76.4722	46.875	76.4246	46.875	76.4812	46.875	76.411	46.875	76.4889	46.875	76.3978	46.875	76.4954	46.875	76.3855	46.875	76.501	46.875	76.3749	46.875	76.5057	46.875	76.3667	46.875	76.5097	46.875	76.3614	46.875	76.5128	46.875	76.3594	46.875	76.5151	46.875	76.3611	46.875	76.5162	46.875	76.3665	46.875	76.5158	46.875	76.3754	46.875	76.5135	46.875	76.3873	46.875	76.5091	46.875	76.4016	46.875	76.5021	46.875	76.4175	46.875	76.4927	46.875	76.4343	46.875	76.4807	46.875	76.4509	46.875	76.4666
48.3398	77.2346	48.3398	77.2481	48.3398	77.2192	48.3398	77.2593	48.3398	77.2021	48.3398	77.2681	48.3398	77.1839	48.3398	77.2746	48.3398	77.1652	48.3398	77.2788	48.3398	77.1469	48.3398	77.2809	48.3398	77.1296	48.3398	77.2811	48.3398	77.1142	48.3398	77.2794	48.3398	77.1015	48.3398	77.276	48.3398	77.0922	48.3398	77.2709	48.3398	77.0867	48.3398	77.2641	48.3398	77.0853	48.3398	77.2556	48.3398	77.0882	48.3398	77.2452	48.3398	77.095	48.3398	77.2329	48.3398	77.1053	48.3398	77.2189	48.3398	77.1187	48.3398	77.2033	48.3398	77.1342	48.3398	77.1865	48.3398	77.1513	48.3398	77.1689
51.2695	78.4899	51.2695	78.4955	51.2695	78.4818	51.2695	78.4985	51.2695	78.4714	51.2695	78.4989	51.2695	78.459	51.2695	78.4968	51.2695	78.4449	51.2695	78.4923	51.2695	78.4297	51.2695	78.4858	51.2695	78.4138	51.2695	78.4775	51.2695	78.3978	51.2695	78.4678	51.2695	78.3825	51.2695	78.4571	51.2695	78.3684	51.2695	78.4456	51.2695	78.3562	51.2695	78.4337	51.2695	78.3463	51.2695	78.4216	51.2695	78.3392	51.2695	78.4095	51.2695	78.335	51.2695	78.3975	51.2695	78.3338	51.2695	78.3858	51.2695	78.3355	51.2695	78.3746	51.2695	78.3398	51.2695	78.364	51.2695	78.3462	51.2695	78.3544
52.7344	79.2355	52.7344	79.2412	52.7344	79.2268	52.7344	79.2437	52.7344	79.2153	52.7344	79.243	52.7344	79.2013	52.7344	79.2393	52.7344	79.1852	52.7344	79.2327	52.7344	79.1675	52.7344	79.2235	52.7344	79.1488	52.7344	79.212	52.7344	79.1298	52.7344	79.1987	52.7344	79.1112	52.7344	79.1841	52.7344	79.0937	52.7344	79.1685	52.7344	79.078	52.7344	79.1525	52.7344	79.0647	52.7344	79.1365	52.7344	79.0543	52.7344	79.1208	52.7344	79.0471	52.7344	79.1058	52.7344	79.0431	52.7344	79.0917	52.7344	79.0424	52.7344	79.0788	52.7344	79.0448	52.7344	79.0673	52.7344	79.05	52.7344	79.0576
54.1992	79.7394	54.1992	79.7443	54.1992	79.7314	54.1992	79.746	54.1992	79.7205	54.1992	79.7445	54.1992	79.707	54.1992	79.7398	54.1992	79.6913	54.1992	79.7323	54.1992	79.6739	54.1992	79.7222	54.1992	79.6554	54.1992	79.7097	54.1992	79.6364	54.1992	79.6955	54.1992	79.6176	54.1992	79.6799	54.1992	79.5998	54.1992	79.6634	54.1992	79.5836	54.1992	79.6465	54.1992	79.5697	54.1992	79.6298	54.1992	79.5584	54.1992	79.6136	54.1992	79.5501	54.1992	79.5984	54.1992	79.5449	54.1992	79.5845	54.1992	79.5428	54.1992	79.5722	54.1992	79.5437	54.1992	79.5618	54.1992	79.5473	54.1992	79.5534
55.6641	80.1605	55.6641	80.1691	55.6641	80.1478	55.6641	80.1731	55.6641	80.1311	55.6641	80.1727	55.6641	80.1108	55.6641	80.1679	55.6641	80.0876	55.6641	80.1588	55.6641	80.0621	55.6641	80.1459	55.6641	80.0352	55.6641	80.1294	55.6641	80.0076	55.6641	80.1101	55.6641	79.9805	55.6641	80.0886	55.6641	79.9549	55.6641	80.0655	55.6641	79.9318	55.6641	80.0415	55.6641	79.912	55.6641	80.0173	55.6641	79.8963	55.6641	79.9936	55.6641	79.8852	55.6641	79.9708	55.6641	79.879	55.6641	79.9495	55.6641	79.8775	55.6641	79.9301	55.6641	79.8806	55.6641	79.9131	55.6641	79.8878	55.6641	79.8988
58.5938	80.9885	58.5938	80.9961	58.5938	80.9759	58.5938	80.9986	58.5938	80.9586	58.5938	80.996	58.5938	80.937	58.5938	80.9884	58.5938	80.9116	58.5938	80.9763	58.5938	80.8832	58.5938	80.96	58.5938	80.8526	58.5938	80.94	58.5938	80.8209	58.5938	80.9171	58.5938	80.7892	58.5938	80.892	58.5938	80.7587	58.5938	80.8654	58.5938	80.7306	58.5938	80.8382	58.5938	80.7061	58.5938	80.8111	58.5938	80.6861	58.5938	80.7847	58.5938	80.6714	58.5938	80.7595	58.5938	80.6624	58.5938	80.736	58.5938	80.6591	58.5938	80.7147	58.5938	80.6613	58.5938	80.696	58.5938	80.6687	58.5938	80.6804
60.0586	81.2202	60.0586	81.2238	60.0586	81.2108	60.0586	81.2218	60.0586	81.196	60.0586	81.2141	60.0586	81.1761	60.0586	81.2011	60.0586	81.1516	60.0586	81.1832	60.0586	81.1232	60.0586	81.161	60.0586	81.0918	60.0586	81.1352	60.0586	81.0584	60.0586	81.1066	60.0586	81.0242	60.0586	81.0762	60.0586	80.9905	60.0586	81.0449	60.0586	80.9585	60.0586	81.0138	60.0586	80.9294	60.0586	80.9838	60.0586	80.9044	60.0586	80.9557	60.0586	80.8841	60.0586	80.9301	60.0586	80.8691	60.0586	80.9077	60.0586	80.8596	60.0586	80.8888	60.0586	80.8556	60.0586	80.8738	60.0586	80.8569	60.0586	80.8631
62.9883	81.8303	62.9883	81.8325	62.9883	81.822	62.9883	81.8287	62.9883	81.8079	62.9883	81.8189	62.9883	81.7885	62.9883	81.8033	62.9883	81.7641	62.9883	81.7823	62.9883	81.7355	62.9883	81.7566	62.9883	81.7035	62.9883	81.7269	62.9883	81.6691	62.9883	81.6941	62.9883	81.6333	62.9883	81.6593	62.9883	81.5975	62.9883	81.6237	62.9883	81.5626	62.9883	81.5885	62.9883	81.5301	62.9883	81.5548	62.9883	81.5009	62.9883	81.5236	62.9883	81.476	62.9883	81.496	62.9883	81.456	62.9883	81.4726	62.9883	81.4415	62.9883	81.4539	62.9883	81.4327	62.9883	81.4404	62.9883	81.4296	62.9883	81.4322
64.4531	82.143	64.4531	82.1448	64.4531	82.1348	64.4531	82.1401	64.4531	82.1203	64.4531	82.129	64.4531	82.1	64.4531	82.1118	64.4531	82.0744	64.4531	82.0889	64.4531	82.0443	64.4531	82.061	64.4531	82.0104	64.4531	82.029	64.4531	81.974	64.4531	81.9939	64.4531	81.936	64.4531	81.9568	64.4531	81.8978	64.4531	81.919	64.4531	81.8607	64.4531	81.8818	64.4531	81.8259	64.4531	81.8463	64.4531	81.7947	64.4531	81.8137	64.4531	81.7679	64.4531	81.7849	64.4531	81.7463	64.4531	81.7606	64.4531	81.7305	64.4531	81.7413	64.4531	81.7207	64.4531	81.7275	64.4531	81.717	64.4531	81.7193
67.3828	82.5892	67.3828	82.5899	67.3828	82.5814	67.3828	82.5833	67.3828	82.5666	67.3828	82.5697	67.3828	82.5452	67.3828	82.5494	67.3828	82.518	67.3828	82.5231	67.3828	82.4856	67.3828	82.4915	67.3828	82.449	67.3828	82.4556	67.3828	82.4094	67.3828	82.4165	67.3828	82.3681	67.3828	82.3758	67.3828	82.3265	67.3828	82.3346	67.3828	82.286	67.3828	82.2944	67.3828	82.2479	67.3828	82.2566	67.3828	82.2136	67.3828	82.2223	67.3828	82.1841	67.3828	82.1923	67.3828	82.1601	67.3828	82.1674	67.3828	82.1423	67.3828	82.148	67.3828	82.1308	67.3828	82.1345	67.3828	82.1258	67.3828	82.127
68.8477	82.8073	68.8477	82.8072	68.8477	82.7998	68.8477	82.7996	68.8477	82.7849	68.8477	82.7846	68.8477	82.7633	68.8477	82.7627	68.8477	82.7353	68.8477	82.7344	68.8477	82.702	68.8477	82.7007	68.8477	82.6644	68.8477	82.6626	68.8477	82.6235	68.8477	82.6214	68.8477	82.5809	68.8477	82.5785	68.8477	82.5378	68.8477	82.5355	68.8477	82.4958	68.8477	82.4937	68.8477	82.4563	68.8477	82.4546	68.8477	82.4205	68.8477	82.4194	68.8477	82.3895	68.8477	82.3889	68.8477	82.3642	68.8477	82.364	68.8477	82.3449	68.8477	82.345	68.8477	82.332	68.8477	82.3322	68.8477	82.3256	68.8477	82.3257
71.7773	83.324	71.7773	83.322	71.7773	83.3173	71.7773	83.3113	71.7773	83.3023	71.7773	83.2923	71.7773	83.2794	71.7773	83.2654	71.7773	83.2495	71.7773	83.2316	71.7773	83.2133	71.7773	83.1919	71.7773	83.1723	71.7773	83.1476	71.7773	83.1276	71.7773	83.1004	71.7773	83.0809	71.7773	83.0518	71.7773	83.0336	71.7773	83.0038	71.7773	82.9873	71.7773	82.9579	71.7773	82.9436	71.7773	82.9157	71.7773	82.9038	71.7773	82.8785	71.7773	82.8689	71.7773	82.8472	71.7773	82.8398	71.7773	82.8223	71.7773	82.817	71.7773	82.8043	71.7773	82.8008	71.7773	82.7931	71.7773	82.7914	71.7773	82.7888
74.707	83.7331	74.707	83.7299	74.707	83.7269	74.707	83.7172	74.707	83.7116	74.707	83.6954	74.707	83.6879	74.707	83.6649	74.707	83.6565	74.707	83.6267	74.707	83.6186	74.707	83.5819	74.707	83.5754	74.707	83.5322	74.707	83.5284	74.707	83.4793	74.707	83.479	74.707	83.4252	74.707	83.4289	74.707	83.3718	74.707	83.3796	74.707	83.3213	74.707	83.3327	74.707	83.2754	74.707	83.2895	74.707	83.2355	74.707	83.251	74.707	83.2029	74.707	83.218	74.707	83.1781	74.707	83.1912	74.707	83.1613	74.707	83.171	74.707	83.1524	74.707	83.1576	74.707	83.1513
77.6367	83.9874	77.6367	83.9875	77.6367	83.9775	77.6367	83.9777	77.6367	83.9582	77.6367	83.9581	77.6367	83.9303	77.6367	83.9293	77.6367	83.8948	77.6367	83.8922	77.6367	83.853	77.6367	83.8481	77.6367	83.8063	77.6367	83.7985	77.6367	83.7563	77.6367	83.7452	77.6367	83.7048	77.6367	83.6903	77.6367	83.6535	77.6367	83.6359	77.6367	83.604	77.6367	83.584	77.6367	83.5577	77.6367	83.5364	77.6367	83.516	77.6367	83.4946	77.6367	83.4797	77.6367	83.4598	77.6367	83.4497	77.6367	83.4325	77.6367	83.4261	77.6367	83.4129	77.6367	83.4094	77.6367	83.4011	77.6367	83.3995	77.6367	83.3967
79.1016	84.1053	79.1016	84.1071	79.1016	84.0933	79.1016	84.0986	79.1016	84.0716	79.1016	84.08	79.1016	84.0411	79.1016	84.0518	79.1016	84.0028	79.1016	84.0151	79.1016	83.9582	79.1016	83.9711	79.1016	83.9089	79.1016	83.9214	79.1016	83.8566	79.1016	83.8678	79.1016	83.8032	79.1016	83.8124	79.1016	83.7505	79.1016	83.7574	79.1016	83.7003	79.1016	83.7047	79.1016	83.6539	79.1016	83.6562	79.1016	83.6128	79.1016	83.6133	79.1016	83.5779	79.1016	83.5771	79.1016	83.5495	79.1016	83.5482	79.1016	83.5282	79.1016	83.5268	79.1016	83.5138	79.1016	83.5128	79.1016	83.5065	79.1016	83.5061
82.0313	84.4388	82.0313	84.4415	82.0313	84.4251	82.0313	84.4331	82.0313	84.4008	82.0313	84.4139	82.0313	84.367	82.0313	84.3846	82.0313	84.3246	82.0313	84.3462	82.0313	84.2755	82.0313	84.3003	82.0313	84.2212	82.0313	84.2486	82.0313	84.1639	82.0313	84.193	82.0313	84.1057	82.0313	84.1358	82.0313	84.0488	82.0313	84.0789	82.0313	83.995	82.0313	84.0245	82.0313	83.9462	82.0313	83.9743	82.0313	83.9037	82.0313	83.9297	82.0313	83.8686	82.0313	83.8915	82.0313	83.8412	82.0313	83.8603	82.0313	83.8218	82.0313	83.8361	82.0313	83.8102	82.0313	83.8191	82.0313	83.806	82.0313	83.809
84.9609	84.7544	84.9609	84.7558	84.9609	84.7415	84.9609	84.7453	84.9609	84.7173	84.9609	84.7236	84.9609	84.6827	84.9609	84.6915	84.9609	84.6392	84.9609	84.6501	84.9609	84.5884	84.9609	84.6012	84.9609	84.5322	84.9609	84.5468	84.9609	84.4729	84.9609	84.489	84.9609	84.4126	84.9609	84.4301	84.9609	84.3538	84.9609	84.3724	84.9609	84.2985	84.9609	84.3179	84.9609	84.2485	84.9609	84.2682	84.9609	84.2054	84.9609	84.2247	84.9609	84.1699	84.9609	84.188	84.9609	84.1426	84.9609	84.1583	84.9609	84.1233	84.9609	84.1356	84.9609	84.1118	84.9609	84.1197	84.9609	84.1077	84.9609	84.1103
87.8906	84.9495	87.8906	84.9499	87.8906	84.9364	87.8906	84.9373	87.8906	84.911	87.8906	84.9125	87.8906	84.8742	87.8906	84.8762	87.8906	84.8276	87.8906	84.83	87.8906	84.773	87.8906	84.7757	87.8906	84.7126	87.8906	84.7157	87.8906	84.6486	87.8906	84.6523	87.8906	84.5838	87.8906	84.5883	87.8906	84.5205	87.8906	84.526	87.8906	84.4612	87.8906	84.4679	87.8906	84.4077	87.8906	84.4157	87.8906	84.3617	87.8906	84.3706	87.8906	84.324	87.8906	84.3332	87.8906	84.2949	87.8906	84.3037	87.8906	84.2744	87.8906	84.2817	87.8906	84.2618	87.8906	84.2667	87.8906	84.2567	87.8906	84.2584
90.8203	85.1487	90.8203	85.1495	90.8203	85.1343	90.8203	85.1368	90.8203	85.1069	90.8203	85.1109	90.8203	85.0677	90.8203	85.0729	90.8203	85.0183	90.8203	85.0244	90.8203	84.9606	90.8203	84.9674	90.8203	84.8971	90.8203	84.9043	90.8203	84.8303	90.8203	84.8379	90.8203	84.763	90.8203	84.771	90.8203	84.6977	90.8203	84.7062	90.8203	84.6369	90.8203	84.646	90.8203	84.5825	90.8203	84.5922	90.8203	84.5361	90.8203	84.5461	90.8203	84.4984	90.8203	84.5082	90.8203	84.4696	90.8203	84.4786	90.8203	84.4494	90.8203	84.4567	90.8203	84.4372	90.8203	84.4419	90.8203	84.4322	90.8203	84.4338
95.2148	85.4508	95.2148	85.4526	95.2148	85.434	95.2148	85.4393	95.2148	85.4027	95.2148	85.4116	95.2148	85.3582	95.2148	85.3707	95.2148	85.3023	95.2148	85.3183	95.2148	85.2374	95.2148	85.2569	95.2148	85.166	95.2148	85.189	95.2148	85.0912	95.2148	85.1177	95.2148	85.0162	95.2148	85.0458	95.2148	84.9439	95.2148	84.9763	95.2148	84.8772	95.2148	84.9118	95.2148	84.8184	95.2148	84.8539	95.2148	84.7689	95.2148	84.8041	95.2148	84.7298	95.2148	84.7628	95.2148	84.701	95.2148	84.7297	95.2148	84.682	95.2148	84.7044	95.2148	84.672	95.2148	84.6863	95.2148	84.6698	95.2148	84.6747
98.1445	85.5947	98.1445	85.5956	98.1445	85.5779	98.1445	85.5807	98.1445	85.5458	98.1445	85.5507	98.1445	85.4997	98.1445	85.5071	98.1445	85.4413	98.1445	85.4518	98.1445	85.3732	98.1445	85.3872	98.1445	85.2982	98.1445	85.3162	98.1445	85.2195	98.1445	85.242	98.1445	85.1404	98.1445	85.1677	98.1445	85.0642	98.1445	85.0962	98.1445	84.9938	98.1445	85.03	98.1445	84.9319	98.1445	84.9709	98.1445	84.8801	98.1445	84.9201	98.1445	84.8393	98.1445	84.8779	98.1445	84.8096	98.1445	84.844	98.1445	84.7906	98.1445	84.8178	98.1445	84.781	98.1445	84.7985	98.1445	84.7798	98.1445	84.7858
101.074	85.7325	101.074	85.7313	101.074	85.7172	101.074	85.7137	101.074	85.6861	101.074	85.6806	101.074	85.6404	101.074	85.6336	101.074	85.5823	101.074	85.5749	101.074	85.5142	101.074	85.5071	101.074	85.4393	101.074	85.4335	101.074	85.3608	101.074	85.3573	101.074	85.2823	101.074	85.2821	101.074	85.2069	101.074	85.2107	101.074	85.1378	101.074	85.1459	101.074	85.0772	101.074	85.0893	101.074	85.0266	101.074	85.0419	101.074	84.9868	101.074	85.0037	101.074	84.9576	101.074	84.9741	101.074	84.9383	101.074	84.9521	101.074	84.9276	101.074	84.9369	101.074	84.9244	101.074	84.9277
105.469	85.9395	105.469	85.9352	105.469	85.9239	105.469	85.9115	105.469	85.889	105.469	85.8695	105.469	85.8363	105.469	85.8116	105.469	85.7682	105.469	85.7407	105.469	85.6878	105.469	85.6603	105.469	85.5991	105.469	85.5745	105.469	85.5063	105.469	85.4876	105.469	85.4141	105.469	85.4036	105.469	85.3269	105.469	85.3261	105.469	85.2485	105.469	85.2579	105.469	85.1819	105.469	85.2005	105.469	85.1288	105.469	85.1544	105.469	85.0897	105.469	85.1188	105.469	85.0636	105.469	85.0924	105.469	85.0487	105.469	85.073	105.469	85.0428	105.469	85.059	105.469	85.0436	105.469	85.0493
108.398	86.1542	108.398	86.1457	108.398	86.1414	108.398	86.1162	108.398	86.1081	108.398	86.0668	108.398	86.0558	108.398	85.9995	108.398	85.9867	108.398	85.9173	108.398	85.9041	108.398	85.8238	108.398	85.8116	108.398	85.7235	108.398	85.7132	108.398	85.6211	108.398	85.6134	108.398	85.5213	108.398	85.5166	108.398	85.4284	108.398	85.4267	108.398	85.3461	108.398	85.347	108.398	85.2767	108.398	85.2795	108.398	85.2213	108.398	85.2253	108.398	85.1797	108.398	85.1841	108.398	85.1505	108.398	85.1546	108.398	85.132	108.398	85.135	108.398	85.1221	108.398	85.1238	108.398	85.1196
112.793	86.3807	112.793	86.3767	112.793	86.3644	112.793	86.3525	112.793	86.3284	112.793	86.3094	112.793	86.2743	112.793	86.2493	112.793	86.2045	112.793	86.175	112.793	86.1222	112.793	86.0902	112.793	86.0312	112.793	85.9988	112.793	85.936	112.793	85.9054	112.793	85.841	112.793	85.8145	112.793	85.7508	112.793	85.73	112.793	85.6691	112.793	85.6552	112.793	85.5991	112.793	85.5923	112.793	85.5423	112.793	85.542	112.793	85.4993	112.793	85.5037	112.793	85.4692	112.793	85.4762	112.793	85.4501	112.793	85.4572	112.793	85.4398	112.793	85.4451	112.793	85.4364	112.793	85.4383
117.188	86.5235	117.188	86.5164	117.188	86.5079	117.188	86.487	117.188	86.4703	117.188	86.4365	117.188	86.4124	117.188	86.3675	117.188	86.3369	117.188	86.2833	117.188	86.2473	117.188	86.1882	117.188	86.148	117.188	86.0873	117.188	86.0436	117.188	85.9856	117.188	85.9394	117.188	85.8883	117.188	85.8401	117.188	85.7998	117.188	85.7504	117.188	85.7235	117.188	85.6736	117.188	85.6611	117.188	85.6119	117.188	85.6127	117.188	85.5659	117.188	85.5769	117.188	85.5349	117.188	85.5514	117.188	85.5168	117.188	85.5336	117.188	85.5088	117.188	85.5212	117.188	85.5082	117.188	85.5127
120.117	86.6395	120.117	86.6324	120.117	86.6225	120.117	86.6016	120.117	86.5825	120.117	86.5482	120.117	86.5214	120.117	86.4748	120.117	86.4423	120.117	86.3847	120.117	86.349	120.117	86.2825	120.117	86.2462	120.117	86.1736	120.117	86.1389	120.117	86.0637	120.117	86.0325	120.117	85.9585	120.117	85.9321	120.117	85.8634	120.117	85.8421	120.117	85.7823	120.117	85.7659	120.117	85.7176	120.117	85.7052	120.117	85.6695	120.117	85.6602	120.117	85.6365	120.117	85.6296	120.117	85.6159	120.117	85.6108	120.117	85.6042	120.117	85.6007	120.117	85.5983	120.117	85.5965	120.117	85.596
124.512	86.7816	124.512	86.7703	124.512	86.7684	124.512	86.735	124.512	86.7317	124.512	86.6772	124.512	86.6733	124.512	86.5994	124.512	86.5963	124.512	86.5054	124.512	86.5045	124.512	86.3999	124.512	86.4027	124.512	86.2885	124.512	86.2961	124.512	86.1771	124.512	86.1903	124.512	86.0715	124.512	86.0905	124.512	85.9771	124.512	86.0013	124.512	85.8979	124.512	85.9258	124.512	85.8361	124.512	85.8659	124.512	85.7919	124.512	85.8213	124.512	85.7637	124.512	85.7905	124.512	85.7484	124.512	85.7705	124.512	85.7424	124.512	85.7581	124.512	85.7422	124.512	85.7504	124.512	85.7452
128.906	86.8209	128.906	86.8135	128.906	86.8025	128.906	86.7805	128.906	86.7596	128.906	86.7231	128.906	86.6945	128.906	86.6438	128.906	86.6108	128.906	86.5466	128.906	86.5128	128.906	86.4363	128.906	86.4058	128.906	86.319	128.906	86.2958	128.906	86.2012	128.906	86.1886	128.906	86.0896	128.906	86.0896	128.906	85.9904	128.906	86.0033	128.906	85.9082	128.906	85.9326	128.906	85.8458	128.906	85.8787	128.906	85.8033	128.906	85.8406	128.906	85.7788	128.906	85.8157	128.906	85.7684	128.906	85.8005	128.906	85.7675	128.906	85.7911	128.906	85.7718	128.906	85.7842	128.906	85.7779
133.301	86.8646	133.301	86.8656	133.301	86.8366	133.301	86.8395	133.301	86.7827	133.301	86.7878	133.301	86.7055	133.301	86.7132	133.301	86.6088	133.301	86.6195	133.301	86.4976	133.301	86.5116	133.301	86.378	133.301	86.3954	133.301	86.2566	133.301	86.2774	133.301	86.1404	133.301	86.1643	133.301	86.0356	133.301	86.0622	133.301	85.9474	133.301	85.9758	133.301	85.8789	133.301	85.9081	133.301	85.8309	133.301	85.8596	133.301	85.8018	133.301	85.8283	133.301	85.7879	133.301	85.8108	133.301	85.7846	133.301	85.8023	133.301	85.7871	133.301	85.7983	133.301	85.7915	133.301	85.7953
139.16	86.846	139.16	86.8498	139.16	86.8132	139.16	86.8252	139.16	86.7523	139.16	86.774	139.16	86.6656	139.16	86.6993	139.16	86.5568	139.16	86.6056	139.16	86.4314	139.16	86.4982	139.16	86.2957	139.16	86.3833	139.16	86.1574	139.16	86.2674	139.16	86.0246	139.16	86.157	139.16	85.9054	139.16	86.0577	139.16	85.8064	139.16	85.9737	139.16	85.7323	139.16	85.907	139.16	85.6849	139.16	85.8573	139.16	85.6624	139.16	85.8222	139.16	85.6608	139.16	85.7975	139.16	85.6738	139.16	85.7785	139.16	85.6951	139.16	85.7607	139.16	85.7188	139.16	85.7412
143.555	86.8466	143.555	86.8389	143.555	86.8233	143.555	86.801	143.555	86.7695	143.555	86.7355	143.555	86.6874	143.555	86.6462	143.555	86.5807	143.555	86.5384	143.555	86.4544	143.555	86.4185	143.555	86.3152	143.555	86.2938	143.555	86.1707	143.555	86.1717	143.555	86.0295	143.555	86.0594	143.555	85.9002	143.555	85.9625	143.555	85.7903	143.555	85.8846	143.555	85.7055	143.555	85.8267	143.555	85.6485	143.555	85.7869	143.555	85.6189	143.555	85.7611	143.555	85.6127	143.555	85.7439	143.555	85.6239	143.555	85.7298	143.555	85.6455	143.555	85.7141	143.555	85.6707	143.555	85.6944
147.949	86.8062	147.949	86.7907	147.949	86.7882	147.949	86.7423	147.949	86.7375	147.949	86.6634	147.949	86.6568	147.949	86.5581	147.949	86.5501	147.949	86.4318	147.949	86.423	147.949	86.292	147.949	86.2822	147.949	86.1467	147.949	86.1359	147.949	86.0052	147.949	85.9924	147.949	85.8761	147.949	85.8603	147.949	85.7667	147.949	85.747	147.949	85.682	147.949	85.6578	147.949	85.6234	147.949	85.5952	147.949	85.589	147.949	85.5583	147.949	85.5737	147.949	85.5431	147.949	85.5706	147.949	85.5435	147.949	85.5728	147.949	85.5523	147.949	85.5742	147.949	85.5632	147.949	85.5712
153.809	86.7599	153.809	86.75	153.809	86.7329	153.809	86.7037	153.809	86.6702	153.809	86.6232	153.809	86.5747	153.809	86.5123	153.809	86.451	153.809	86.3769	153.809	86.3054	153.809	86.2241	153.809	86.1458	153.809	86.0629	153.809	85.9812	153.809	85.903	153.809	85.8217	153.809	85.7544	153.809	85.6768	153.809	85.626	153.809	85.5549	153.809	85.5243	153.809	85.4615	153.809	85.452	153.809	85.3988	153.809	85.4081	153.809	85.3645	153.809	85.3875	153.809	85.3532	153.809	85.3828	153.809	85.3574	153.809	85.3857	153.809	85.3689	153.809	85.389	153.809	85.3807	153.809	85.3879
159.668	86.9521	159.668	86.9413	159.668	86.9246	159.668	86.8931	159.668	86.8598	159.668	86.8097	159.668	86.7603	159.668	86.6953	159.668	86.6302	159.668	86.5555	159.668	86.4755	159.668	86.3977	159.668	86.3036	159.668	86.2307	159.668	86.1237	159.668	86.0641	159.668	85.9459	159.668	85.9077	159.668	85.7807	159.668	85.77	159.668	85.6379	159.668	85.6576	159.668	85.5249	159.668	85.5734	159.668	85.4456	159.668	85.5166	159.668	85.3993	159.668	85.4826	159.668	85.3815	159.668	85.4644	159.668	85.3842	159.668	85.4543	159.668	85.3988	159.668	85.4455	159.668	85.4171	159.668	85.4335
165.527	86.9275	165.527	86.9139	165.527	86.9024	165.527	86.8624	165.527	86.8396	165.527	86.7756	165.527	86.7421	165.527	86.6578	165.527	86.6146	165.527	86.5153	165.527	86.4636	165.527	86.3562	165.527	86.2973	165.527	86.19	165.527	86.1255	165.527	86.0273	165.527	85.9587	165.527	85.8784	165.527	85.8075	165.527	85.7526	165.527	85.6811	165.527	85.6561	165.527	85.586	165.527	85.5911	165.527	85.5247	165.527	85.5554	165.527	85.495	165.527	85.543	165.527	85.4908	165.527	85.545	165.527	85.5035	165.527	85.5524	165.527	85.5236	165.527	85.5573	165.527	85.5425	165.527	85.5545
171.387	86.8278	171.387	86.8073	171.387	86.8069	171.387	86.7464	171.387	86.7453	171.387	86.6483	171.387	86.6454	171.387	86.5179	171.387	86.5118	171.387	86.3624	171.387	86.3509	171.387	86.1908	171.387	86.1712	171.387	86.014	171.387	85.983	171.387	85.8437	171.387	85.7982	171.387	85.6915	171.387	85.6292	171.387	85.5669	171.387	85.4875	171.387	85.476	171.387	85.3816	171.387	85.4198	171.387	85.3155	171.387	85.3941	171.387	85.2875	171.387	85.3906	171.387	85.2908	171.387	85.3989	171.387	85.3148	171.387	85.4086	171.387	85.3479	171.387	85.4113	171.387	85.3795	171.387	85.4018
177.246	86.7307	177.246	86.7075	177.246	86.7108	177.246	86.6412	177.246	86.6497	177.246	86.5339	177.246	86.5513	177.246	86.39	177.246	86.4212	177.246	86.2164	177.246	86.2667	177.246	86.0229	177.246	86.0965	177.246	85.8215	177.246	85.9209	177.246	85.6265	177.246	85.7507	177.246	85.4526	177.246	85.5966	177.246	85.3126	177.246	85.468	177.246	85.2154	177.246	85.3713	177.246	85.1632	177.246	85.3087	177.246	85.1515	177.246	85.2776	177.246	85.17	177.246	85.2714	177.246	85.2055	177.246	85.2801	177.246	85.2448	177.246	85.2932	177.246	85.2774	177.246	85.301	177.246	85.2967
183.105	86.5465	183.105	86.5391	183.105	86.5065	183.105	86.4844	183.105	86.4211	183.105	86.3844	183.105	86.2948	183.105	86.2437	183.105	86.134	183.105	86.0692	183.105	85.9477	183.105	85.8702	183.105	85.7471	183.105	85.659	183.105	85.5452	183.105	85.4502	183.105	85.3562	183.105	85.2595	183.105	85.1933	183.105	85.1016	183.105	85.0675	183.105	84.9876	183.105	84.9847	183.105	84.9221	183.105	84.9449	183.105	84.9021	183.105	84.9418	183.105	84.9177	183.105	84.9641	183.105	84.9545	183.105	84.9983	183.105	84.9973	183.105	85.0308	183.105	85.0329	183.105	85.051	183.105	85.0522
188.965	86.4646	188.965	86.4628	188.965	86.4149	188.965	86.4102	188.965	86.3147	188.965	86.3095	188.965	86.1671	188.965	86.1652	188.965	85.9779	188.965	85.9839	188.965	85.7555	188.965	85.7746	188.965	85.5116	188.965	85.549	188.965	85.261	188.965	85.3213	188.965	85.0211	188.965	85.1077	188.965	84.8101	188.965	84.9239	188.965	84.6438	188.965	84.7828	188.965	84.5328	188.965	84.6907	188.965	84.479	188.965	84.6459	188.965	84.4758	188.965	84.6389	188.965	84.5095	188.965	84.6547	188.965	84.5627	188.965	84.6771	188.965	84.6185	188.965	84.6916	188.965	84.6632	188.965	84.6884
196.289	86.5543	196.289	86.5322	196.289	86.5247	196.289	86.4605	196.289	86.4434	196.289	86.3429	196.289	86.3125	196.289	86.1857	196.289	86.1364	196.289	85.9966	196.289	85.9219	196.289	85.7857	196.289	85.679	196.289	85.565	196.289	85.4206	196.289	85.348	196.289	85.1631	196.289	85.1485	196.289	84.9247	196.289	84.9792	196.289	84.7237	196.289	84.8492	196.289	84.5744	196.289	84.7619	196.289	84.4844	196.289	84.7137	196.289	84.4516	196.289	84.6954	196.289	84.4654	196.289	84.6936	196.289	84.5097	196.289	84.6946	196.289	84.5667	196.289	84.6867	196.289	84.6213	196.289	84.6628
203.613	86.4133	203.613	86.3765	203.613	86.3922	203.613	86.2834	203.613	86.3138	203.613	86.1377	203.613	86.1809	203.613	85.9459	203.613	85.9982	203.613	85.7173	203.613	85.7731	203.613	85.4643	203.613	85.5159	203.613	85.2025	203.613	85.2403	203.613	84.9497	203.613	84.9635	203.613	84.7244	203.613	84.7057	203.613	84.5432	203.613	84.4872	203.613	84.417	203.613	84.3252	203.613	84.348	203.613	84.2284	203.613	84.329	203.613	84.1949	203.613	84.345	203.613	84.2125	203.613	84.3773	203.613	84.2622	203.613	84.4079	203.613	84.3233	203.613	84.4224	203.613	84.3777	203.613	84.4128
210.938	86.3519	210.938	86.3082	210.938	86.3356	210.938	86.2047	210.938	86.261	210.938	86.0438	210.938	86.1317	210.938	85.8308	210.938	85.9533	210.938	85.574	210.938	85.7335	210.938	85.2861	210.938	85.482	210.938	84.9837	210.938	85.2115	210.938	84.6881	210.938	84.9375	210.938	84.4227	210.938	84.6778	210.938	84.21	210.938	84.4511	210.938	84.0658	210.938	84.2741	210.938	83.9946	210.938	84.1571	210.938	83.988	210.938	84.1007	210.938	84.0271	210.938	84.0952	210.938	84.0882	210.938	84.123	210.938	84.1489	210.938	84.1632	210.938	84.1921	210.938	84.1963	210.938	84.2083
218.262	86.2792	218.262	86.2528	218.262	86.2455	218.262	86.1657	218.262	86.1543	218.262	86.0189	218.262	86.01	218.262	85.816	218.262	85.8187	218.262	85.5632	218.262	85.5888	218.262	85.2706	218.262	85.3308	218.262	84.9529	218.262	85.0582	218.262	84.6297	218.262	84.7864	218.262	84.3251	218.262	84.5326	218.262	84.0648	218.262	84.3132	218.262	83.8706	218.262	84.1417	218.262	83.7543	218.262	84.0246	218.262	83.7139	218.262	83.9604	218.262	83.7336	218.262	83.939	218.262	83.7896	218.262	83.9445	218.262	83.8569	218.262	83.9588	218.262	83.9153	218.262	83.9655	218.262	83.9526
225.586	86.1895	225.586	86.1901	225.586	86.1226	225.586	86.1243	225.586	85.9921	225.586	85.9937	225.586	85.8028	225.586	85.8023	225.586	85.5624	225.586	85.5567	225.586	85.2822	225.586	85.2673	225.586	84.9775	225.586	84.9486	225.586	84.6682	225.586	84.6205	225.586	84.3774	225.586	84.3078	225.586	84.1292	225.586	84.038	225.586	83.9441	225.586	83.8359	225.586	83.8333	225.586	83.717	225.586	83.7952	225.586	83.6817	225.586	83.8157	225.586	83.7148	225.586	83.872	225.586	83.7906	225.586	83.9387	225.586	83.8802	225.586	83.9932	225.586	83.9585	225.586	84.0191	225.586	84.0076
232.91	86.349	232.91	86.3335	232.91	86.2955	232.91	86.2506	232.91	86.1725	232.91	86.1036	232.91	85.9813	232.91	85.8975	232.91	85.7248	232.91	85.6397	232.91	85.4091	232.91	85.3401	232.91	85.0441	232.91	85.0129	232.91	84.6456	232.91	84.676	232.91	84.2371	232.91	84.3517	232.91	83.8504	232.91	84.0642	232.91	83.5224	232.91	83.8356	232.91	83.2877	232.91	83.68	232.91	83.166	232.91	83.5992	232.91	83.1543	232.91	83.5806	232.91	83.2265	232.91	83.6008	232.91	83.3439	232.91	83.6319	232.91	83.4678	232.91	83.6479	232.91	83.5686	232.91	83.6297
241.699	86.262	241.699	86.2277	241.699	86.2329	241.699	86.1311	241.699	86.1412	241.699	85.9744	241.699	85.9885	241.699	85.7617	241.699	85.7782	241.699	85.499	241.699	85.5147	241.699	85.195	241.699	85.2047	241.699	84.8618	241.699	84.8578	241.699	84.5162	241.699	84.4877	241.699	84.1792	241.699	84.1139	241.699	83.875	241.699	83.7616	241.699	83.6265	241.699	83.4595	241.699	83.4495	241.699	83.2333	241.699	83.3463	241.699	83.0983	241.699	83.3045	241.699	83.0522	241.699	83.3003	241.699	83.0757	241.699	83.3068	241.699	83.139	241.699	83.301	241.699	83.2115	241.699	83.2696
250.488	86.0574	250.488	86.0201	250.488	86.028	250.488	85.917	250.488	85.9322	250.488	85.751	250.488	85.7726	250.488	85.5267	250.488	85.5536	250.488	85.2516	250.488	85.2824	250.488	84.9364	250.488	84.9694	250.488	84.5963	250.488	84.629	250.488	84.251	250.488	84.2795	250.488	83.9243	250.488	83.9434	250.488	83.6405	250.488	83.645	250.488	83.42	250.488	83.4071	250.488	83.2733	250.488	83.2446	250.488	83.1988	250.488	83.1602	250.488	83.1827	250.488	83.1426	250.488	83.2038	250.488	83.1695	250.488	83.2385	250.488	83.2145	250.488	83.2664	250.488	83.2542	250.488	83.2733
259.277	86.0391	259.277	86.002	259.277	86.01	259.277	85.8984	259.277	85.9168	259.277	85.7294	259.277	85.7632	259.277	85.4988	259.277	85.5541	259.277	85.2134	259.277	85.2963	259.277	84.884	259.277	84.9994	259.277	84.5265	259.277	84.6759	259.277	84.1636	259.277	84.3428	259.277	83.8234	259.277	84.0213	259.277	83.5364	259.277	83.7352	259.277	83.3278	259.277	83.507	259.277	83.2095	259.277	83.3521	259.277	83.1751	259.277	83.2736	259.277	83.2026	259.277	83.2604	259.277	83.2626	259.277	83.2902	259.277	83.3266	259.277	83.3366	259.277	83.3732	259.277	83.3756	259.277	83.3903
268.066	85.8121	268.066	85.7807	268.066	85.7737	268.066	85.6805	268.066	85.6667	268.066	85.5153	268.066	85.4945	268.066	85.291	268.066	85.263	268.066	85.017	268.066	84.981	268.066	84.7056	268.066	84.6608	268.066	84.3733	268.066	84.3193	268.066	84.0412	268.066	83.9787	268.066	83.7342	268.066	83.6654	268.066	83.4789	268.066	83.4065	268.066	83.2976	268.066	83.2245	268.066	83.2016	268.066	83.1299	268.066	83.1862	268.066	83.1175	268.066	83.231	268.066	83.1676	268.066	83.3062	268.066	83.2519	268.066	83.3812	268.066	83.341	268.066	83.4316	268.066	83.4101	268.066	83.4425
276.855	85.7175	276.855	85.7131	276.855	85.6472	276.855	85.628	276.855	85.5109	276.855	85.4595	276.855	85.3183	276.855	85.2093	276.855	85.0789	276.855	84.8844	276.855	84.8018	276.855	84.4982	276.855	84.4954	276.855	84.073	276.855	84.1701	276.855	83.641	276.855	83.8403	276.855	83.2431	276.855	83.5266	276.855	82.9227	276.855	83.2554	276.855	82.7134	276.855	83.053	276.855	82.6263	276.855	82.9361	276.855	82.646	276.855	82.9041	276.855	82.7384	276.855	82.9374	276.855	82.8627	276.855	83.0048	276.855	82.9831	276.855	83.0737	276.855	83.0737	276.855	83.1176	276.855	83.1198
287.109	85.7679	287.109	85.7552	287.109	85.6869	287.109	85.6522	287.109	85.5131	287.109	85.4651	287.109	85.2528	287.109	85.202	287.109	84.9185	287.109	84.8724	287.109	84.5293	287.109	84.4891	287.109	84.1094	287.109	84.0695	287.109	83.6868	287.109	83.64	287.109	83.2912	287.109	83.2374	287.109	82.9513	287.109	82.9064	287.109	82.6925	287.109	82.6876	287.109	82.5329	287.109	82.6007	287.109	82.4784	287.109	82.6328	287.109	82.5191	287.109	82.7436	287.109	82.6297	287.109	82.8821	287.109	82.7751	287.109	83.0035	287.109	82.9188	287.109	83.0766	287.109	83.0296	287.109	83.0858
297.363	85.8819	297.363	85.8536	297.363	85.8146	297.363	85.7375	297.363	85.6447	297.363	85.5413	297.363	85.3684	297.363	85.2729	297.363	84.9876	297.363	84.9412	297.363	84.5141	297.363	84.5572	297.363	83.9732	297.363	84.1353	297.363	83.4059	297.363	83.6949	297.363	82.8679	297.363	83.2624	297.363	82.4205	297.363	82.8724	297.363	82.1145	297.363	82.5647	297.363	81.9727	297.363	82.3744	297.363	81.9831	297.363	82.3162	297.363	82.1076	297.363	82.3737	297.363	82.2962	297.363	82.5034	297.363	82.4989	297.363	82.651	297.363	82.6727	297.363	82.767	297.363	82.7849	297.363	82.817
307.617	86.0309	307.617	85.9866	307.617	86.0021	307.617	85.8673	307.617	85.8999	307.617	85.6706	307.617	85.7208	307.617	85.3955	307.617	85.4587	307.617	85.045	307.617	85.1074	307.617	84.629	307.617	84.6649	307.617	84.1685	307.617	84.1397	307.617	83.6987	307.617	83.5584	307.617	83.2679	307.617	82.9719	307.617	82.928	307.617	82.4539	307.617	82.7168	307.617	82.0849	307.617	82.6405	307.617	81.9184	307.617	82.6717	307.617	81.9515	307.617	82.7634	307.617	82.1277	307.617	82.867	307.617	82.3693	307.617	82.9436	307.617	82.6081	307.617	82.9668	307.617	82.7993	307.617	82.9207
319.336	86.0886	319.336	86.0545	319.336	86.0328	319.336	85.9292	319.336	85.8909	319.336	85.7137	319.336	85.6683	319.336	85.4113	319.336	85.3712	319.336	85.0281	319.336	85.0063	319.336	84.5735	319.336	84.5821	319.336	84.0641	319.336	84.1123	319.336	83.5278	319.336	83.6219	319.336	83.0102	319.336	83.1518	319.336	82.5744	319.336	82.757	319.336	82.287	319.336	82.4913	319.336	82.1881	319.336	82.3831	319.336	82.2648	319.336	82.4197	319.336	82.4562	319.336	82.5545	319.336	82.6842	319.336	82.7299	319.336	82.8835	319.336	82.895	319.336	83.0132	319.336	83.0121	319.336	83.056
329.59	86.3412	329.59	86.3225	329.59	86.2673	329.59	86.2085	329.59	86.1043	329.59	85.9976	329.59	85.856	329.59	85.6902	329.59	85.5261	329.59	85.2892	329.59	85.1183	329.59	84.8028	329.59	84.6373	329.59	84.2473	329.59	84.0919	329.59	83.6525	329.59	83.502	329.59	83.0669	329.59	82.9086	329.59	82.5572	329.59	82.3811	329.59	82.1965	329.59	82.007	329.59	82.0348	329.59	81.8538	329.59	82.0699	329.59	81.9227	329.59	82.2457	329.59	82.1436	329.59	82.4797	329.59	82.4184	329.59	82.6964	329.59	82.6643	329.59	82.8434	329.59	82.8301	329.59	82.8915
341.309	85.9947	341.309	85.9854	341.309	85.9116	341.309	85.8834	341.309	85.7389	341.309	85.6898	341.309	85.4827	341.309	85.4066	341.309	85.1528	341.309	85.0361	341.309	84.7626	341.309	84.5836	341.309	84.3285	341.309	84.0612	341.309	83.8701	341.309	83.4954	341.309	83.4114	341.309	82.9346	341.309	82.9834	341.309	82.4513	341.309	82.625	341.309	82.1263	341.309	82.3791	341.309	82.012	341.309	82.2774	341.309	82.0996	341.309	82.3215	341.309	82.3218	341.309	82.4758	341.309	82.59	341.309	82.6802	341.309	82.8287	341.309	82.8732	341.309	82.9894	341.309	83.0063	341.309	83.0496
353.027	86.0565	353.027	86.0202	353.027	85.9883	353.027	85.8848	353.027	85.81	353.027	85.6552	353.027	85.5162	353.027	85.3354	353.027	85.1027	353.027	84.9292	353.027	84.569	353.027	84.4413	353.027	83.9223	353.027	83.8813	353.027	83.1855	353.027	83.2708	353.027	82.4084	353.027	82.6535	353.027	81.6803	353.027	82.1033	353.027	81.1266	353.027	81.7149	353.027	80.8666	353.027	81.565	353.027	80.9389	353.027	81.6613	353.027	81.2693	353.027	81.9324	353.027	81.7222	353.027	82.2693	353.027	82.1724	353.027	82.574	353.027	82.5362	353.027	82.78	353.027	82.7684	353.027	82.85
366.211	86.183	366.211	86.1044	366.211	86.1654	366.211	85.931	366.211	86.05	366.211	85.6649	366.211	85.8346	366.211	85.3077	366.211	85.5158	366.211	84.8612	366.211	85.088	366.211	84.3277	366.211	84.544	366.211	83.7143	366.211	83.8776	366.211	83.0411	366.211	83.0917	366.211	82.3548	366.211	82.2137	366.211	81.7393	366.211	81.3207	366.211	81.3036	366.211	80.5626	366.211	81.1306	366.211	80.1323	366.211	81.2166	366.211	80.1413	366.211	81.4707	366.211	80.5103	366.211	81.772	366.211	81.0377	366.211	82.0204	366.211	81.5416	366.211	82.1497	366.211	81.917	366.211	82.1213
379.395	86.5833	379.395	86.5321	379.395	86.5543	379.395	86.3951	379.395	86.4475	379.395	86.1645	379.395	86.2611	379.395	85.8311	379.395	85.9892	379.395	85.3865	379.395	85.6227	379.395	84.8262	379.395	85.1514	379.395	84.1552	379.395	84.57	379.395	83.3962	379.395	83.8856	379.395	82.6014	379.395	83.1302	379.395	81.8652	379.395	82.373	379.395	81.318	379.395	81.7215	379.395	81.0736	379.395	81.2925	379.395	81.1456	379.395	81.15	379.395	81.428	379.395	81.2617	379.395	81.7689	379.395	81.524	379.395	82.0483	379.395	81.8223	379.395	82.2006	379.395	82.0681	379.395	82.2045
392.578	86.1616	392.578	86.1607	392.578	86.0797	392.578	86.0737	392.578	85.9207	392.578	85.8988	392.578	85.6909	392.578	85.6339	392.578	85.3934	392.578	85.2739	392.578	85.0251	392.578	84.8105	392.578	84.5765	392.578	84.2365	392.578	84.036	392.578	83.5556	392.578	83.4014	392.578	82.7978	392.578	82.6984	392.578	82.0378	392.578	82.0013	392.578	81.4032	392.578	81.4398	392.578	81.0409	392.578	81.1542	392.578	81.0297	392.578	81.1992	392.578	81.3115	392.578	81.4945	392.578	81.7324	392.578	81.8877	392.578	82.1378	392.578	82.2437	392.578	82.4246	392.578	82.4766	392.578	82.5419
405.762	85.7564	405.762	85.7308	405.762	85.6752	405.762	85.6009	405.762	85.4883	405.762	85.3707	405.762	85.201	405.762	85.044	405.762	84.8217	405.762	84.6206	405.762	84.3605	405.762	84.0949	405.762	83.826	405.762	83.4584	405.762	83.2247	405.762	82.7099	405.762	82.5641	405.762	81.8794	405.762	81.8658	405.762	81.0601	405.762	81.1868	405.762	80.4254	405.762	80.6381	405.762	80.1627	405.762	80.3611	405.762	80.3239	405.762	80.4356	405.762	80.7698	405.762	80.7967	405.762	81.2939	405.762	81.2779	405.762	81.742	405.762	81.7185	405.762	82.0313	405.762	82.0171	405.762	82.1259
420.41	86.1244	420.41	86.0669	420.41	86.0987	420.41	85.9268	420.41	85.9875	420.41	85.7027	420.41	85.7863	420.41	85.389	420.41	85.4869	420.41	84.9752	420.41	85.0747	420.41	84.4458	420.41	84.5283	420.41	83.7824	420.41	83.8209	420.41	82.9717	420.41	82.9273	420.41	82.0229	420.41	81.8412	420.41	81.0029	420.41	80.6148	420.41	80.0823	420.41	79.4312	420.41	79.5243	420.41	78.6484	420.41	79.5089	420.41	78.59	420.41	79.9349	420.41	79.1631	420.41	80.5219	420.41	79.969	420.41	81.0341	420.41	80.6903	420.41	81.3453	420.41	81.1824	420.41	81.4015
435.059	85.265	435.059	85.2282	435.059	85.2195	435.059	85.1108	435.059	85.0939	435.059	84.9172	435.059	84.8945	435.059	84.6493	435.059	84.6273	435.059	84.3018	435.059	84.2946	435.059	83.86	435.059	83.8911	435.059	83.3032	435.059	83.4045	435.059	82.6135	435.059	82.8199	435.059	81.7921	435.059	82.1312	435.059	80.8837	435.059	81.3572	435.059	80.0064	435.059	80.5629	435.059	79.3546	435.059	79.8758	435.059	79.108	435.059	79.4598	435.059	79.2775	435.059	79.4136	435.059	79.6874	435.059	79.6732	435.059	80.1192	435.059	80.0531	435.059	80.4179	435.059	80.3694	435.059	80.5062
451.172	84.9907	451.172	84.9656	451.172	84.9262	451.172	84.8525	451.172	84.7748	451.172	84.6569	451.172	84.5399	451.172	84.3849	451.172	84.2215	451.172	84.0366	451.172	83.8137	451.172	83.5996	451.172	83.3033	451.172	83.0487	451.172	82.6731	451.172	82.3533	451.172	81.9108	451.172	81.497	451.172	81.0296	451.172	80.513	451.172	80.1044	451.172	79.5404	451.172	79.3104	451.172	78.8563	451.172	78.8879	451.172	78.7306	451.172	78.9636	451.172	79.1381	451.172	79.4129	451.172	79.7788	451.172	79.9868	451.172	80.3695	451.172	80.4893	451.172	80.7639	451.172	80.8146	451.172	80.9132
465.82	84.1323	465.82	84.0895	465.82	84.0815	465.82	83.9595	465.82	83.9372	465.82	83.754	465.82	83.706	465.82	83.4863	465.82	83.3979	465.82	83.1643	465.82	83.0194	465.82	82.7826	465.82	82.5668	465.82	82.3167	465.82	82.0211	465.82	81.7269	465.82	81.3498	465.82	80.9741	465.82	80.5211	465.82	80.05	465.82	79.5342	465.82	79.0233	465.82	78.476	465.82	78.0946	465.82	77.5869	465.82	77.5722	465.82	77.2044	465.82	77.6349	465.82	77.4506	465.82	78.1177	465.82	78.0652	465.82	78.6909	465.82	78.6952	465.82	79.113	465.82	79.1254	465.82	79.2698
483.398	83.3711	483.398	83.3524	483.398	83.2873	483.398	83.2323	483.398	83.1089	483.398	83.0188	483.398	82.8497	483.398	82.7205	483.398	82.5229	483.398	82.3387	483.398	82.1339	483.398	81.8626	483.398	81.6761	483.398	81.2715	483.398	81.131	483.398	80.5446	483.398	80.4745	483.398	79.6815	483.398	79.6908	483.398	78.7382	483.398	78.8009	483.398	77.8763	483.398	77.9111	483.398	77.3625	483.398	77.2525	483.398	77.395	483.398	77.09	483.398	77.8812	483.398	77.4667	483.398	78.5295	483.398	78.136	483.398	79.0911	483.398	78.8027	483.398	79.4332	483.398	79.2844	483.398	79.5018
499.512	83.8831	499.512	83.8718	499.512	83.7763	499.512	83.7452	499.512	83.5591	499.512	83.5156	499.512	83.2478	499.512	83.1992	499.512	82.8622	499.512	82.8047	499.512	82.4166	499.512	82.3209	499.512	81.9092	499.512	81.7103	499.512	81.3138	499.512	80.9168	499.512	80.5814	499.512	79.889	499.512	79.6553	499.512	78.6283	499.512	78.5069	499.512	77.2836	499.512	77.2176	499.512	76.2714	499.512	76.1223	499.512	76.1039	499.512	75.7819	499.512	76.7586	499.512	76.3652	499.512	77.7019	499.512	77.3694	499.512	78.5087	499.512	78.2857	499.512	79.0031	499.512	78.8935	499.512	79.1349
517.09	84.2298	517.09	84.167	517.09	84.2012	517.09	84.0166	517.09	84.0862	517.09	83.7893	517.09	83.8961	517.09	83.4976	517.09	83.6422	517.09	83.1482	517.09	83.3258	517.09	82.7318	517.09	82.9296	517.09	82.2132	517.09	82.4136	517.09	81.5304	517.09	81.7195	517.09	80.6043	517.09	80.7814	517.09	79.3676	517.09	79.5469	517.09	77.8298	517.09	78.0261	517.09	76.2355	517.09	76.4167	517.09	75.2463	517.09	75.2874	517.09	75.4391	517.09	75.2694	517.09	76.395	517.09	76.1361	517.09	77.3679	517.09	77.15	517.09	77.9936	517.09	77.8754	517.09	78.1676
536.133	82.9778	536.133	82.9404	536.133	82.8897	536.133	82.7864	536.133	82.6863	536.133	82.5418	536.133	82.3941	536.133	82.2424	536.133	82.0487	536.133	81.9192	536.133	81.682	536.133	81.5797	536.133	81.3036	536.133	81.1953	536.133	80.8892	536.133	80.7031	536.133	80.3822	536.133	80.022	536.133	79.7121	536.133	79.081	536.133	78.8237	536.133	77.8731	536.133	77.7262	536.133	76.5644	536.133	76.5819	536.133	75.6216	536.133	75.7854	536.133	75.5552	536.133	75.7386	536.133	76.2331	536.133	76.3414	536.133	77.0704	536.133	77.1119	536.133	77.6691	536.133	77.6797	536.133	77.8812
555.176	82.8146	555.176	82.7236	555.176	82.767	555.176	82.4945	555.176	82.5965	555.176	82.1495	555.176	82.3292	555.176	81.7335	555.176	81.995	555.176	81.304	555.176	81.6172	555.176	80.9011	555.176	81.1991	555.176	80.5113	555.176	80.7113	555.176	80.0563	555.176	80.0886	555.176	79.4211	555.176	79.2389	555.176	78.5011	555.176	78.0656	555.176	77.2593	555.176	76.518	555.176	75.833	555.176	74.7394	555.176	74.6997	555.176	73.3845	555.176	74.4944	555.176	73.3896	555.176	75.1642	555.176	74.4965	555.176	76.0438	555.176	75.7063	555.176	76.6628	555.176	76.5255	555.176	76.8425
574.219	82.9509	574.219	82.9212	574.219	82.8363	574.219	82.7535	574.219	82.5886	574.219	82.4668	574.219	82.2388	574.219	82.0849	574.219	81.8338	574.219	81.6269	574.219	81.4237	574.219	81.0985	574.219	81.0407	574.219	80.4854	574.219	80.6746	574.219	79.7511	574.219	80.2605	574.219	78.8371	574.219	79.6912	574.219	77.6718	574.219	78.8486	574.219	76.2137	574.219	77.6492	574.219	74.5955	574.219	76.1249	574.219	73.4075	574.219	74.6054	574.219	73.4562	574.219	73.8353	574.219	74.4877	574.219	74.2293	574.219	75.581	574.219	75.1839	574.219	76.2547	574.219	76.0046	574.219	76.3922
594.727	82.5627	594.727	82.4861	594.727	82.4967	594.727	82.2817	594.727	82.2936	594.727	81.986	594.727	81.9763	594.727	81.6546	594.727	81.5803	594.727	81.3468	594.727	81.1446	594.727	81.0939	594.727	80.6951	594.727	80.8656	594.727	80.2234	594.727	80.567	594.727	79.6771	594.727	80.073	594.727	78.9736	594.727	79.2733	594.727	78.0315	594.727	78.107	594.727	76.8153	594.727	76.6075	594.727	75.4233	594.727	75.016	594.727	74.2427	594.727	73.9161	594.727	73.8743	594.727	73.856	594.727	74.3882	594.727	74.552	594.727	75.1644	594.727	75.3125	594.727	75.6796	594.727	75.7335
615.234	82.5783	615.234	82.503	615.234	82.4597	615.234	82.2386	615.234	82.1691	615.234	81.816	615.234	81.7562	615.234	81.2917	615.234	81.2941	615.234	80.7373	615.234	80.8578	615.234	80.2108	615.234	80.4834	615.234	79.7204	615.234	80.1398	615.234	79.2072	615.234	79.7406	615.234	78.5634	615.234	79.1809	615.234	77.6804	615.234	78.3653	615.234	76.5205	615.234	77.2287	615.234	75.229	615.234	75.7927	615.234	74.2506	615.234	74.326	615.234	74.091	615.234	73.5007	615.234	74.6616	615.234	73.8058	615.234	75.4067	615.234	74.7386	615.234	75.9102	615.234	75.5739	615.234	75.9855
637.207	82.3559	637.207	82.306	637.207	82.2005	637.207	82.0591	637.207	81.8537	637.207	81.6476	637.207	81.3551	637.207	81.1373	637.207	80.7766	637.207	80.6277	637.207	80.2173	637.207	80.2156	637.207	79.7684	637.207	79.9162	637.207	79.4483	637.207	79.6216	637.207	79.1637	637.207	79.1524	637.207	78.7488	637.207	78.3413	637.207	78.0474	637.207	77.095	637.207	76.9894	637.207	75.5154	637.207	75.6892	637.207	74.1998	637.207	74.5948	637.207	74.1132	637.207	74.3609	637.207	75.1236	637.207	75.0465	637.207	76.2369	637.207	76.0242	637.207	76.9358	637.207	76.7834	637.207	77.1121
659.18	83.6311	659.18	83.5177	659.18	83.5215	659.18	83.1923	659.18	83.1924	659.18	82.6833	659.18	82.6637	659.18	82.0383	659.18	81.9824	659.18	81.3261	659.18	81.236	659.18	80.6329	659.18	80.5407	659.18	80.0286	659.18	79.9725	659.18	79.4988	659.18	79.4858	659.18	78.9065	659.18	78.9149	659.18	78.0438	659.18	78.0464	659.18	76.7227	659.18	76.673	659.18	74.883	659.18	74.655	659.18	72.9055	659.18	72.2714	659.18	72.1078	659.18	71.1889	659.18	73.1458	659.18	72.5266	659.18	74.6382	659.18	74.3379	659.18	75.6391	659.18	75.5183	659.18	75.9426
682.617	83.5649	682.617	83.4614	682.617	83.4143	682.617	83.1101	682.617	83.0151	682.617	82.5329	682.617	82.3967	682.617	81.7925	682.617	81.6325	682.617	81.0225	682.617	80.8552	682.617	80.4076	682.617	80.2383	682.617	80.0563	682.617	79.901	682.617	79.8724	682.617	79.7831	682.617	79.6133	682.617	79.6513	682.617	79.0377	682.617	79.2344	682.617	77.9745	682.617	78.3253	682.617	76.3602	682.617	76.8271	682.617	74.4276	682.617	74.8848	682.617	73.1464	682.617	73.3009	682.617	73.5374	682.617	73.3251	682.617	74.7934	682.617	74.5364	682.617	75.7785	682.617	75.638	682.617	76.0856
707.52	84.4889	707.52	84.3823	707.52	84.3326	707.52	84.0139	707.52	83.926	707.52	83.4014	707.52	83.291	707.52	82.5817	707.52	82.4614	707.52	81.6237	707.52	81.5014	707.52	80.6556	707.52	80.5242	707.52	79.8537	707.52	79.6812	707.52	79.3165	707.52	79.0772	707.52	78.9199	707.52	78.6504	707.52	78.3747	707.52	78.1648	707.52	77.3923	707.52	77.342	707.52	75.7881	707.52	76.0113	707.52	73.7197	707.52	74.341	707.52	72.4516	707.52	73.2819	707.52	73.3694	707.52	73.834	707.52	75.0521	707.52	75.1675	707.52	76.195	707.52	76.1949	707.52	76.5653
732.422	85.4023	732.422	85.2505	732.422	85.3135	732.422	84.8717	732.422	84.9677	732.422	84.2734	732.422	84.3606	732.422	83.4703	732.422	83.5197	732.422	82.5113	732.422	82.5303	732.422	81.5096	732.422	81.55	732.422	80.6304	732.422	80.7574	732.422	79.9778	732.422	80.2016	732.422	79.4575	732.422	79.7166	732.422	78.8033	732.422	79.0335	732.422	77.7283	732.422	77.9125	732.422	76.0547	732.422	76.1903	732.422	73.9531	732.422	73.9319	732.422	72.5646	732.422	72.1708	732.422	73.196	732.422	72.7184	732.422	74.7356	732.422	74.4935	732.422	75.8828	732.422	75.8073	732.422	76.2685
757.324	86.0168	757.324	85.9136	757.324	85.8784	757.324	85.5578	757.324	85.504	757.324	84.9443	757.324	84.8891	757.324	84.0875	757.324	84.0291	757.324	83.0469	757.324	82.956	757.324	81.9757	757.324	81.8008	757.324	81.1371	757.324	80.8309	757.324	80.7194	757.324	80.2953	757.324	80.5558	757.324	80.1052	757.324	80.2306	757.324	79.8593	757.324	79.3762	757.324	79.1728	757.324	77.7576	757.324	77.8226	757.324	75.3339	757.324	75.7851	757.324	72.8978	757.324	73.585	757.324	72.7029	757.324	72.868	757.324	74.3061	757.324	74.0532	757.324	75.5789	757.324	75.3772	757.324	75.9439
785.156	86.5794	785.156	86.4938	785.156	86.4351	785.156	86.1784	785.156	86.0685	785.156	85.6301	785.156	85.4938	785.156	84.8355	785.156	84.7224	785.156	83.7887	785.156	83.7616	785.156	82.5447	785.156	82.6406	785.156	81.2819	785.156	81.4571	785.156	80.2696	785.156	80.3912	785.156	79.6273	785.156	79.5808	785.156	79.1279	785.156	78.9037	785.156	78.3654	785.156	77.9802	785.156	76.995	785.156	76.4028	785.156	74.9084	785.156	74.0268	785.156	72.9172	785.156	71.9745	785.156	73.165	785.156	72.7801	785.156	74.9817	785.156	74.912	785.156	76.3707	785.156	76.3628	785.156	76.842
811.523	86.4693	811.523	86.377	811.523	86.3458	811.523	86.0677	811.523	85.9923	811.523	85.5332	811.523	85.388	811.523	84.7759	811.523	84.5314	811.523	83.827	811.523	83.4741	811.523	82.7786	811.523	82.3576	811.523	81.8136	811.523	81.4204	811.523	81.1351	811.523	80.8718	811.523	80.7486	811.523	80.6489	811.523	80.3747	811.523	80.3908	811.523	79.6307	811.523	79.6761	811.523	78.1983	811.523	78.1743	811.523	75.9432	811.523	75.7026	811.523	73.4802	811.523	72.6993	811.523	72.95	811.523	71.6702	811.523	74.3168	811.523	73.339	811.523	75.4476	811.523	74.9617	811.523	75.6813
840.82	86.2785	840.82	86.1942	840.82	86.1626	840.82	85.8992	840.82	85.8586	840.82	85.3894	840.82	85.362	840.82	84.6608	840.82	84.6373	840.82	83.7103	840.82	83.6421	840.82	82.5701	840.82	82.4084	840.82	81.385	840.82	81.1628	840.82	80.4471	840.82	80.3135	840.82	79.964	840.82	80.0219	840.82	79.7216	840.82	79.8995	840.82	79.2497	840.82	79.4145	840.82	78.1636	840.82	78.1915	840.82	76.229	840.82	75.9936	840.82	73.5138	840.82	73.0011	840.82	71.5676	840.82	71.4129	840.82	72.5933	840.82	72.9388	840.82	74.3388	840.82	74.5891	840.82	75.0865
870.117	86.0922	870.117	85.9663	870.117	86.0222	870.117	85.6662	870.117	85.7304	870.117	85.1936	870.117	85.2057	870.117	84.5309	870.117	84.4608	870.117	83.6697	870.117	83.5355	870.117	82.6684	870.117	82.5038	870.117	81.7242	870.117	81.4996	870.117	81.1091	870.117	80.7237	870.117	80.8487	870.117	80.318	870.117	80.5927	870.117	80.1386	870.117	79.9316	870.117	79.7741	870.117	78.5965	870.117	78.7887	870.117	76.4339	870.117	76.84	870.117	73.622	870.117	73.8176	870.117	71.8841	870.117	71.151	870.117	72.8813	870.117	71.9746	870.117	74.2767	870.117	73.8435	870.117	74.6676
900.879	86.2721	900.879	86.1299	900.879	86.1456	900.879	85.7209	900.879	85.7543	900.879	85.0546	900.879	85.1042	900.879	84.1463	900.879	84.1993	900.879	83.0156	900.879	83.0473	900.879	81.7219	900.879	81.7132	900.879	80.4848	900.879	80.4471	900.879	79.7391	900.879	79.7172	900.879	79.7037	900.879	79.7215	900.879	79.9505	900.879	79.9893	900.879	79.8487	900.879	79.9196	900.879	78.9676	900.879	79.1627	900.879	77.0943	900.879	77.5551	900.879	74.4492	900.879	75.1699	900.879	72.6914	900.879	73.0972	900.879	73.4896	900.879	73.3793	900.879	74.8834	900.879	74.7759	900.879	75.4042
933.105	86.3545	933.105	86.2678	933.105	86.2292	933.105	85.9543	933.105	85.8966	933.105	85.394	933.105	85.3353	933.105	84.5499	933.105	84.4939	933.105	83.3565	933.105	83.3059	933.105	81.7625	933.105	81.7201	933.105	79.9148	933.105	79.8133	933.105	78.5046	933.105	78.1657	933.105	78.3873	933.105	77.9218	933.105	79.0782	933.105	78.8905	933.105	79.4962	933.105	79.6723	933.105	79.1082	933.105	79.5114	933.105	77.7481	933.105	78.2026	933.105	75.6125	933.105	75.9324	933.105	74.1709	933.105	73.9757	933.105	74.9944	933.105	74.2739	933.105	76.2221	933.105	75.6633	933.105	76.4748
965.332	86.8412	965.332	86.7009	965.332	86.7596	965.332	86.3601	965.332	86.4532	965.332	85.8343	965.332	85.9406	965.332	85.1055	965.332	85.2318	965.332	84.111	965.332	84.2848	965.332	82.7571	965.332	83.0077	965.332	80.9785	965.332	81.3481	965.332	78.9728	965.332	79.5074	965.332	77.6085	965.332	78.2219	965.332	77.6228	965.332	78.0889	965.332	78.1065	965.332	78.3614	965.332	77.9628	965.332	78.0836	965.332	76.7665	965.332	76.9362	965.332	74.8009	965.332	75.2481	965.332	74.0475	965.332	74.4408	965.332	75.5836	965.332	75.5161	965.332	77.1101	965.332	76.9602	965.332	77.5897
1,000.49	86.8997	1,000.49	86.8441	1,000.49	86.7514	1,000.49	86.5903	1,000.49	86.415	1,000.49	86.162	1,000.49	85.9273	1,000.49	85.5815	1,000.49	85.3084	1,000.49	84.8079	1,000.49	84.5127	1,000.49	83.7104	1,000.49	83.4448	1,000.49	82.1897	1,000.49	82.0617	1,000.49	80.4519	1,000.49	80.5294	1,000.49	79.2188	1,000.49	79.3655	1,000.49	78.9325	1,000.49	79.0335	1,000.49	78.8344	1,000.49	79.0782	1,000.49	78.0294	1,000.49	78.5931	1,000.49	76.1462	1,000.49	76.9818	1,000.49	73.6128	1,000.49	74.2217	1,000.49	73.0762	1,000.49	72.7178	1,000.49	75.3262	1,000.49	74.8618	1,000.49	77.2569	1,000.49	77.0314	1,000.49	77.8546
1,035.64	86.7886	1,035.64	86.7177	1,035.64	86.6102	1,035.64	86.4058	1,035.64	86.2324	1,035.64	85.9107	1,035.64	85.7298	1,035.64	85.2946	1,035.64	85.1384	1,035.64	84.5563	1,035.64	84.4094	1,035.64	83.595	1,035.64	83.4358	1,035.64	82.2747	1,035.64	82.1353	1,035.64	80.6158	1,035.64	80.5919	1,035.64	79.0836	1,035.64	79.2658	1,035.64	78.4056	1,035.64	78.7345	1,035.64	78.3449	1,035.64	78.7019	1,035.64	77.8672	1,035.64	78.3158	1,035.64	76.2387	1,035.64	76.9922	1,035.64	73.3602	1,035.64	74.4413	1,035.64	72.0335	1,035.64	72.1617	1,035.64	74.6619	1,035.64	74.1637	1,035.64	76.9537	1,035.64	76.756	1,035.64	77.6871
1,072.27	87.2918	1,072.27	87.1493	1,072.27	87.1071	1,072.27	86.7101	1,072.27	86.6151	1,072.27	86.0496	1,072.27	85.8787	1,072.27	85.2578	1,072.27	84.9902	1,072.27	84.3752	1,072.27	84.0108	1,072.27	83.3276	1,072.27	82.8708	1,072.27	81.9509	1,072.27	81.4107	1,072.27	80.2393	1,072.27	79.6805	1,072.27	78.8876	1,072.27	78.4333	1,072.27	78.8615	1,072.27	78.6333	1,072.27	79.4038	1,072.27	79.4947	1,072.27	79.2686	1,072.27	79.645	1,072.27	77.8912	1,072.27	78.3828	1,072.27	75.0008	1,072.27	75.4304	1,072.27	72.3092	1,072.27	72.226	1,072.27	74.4676	1,072.27	73.563	1,072.27	76.8752	1,072.27	76.184	1,072.27	77.3923
1,108.89	87.3548	1,108.89	87.2427	1,108.89	87.0971	1,108.89	86.7613	1,108.89	86.4838	1,108.89	85.9503	1,108.89	85.5863	1,108.89	84.9515	1,108.89	84.5482	1,108.89	83.941	1,108.89	83.4979	1,108.89	82.9156	1,108.89	82.4281	1,108.89	81.7064	1,108.89	81.1802	1,108.89	80.2932	1,108.89	79.6124	1,108.89	79.0795	1,108.89	78.1108	1,108.89	78.7286	1,108.89	77.8907	1,108.89	79.0978	1,108.89	78.7991	1,108.89	79.1318	1,108.89	79.2215	1,108.89	77.9431	1,108.89	78.292	1,108.89	75.0913	1,108.89	75.7129	1,108.89	72.3143	1,108.89	72.2853	1,108.89	74.2632	1,108.89	72.7483	1,108.89	76.5289	1,108.89	75.544	1,108.89	76.9457
1,148.44	87.4691	1,148.44	87.3258	1,148.44	87.2285	1,148.44	86.7576	1,148.44	86.6379	1,148.44	85.8113	1,148.44	85.7211	1,148.44	84.6661	1,148.44	84.5716	1,148.44	83.5119	1,148.44	83.362	1,148.44	82.3737	1,148.44	82.1864	1,148.44	81.1006	1,148.44	80.925	1,148.44	79.574	1,148.44	79.3934	1,148.44	78.2344	1,148.44	77.7997	1,148.44	78.1756	1,148.44	77.2434	1,148.44	79.0221	1,148.44	78.1275	1,148.44	79.2787	1,148.44	78.929	1,148.44	78.1292	1,148.44	78.4746	1,148.44	75.1406	1,148.44	76.2407	1,148.44	71.2316	1,148.44	72.8171	1,148.44	72.6753	1,148.44	73.199	1,148.44	75.6309	1,148.44	75.7535	1,148.44	76.6595
1,189.45	87.6718	1,189.45	87.4663	1,189.45	87.4331	1,189.45	86.8639	1,189.45	86.7662	1,189.45	85.9267	1,189.45	85.7384	1,189.45	84.6983	1,189.45	84.4438	1,189.45	83.2629	1,189.45	83.0212	1,189.45	81.7378	1,189.45	81.613	1,189.45	80.0581	1,189.45	80.1372	1,189.45	77.9933	1,189.45	78.2717	1,189.45	76.0547	1,189.45	76.2601	1,189.45	76.2015	1,189.45	75.9324	1,189.45	77.8593	1,189.45	77.4729	1,189.45	78.8322	1,189.45	78.6601	1,189.45	78.2827	1,189.45	78.4597	1,189.45	75.8835	1,189.45	76.5519	1,189.45	72.5145	1,189.45	73.4764	1,189.45	73.2159	1,189.45	73.1285	1,189.45	75.7058	1,189.45	75.4167	1,189.45	76.5038
1,230.47	86.5563	1,230.47	86.4153	1,230.47	86.3789	1,230.47	85.9288	1,230.47	85.8646	1,230.47	85.0642	1,230.47	84.9986	1,230.47	83.8754	1,230.47	83.8177	1,230.47	82.4995	1,230.47	82.4199	1,230.47	80.9966	1,230.47	80.9249	1,230.47	79.1973	1,230.47	79.3119	1,230.47	76.753	1,230.47	77.2904	1,230.47	73.7802	1,230.47	74.8128	1,230.47	73.1832	1,230.47	73.9599	1,230.47	75.5882	1,230.47	76.0692	1,230.47	77.2818	1,230.47	77.9093	1,230.47	77.2687	1,230.47	78.0399	1,230.47	75.12	1,230.47	76.0422	1,230.47	70.7291	1,230.47	71.8359	1,230.47	70.8216	1,230.47	70.2713	1,230.47	74.0896	1,230.47	73.4336	1,230.47	74.9313
1,274.41	85.9614	1,274.41	85.7653	1,274.41	85.7799	1,274.41	85.2045	1,274.41	85.247	1,274.41	84.3505	1,274.41	84.4049	1,274.41	83.3005	1,274.41	83.3485	1,274.41	82.1527	1,274.41	82.2289	1,274.41	80.9727	1,274.41	81.1182	1,274.41	79.6423	1,274.41	79.8483	1,274.41	77.712	1,274.41	77.9529	1,274.41	74.4739	1,274.41	74.7398	1,274.41	70.9384	1,274.41	71.1276	1,274.41	73.4354	1,274.41	73.5201	1,274.41	76.455	1,274.41	76.6626	1,274.41	77.2101	1,274.41	77.6217	1,274.41	75.8518	1,274.41	76.4999	1,274.41	72.6637	1,274.41	73.7043	1,274.41	70.9259	1,274.41	72.2639	1,274.41	73.3038	1,274.41	73.8987	1,274.41	74.6424
1,319.82	86.0532	1,319.82	85.7994	1,319.82	85.834	1,319.82	85.1416	1,319.82	85.1525	1,319.82	84.17	1,319.82	84.1475	1,319.82	82.9859	1,319.82	83.0372	1,319.82	81.7432	1,319.82	82.0037	1,319.82	80.6645	1,319.82	81.1434	1,319.82	79.7603	1,319.82	80.3607	1,319.82	78.4754	1,319.82	79.191	1,319.82	75.8924	1,319.82	77.0321	1,319.82	71.5328	1,319.82	73.8313	1,319.82	71.462	1,319.82	72.3431	1,319.82	75.1751	1,319.82	74.6036	1,319.82	76.5854	1,319.82	76.4334	1,319.82	75.7383	1,319.82	76.3894	1,319.82	73.6253	1,319.82	74.7627	1,319.82	73.4635	1,319.82	74.1334	1,319.82	75.3861	1,319.82	75.6649	1,319.82	76.3778
1,366.7	86.2592	1,366.7	85.98	1,366.7	86.0942	1,366.7	85.2922	1,366.7	85.496	1,366.7	84.2376	1,366.7	84.5151	1,366.7	82.8936	1,366.7	83.2417	1,366.7	81.455	1,366.7	81.8877	1,366.7	80.1707	1,366.7	80.7374	1,366.7	79.1167	1,366.7	79.8138	1,366.7	78.0036	1,366.7	78.6997	1,366.7	76.1692	1,366.7	76.7509	1,366.7	72.9414	1,366.7	73.4631	1,366.7	71.0544	1,366.7	71.1029	1,366.7	74.282	1,366.7	73.7368	1,366.7	76.1286	1,366.7	75.558	1,366.7	75.3009	1,366.7	74.8148	1,366.7	72.881	1,366.7	72.3563	1,366.7	73.4214	1,366.7	72.6065	1,366.7	75.7439	1,366.7	75.2518	1,366.7	76.4749
1,413.57	86.2073	1,413.57	85.9758	1,413.57	86.0207	1,413.57	85.2975	1,413.57	85.4433	1,413.57	84.2028	1,413.57	84.4357	1,413.57	82.7075	1,413.57	82.9935	1,413.57	80.8685	1,413.57	81.3146	1,413.57	79.1586	1,413.57	79.8342	1,413.57	78.283	1,413.57	78.8959	1,413.57	77.8208	1,413.57	78.1848	1,413.57	76.5323	1,413.57	76.8989	1,413.57	73.4196	1,413.57	74.2485	1,413.57	69.2834	1,413.57	70.816	1,413.57	71.5066	1,413.57	72.2944	1,413.57	74.0215	1,413.57	74.5673	1,413.57	73.6206	1,413.57	74.0945	1,413.57	71.2406	1,413.57	71.4401	1,413.57	71.9591	1,413.57	71.2771	1,413.57	74.8116	1,413.57	74.2773	1,413.57	75.6964
1,463.38	86.8281	1,463.38	86.674	1,463.38	86.5846	1,463.38	86.0431	1,463.38	85.9732	1,463.38	84.8942	1,463.38	85.0205	1,463.38	83.3596	1,463.38	83.7091	1,463.38	81.6116	1,463.38	81.9896	1,463.38	79.6954	1,463.38	80.1019	1,463.38	77.9324	1,463.38	78.7125	1,463.38	76.8078	1,463.38	77.8622	1,463.38	75.4582	1,463.38	76.4713	1,463.38	72.4299	1,463.38	73.7853	1,463.38	67.7837	1,463.38	71.6236	1,463.38	70.2412	1,463.38	73.1912	1,463.38	73.6746	1,463.38	74.9742	1,463.38	73.6504	1,463.38	74.8595	1,463.38	70.9897	1,463.38	72.3161	1,463.38	70.8983	1,463.38	71.4441	1,463.38	73.8553	1,463.38	74.564	1,463.38	75.4246
1,516.11	87.7295	1,516.11	87.4341	1,516.11	87.5977	1,516.11	86.8054	1,516.11	86.9467	1,516.11	85.7758	1,516.11	85.8507	1,516.11	84.2848	1,516.11	84.455	1,516.11	82.5136	1,516.11	82.8366	1,516.11	80.6931	1,516.11	81.0823	1,516.11	78.9374	1,516.11	79.3782	1,516.11	77.5681	1,516.11	77.9096	1,516.11	76.2925	1,516.11	76.4754	1,516.11	73.7066	1,516.11	74.1833	1,516.11	68.7012	1,516.11	70.9006	1,516.11	69.1434	1,516.11	71.8524	1,516.11	73.2741	1,516.11	74.4224	1,516.11	73.7858	1,516.11	74.7274	1,516.11	71.3786	1,516.11	72.9211	1,516.11	71.3954	1,516.11	71.8499	1,516.11	74.368	1,516.11	74.3956	1,516.11	75.6101
1,568.85	88.0005	1,568.85	87.7532	1,568.85	87.9332	1,568.85	87.1999	1,568.85	87.4384	1,568.85	86.2829	1,568.85	86.4158	1,568.85	84.9425	1,568.85	84.9021	1,568.85	83.1914	1,568.85	82.9776	1,568.85	81.163	1,568.85	80.6937	1,568.85	79.2236	1,568.85	78.4965	1,568.85	77.9899	1,568.85	77.2473	1,568.85	77.1768	1,568.85	76.5956	1,568.85	75.4577	1,568.85	75.0136	1,568.85	71.3596	1,568.85	70.575	1,568.85	65.8919	1,568.85	65.8971	1,568.85	71.1845	1,568.85	71.8077	1,568.85	73.0109	1,568.85	73.855	1,568.85	71.1783	1,568.85	72.6278	1,568.85	71.2788	1,568.85	72.5143	1,568.85	74.9121	1,568.85	75.7604	1,568.85	76.7365
1,624.51	87.7212	1,624.51	87.6215	1,624.51	87.4902	1,624.51	87.0655	1,624.51	87.0232	1,624.51	86.1752	1,624.51	86.136	1,624.51	85.0391	1,624.51	84.8146	1,624.51	83.5315	1,624.51	83.2129	1,624.51	81.5761	1,624.51	81.1077	1,624.51	79.452	1,624.51	78.5051	1,624.51	77.728	1,624.51	76.2551	1,624.51	76.5886	1,624.51	74.7962	1,624.51	75.4438	1,624.51	74.1104	1,624.51	72.9945	1,624.51	72.4346	1,624.51	68.2911	1,624.51	67.8224	1,624.51	69.1728	1,624.51	68.2169	1,624.51	71.2538	1,624.51	70.8411	1,624.51	70.0687	1,624.51	70.6939	1,624.51	70.6838	1,624.51	69.9584	1,624.51	73.7804	1,624.51	73.0153	1,624.51	74.867
1,681.64	87.7613	1,681.64	87.4853	1,681.64	87.5962	1,681.64	86.8965	1,681.64	87.1124	1,681.64	86.1949	1,681.64	86.3425	1,681.64	85.2048	1,681.64	85.177	1,681.64	83.6498	1,681.64	83.6647	1,681.64	81.5801	1,681.64	81.9483	1,681.64	79.2085	1,681.64	79.9138	1,681.64	76.7769	1,681.64	77.4563	1,681.64	74.5282	1,681.64	75.0555	1,681.64	72.5808	1,681.64	73.1019	1,681.64	71.3323	1,681.64	70.7655	1,681.64	68.8419	1,681.64	67.1146	1,681.64	66.2842	1,681.64	66.3558	1,681.64	69.3615	1,681.64	68.9844	1,681.64	69.3798	1,681.64	69.9404	1,681.64	69.5964	1,681.64	70.9245	1,681.64	72.6816	1,681.64	73.2697	1,681.64	74.124
1,741.7	87.9527	1,741.7	87.7695	1,741.7	87.7216	1,741.7	87.2036	1,741.7	87.102	1,741.7	86.2935	1,741.7	86.3034	1,741.7	85.1845	1,741.7	85.3465	1,741.7	83.9514	1,741.7	83.9518	1,741.7	82.3861	1,741.7	82.1515	1,741.7	80.2525	1,741.7	80.2465	1,741.7	77.8176	1,741.7	78.2189	1,741.7	75.7051	1,741.7	76.0225	1,741.7	73.5396	1,741.7	73.5478	1,741.7	70.1499	1,741.7	70.8062	1,741.7	66.9785	1,741.7	68.2766	1,741.7	65.7337	1,741.7	65.8398	1,741.7	64.84	1,741.7	66.1482	1,741.7	67.5159	1,741.7	69.3698	1,741.7	71.5777	1,741.7	72.8646	1,741.7	74.9003	1,741.7	75.2463	1,741.7	76.1084
1,803.22	87.6347	1,803.22	87.256	1,803.22	87.3402	1,803.22	86.3981	1,803.22	86.2217	1,803.22	85.1434	1,803.22	84.7292	1,803.22	83.7574	1,803.22	83.4981	1,803.22	82.605	1,803.22	82.3457	1,803.22	81.4742	1,803.22	80.9357	1,803.22	79.8276	1,803.22	79.4043	1,803.22	78.2616	1,803.22	77.9683	1,803.22	77.3799	1,803.22	76.6692	1,803.22	75.5199	1,803.22	74.7426	1,803.22	71.943	1,803.22	71.582	1,803.22	69.2015	1,803.22	68.5391	1,803.22	67.1393	1,803.22	66.3273	1,803.22	60.816	1,803.22	63.2503	1,803.22	60.0832	1,803.22	49.4348	1,803.22	70.3261	1,803.22	70.131	1,803.22	74.0009	1,803.22	74.7731	1,803.22	75.4647
1,866.21	86.1852	1,866.21	85.9138	1,866.21	85.6445	1,866.21	84.825	1,866.21	84.5248	1,866.21	83.2069	1,866.21	83.1219	1,866.21	81.674	1,866.21	81.4263	1,866.21	80.2917	1,866.21	79.7409	1,866.21	78.7202	1,866.21	78.3499	1,866.21	77.1403	1,866.21	76.9382	1,866.21	75.9919	1,866.21	75.6487	1,866.21	76.0664	1,866.21	74.6409	1,866.21	75.5302	1,866.21	73.921	1,866.21	72.1254	1,866.21	72.5609	1,866.21	68.8927	1,866.21	69.9147	1,866.21	69.3815	1,866.21	69.217	1,866.21	67.6563	1,866.21	67.4936	1,866.21	58.7296	1,866.21	58.6977	1,866.21	65.0829	1,866.21	64.8189	1,866.21	71.2867	1,866.21	71.1294	1,866.21	72.9595
1,932.13	84.6735	1,932.13	84.5712	1,932.13	84.4767	1,932.13	83.9007	1,932.13	83.6603	1,932.13	82.6367	1,932.13	82.1553	1,932.13	81.0954	1,932.13	80.5004	1,932.13	79.2491	1,932.13	78.6762	1,932.13	77.1949	1,932.13	76.0411	1,932.13	74.9996	1,932.13	73.4373	1,932.13	73.2677	1,932.13	72.5216	1,932.13	73.2343	1,932.13	72.3866	1,932.13	73.3073	1,932.13	72.3156	1,932.13	71.6839	1,932.13	71.2331	1,932.13	69.3903	1,932.13	68.7253	1,932.13	70.5626	1,932.13	68.001	1,932.13	70.66	1,932.13	69.2593	1,932.13	67.2323	1,932.13	68.1548	1,932.13	63.2196	1,932.13	61.9742	1,932.13	65.7275	1,932.13	64.6498	1,932.13	67.3362
1,999.51	83.7751	1,999.51	83.7579	1,999.51	83.1271	1,999.51	82.9988	1,999.51	82.2327	1,999.51	81.8966	1,999.51	80.9443	1,999.51	80.286	1,999.51	79.1584	1,999.51	77.8963	1,999.51	77.305	1,999.51	75.4064	1,999.51	74.9973	1,999.51	72.7357	1,999.51	71.9865	1,999.51	69.1404	1,999.51	69.1672	1,999.51	66.8506	1,999.51	67.1412	1,999.51	67.6547	1,999.51	66.8437	1,999.51	67.7812	1,999.51	65.7842	1,999.51	63.3846	1,999.51	64.9695	1,999.51	66.2939	1,999.51	65.8503	1,999.51	70.4429	1,999.51	68.3493	1,999.51	69.0645	1,999.51	68.2558	1,999.51	61.0071	1,999.51	62.4618	1,999.51	56.3013	1,999.51	41.381	1,999.51	57.2782
2,069.82	83.1413	2,069.82	82.9286	2,069.82	82.7615	2,069.82	82.0597	2,069.82	81.7322	2,069.82	80.5793	2,069.82	80.0271	2,069.82	78.5709	2,069.82	77.9375	2,069.82	76.1066	2,069.82	75.6502	2,069.82	73.5694	2,069.82	73.5357	2,069.82	71.813	2,069.82	71.7503	2,069.82	70.2983	2,069.82	69.2605	2,069.82	67.1865	2,069.82	66.283	2,069.82	65.1326	2,069.82	64.9709	2,069.82	65.7261	2,069.82	65.3497	2,069.82	64.0507	2,069.82	63.8525	2,069.82	60.6174	2,069.82	62.5603	2,069.82	66.3657	2,069.82	66.373	2,069.82	68.4826	2,069.82	67.9591	2,069.82	64.036	2,069.82	64.7667	2,069.82	57.9999	2,069.82	58.6435	2,069.82	61.9158
2,143.07	83.6933	2,143.07	83.312	2,143.07	83.3901	2,143.07	82.3027	2,143.07	82.4431	2,143.07	80.7093	2,143.07	80.8091	2,143.07	78.4054	2,143.07	78.6416	2,143.07	75.8334	2,143.07	76.1522	2,143.07	73.5768	2,143.07	73.7277	2,143.07	71.3928	2,143.07	71.1135	2,143.07	68.9609	2,143.07	68.5561	2,143.07	66.7013	2,143.07	67.8716	2,143.07	64.6853	2,143.07	66.9547	2,143.07	65.1208	2,143.07	67.0116	2,143.07	65.9994	2,143.07	66.3305	2,143.07	62.3206	2,143.07	62.535	2,143.07	67.1937	2,143.07	66.0678	2,143.07	68.6664	2,143.07	68.2775	2,143.07	66.1292	2,143.07	64.7105	2,143.07	65.009	2,143.07	64.3944	2,143.07	66.3154
2,219.24	84.9868	2,219.24	84.5928	2,219.24	84.5941	2,219.24	83.4671	2,219.24	83.4434	2,219.24	81.8323	2,219.24	81.473	2,219.24	79.4691	2,219.24	79.0998	2,219.24	76.6701	2,219.24	76.9835	2,219.24	74.8096	2,219.24	75.5604	2,219.24	72.7512	2,219.24	74.1167	2,219.24	70.6037	2,219.24	71.4109	2,219.24	69.7844	2,219.24	69.6886	2,219.24	67.0489	2,219.24	69.4422	2,219.24	64.8481	2,219.24	68.1926	2,219.24	66.0105	2,219.24	68.0103	2,219.24	63.5796	2,219.24	66.3555	2,219.24	64.7088	2,219.24	66.6983	2,219.24	69.181	2,219.24	69.3385	2,219.24	67.2528	2,219.24	66.3283	2,219.24	68.3728	2,219.24	68.1243	2,219.24	70.5776
2,296.88	85.0643	2,296.88	84.7509	2,296.88	84.9653	2,296.88	83.6858	2,296.88	83.9395	2,296.88	81.7892	2,296.88	82.2428	2,296.88	79.7293	2,296.88	80.7435	2,296.88	78.1105	2,296.88	79.3192	2,296.88	77.2153	2,296.88	77.9498	2,296.88	75.9209	2,296.88	76.5089	2,296.88	73.3876	2,296.88	74.8548	2,296.88	72.13	2,296.88	73.6856	2,296.88	71.8496	2,296.88	71.4183	2,296.88	69.2649	2,296.88	69.1968	2,296.88	68.9866	2,296.88	69.0764	2,296.88	69.6795	2,296.88	66.1763	2,296.88	68.0889	2,296.88	66.3438	2,296.88	68.497	2,296.88	69.9438	2,296.88	67.9173	2,296.88	67.9821	2,296.88	72.0028	2,296.88	69.2035	2,296.88	73.3585
2,378.91	86.7089	2,378.91	86.2399	2,378.91	86.5248	2,378.91	85.4149	2,378.91	85.6805	2,378.91	84.1787	2,378.91	84.4194	2,378.91	82.3936	2,378.91	83.254	2,378.91	81.352	2,378.91	82.3716	2,378.91	80.4665	2,378.91	81.3882	2,378.91	79.1588	2,378.91	80.2972	2,378.91	77.6688	2,378.91	78.4794	2,378.91	75.3515	2,378.91	76.3407	2,378.91	74.4141	2,378.91	75.8933	2,378.91	72.8018	2,378.91	74.0602	2,378.91	72.3714	2,378.91	73.2153	2,378.91	71.0566	2,378.91	71.3904	2,378.91	71.3892	2,378.91	68.9983	2,378.91	70.1998	2,378.91	72.06	2,378.91	68.2049	2,378.91	70.8342	2,378.91	74.8662	2,378.91	74.7598	2,378.91	76.516
2,462.4	86.6517	2,462.4	86.48	2,462.4	86.3359	2,462.4	85.6683	2,462.4	85.8192	2,462.4	84.812	2,462.4	84.9424	2,462.4	84.0382	2,462.4	84.3173	2,462.4	83.1368	2,462.4	83.6342	2,462.4	81.961	2,462.4	82.4367	2,462.4	81.0955	2,462.4	81.6785	2,462.4	80.3545	2,462.4	80.7729	2,462.4	78.5588	2,462.4	78.7355	2,462.4	76.7044	2,462.4	77.4804	2,462.4	74.6282	2,462.4	75.8722	2,462.4	72.8913	2,462.4	74.1965	2,462.4	72.6489	2,462.4	72.6112	2,462.4	72.0203	2,462.4	72.5595	2,462.4	73.0044	2,462.4	73.727	2,462.4	67.0876	2,462.4	69.7332	2,462.4	74.9082	2,462.4	75.4805	2,462.4	78.5035
2,548.83	83.4686	2,548.83	83.1374	2,548.83	83.5197	2,548.83	82.9237	2,548.83	83.1691	2,548.83	82.9577	2,548.83	83.2721	2,548.83	83.0804	2,548.83	83.1756	2,548.83	82.4923	2,548.83	82.4935	2,548.83	81.2533	2,548.83	81.1433	2,548.83	80.3233	2,548.83	79.7063	2,548.83	79.0962	2,548.83	79.2108	2,548.83	77.1929	2,548.83	77.5258	2,548.83	76.1578	2,548.83	75.7244	2,548.83	74.2881	2,548.83	74.5263	2,548.83	72.0004	2,548.83	71.8235	2,548.83	70.735	2,548.83	71.4689	2,548.83	71.4423	2,548.83	70.4956	2,548.83	71.5483	2,548.83	71.69	2,548.83	65.9421	2,548.83	60.1615	2,548.83	73.6595	2,548.83	73.3625	2,548.83	75.9332
2,639.65	83.8178	2,639.65	83.8947	2,639.65	84.1433	2,639.65	84.2242	2,639.65	84.4976	2,639.65	84.5166	2,639.65	84.6252	2,639.65	84.0965	2,639.65	84.3566	2,639.65	83.2232	2,639.65	83.5847	2,639.65	81.7389	2,639.65	82.1438	2,639.65	79.8789	2,639.65	80.267	2,639.65	78.5337	2,639.65	78.7766	2,639.65	76.2209	2,639.65	76.8816	2,639.65	74.4024	2,639.65	75.1718	2,639.65	73.8451	2,639.65	73.9566	2,639.65	70.6418	2,639.65	72.4915	2,639.65	68.4675	2,639.65	71.3881	2,639.65	68.8564	2,639.65	71.2047	2,639.65	71.5305	2,639.65	72.9191	2,639.65	57.0516	2,639.65	66.7316	2,639.65	70.521	2,639.65	71.7266	2,639.65	75.7169
2,731.93	85.0053	2,731.93	85.1178	2,731.93	85.2151	2,731.93	85.5531	2,731.93	85.4931	2,731.93	85.6427	2,731.93	85.6071	2,731.93	85.0712	2,731.93	85.0025	2,731.93	84.0378	2,731.93	83.7949	2,731.93	82.2173	2,731.93	81.9332	2,731.93	80.2165	2,731.93	79.6276	2,731.93	78.532	2,731.93	78.385	2,731.93	76.5253	2,731.93	76.5594	2,731.93	75.3487	2,731.93	74.2427	2,731.93	74.3622	2,731.93	73.2374	2,731.93	71.7911	2,731.93	71.4939	2,731.93	69.9599	2,731.93	70.096	2,731.93	68.1857	2,731.93	69.8538	2,731.93	71.7882	2,731.93	72.1655	2,731.93	63.8237	2,731.93	66.9799	2,731.93	69.5399	2,731.93	69.1615	2,731.93	74.8117
2,828.61	86.2742	2,828.61	86.4614	2,828.61	86.4945	2,828.61	86.6808	2,828.61	86.727	2,828.61	86.4085	2,828.61	86.3818	2,828.61	85.3372	2,828.61	85.5223	2,828.61	83.8909	2,828.61	84.1844	2,828.61	82.2227	2,828.61	82.418	2,828.61	79.5935	2,828.61	79.7219	2,828.61	77.1337	2,828.61	77.6603	2,828.61	75.7283	2,828.61	76.3491	2,828.61	73.3569	2,828.61	74.3931	2,828.61	73.5222	2,828.61	73.4472	2,828.61	71.0474	2,828.61	72.5523	2,828.61	68.1962	2,828.61	68.5832	2,828.61	66.0538	2,828.61	64.4502	2,828.61	71.3208	2,828.61	69.2706	2,828.61	67.7023	2,828.61	69.8818	2,828.61	66.8898	2,828.61	62.7089	2,828.61	73.8024
2,928.22	87.6571	2,928.22	87.6787	2,928.22	87.7825	2,928.22	87.8334	2,928.22	87.9281	2,928.22	87.5614	2,928.22	87.6124	2,928.22	86.4957	2,928.22	86.5054	2,928.22	84.6294	2,928.22	84.7823	2,928.22	82.8893	2,928.22	82.8706	2,928.22	80.5986	2,928.22	80.5621	2,928.22	77.8583	2,928.22	78.0211	2,928.22	76.3291	2,928.22	76.375	2,928.22	73.801	2,928.22	74.3379	2,928.22	72.6055	2,928.22	73.4244	2,928.22	70.5114	2,928.22	70.8881	2,928.22	69.7731	2,928.22	70.2981	2,928.22	64.7828	2,928.22	66.799	2,928.22	70.2695	2,928.22	70.0625	2,928.22	68.9612	2,928.22	68.6243	2,928.22	65.6281	2,928.22	60.7441	2,928.22	70.7628
3,030.76	88.188	3,030.76	88.243	3,030.76	88.2327	3,030.76	88.2939	3,030.76	88.3447	3,030.76	87.8626	3,030.76	88.0143	3,030.76	86.6732	3,030.76	86.677	3,030.76	84.4849	3,030.76	84.5092	3,030.76	82.3876	3,030.76	82.3644	3,030.76	80.2828	3,030.76	80.3746	3,030.76	77.4507	3,030.76	77.6104	3,030.76	76.2423	3,030.76	75.8119	3,030.76	73.9374	3,030.76	73.5285	3,030.76	72.5236	3,030.76	73.0581	3,030.76	71.6606	3,030.76	70.6614	3,030.76	70.1633	3,030.76	70.5488	3,030.76	65.945	3,030.76	66.3171	3,030.76	69.3566	3,030.76	68.3608	3,030.76	68.2837	3,030.76	66.9174	3,030.76	67.6041	3,030.76	60.7769	3,030.76	70.4536
3,137.7	88.2325	3,137.7	88.3313	3,137.7	88.4039	3,137.7	88.393	3,137.7	88.535	3,137.7	87.9001	3,137.7	87.9799	3,137.7	86.6497	3,137.7	86.6939	3,137.7	84.474	3,137.7	84.5138	3,137.7	82.1046	3,137.7	81.8763	3,137.7	80.0229	3,137.7	79.91	3,137.7	77.1801	3,137.7	77.338	3,137.7	75.8604	3,137.7	75.6005	3,137.7	74.0393	3,137.7	73.1076	3,137.7	71.8566	3,137.7	72.1811	3,137.7	69.9413	3,137.7	71.5518	3,137.7	70.6981	3,137.7	69.3651	3,137.7	68.09	3,137.7	68.4035	3,137.7	67.3469	3,137.7	67.2331	3,137.7	64.4435	3,137.7	65.0454	3,137.7	64.5936	3,137.7	65.5466	3,137.7	68.9743
3,249.02	88.6815	3,249.02	88.5716	3,249.02	88.8321	3,249.02	88.612	3,249.02	88.6874	3,249.02	87.9954	3,249.02	87.9972	3,249.02	86.6763	3,249.02	86.607	3,249.02	84.6018	3,249.02	84.5712	3,249.02	82.1057	3,249.02	81.8689	3,249.02	79.7394	3,249.02	79.7612	3,249.02	77.1626	3,249.02	77.208	3,249.02	74.492	3,249.02	74.8029	3,249.02	72.4114	3,249.02	73.9518	3,249.02	70.909	3,249.02	70.3498	3,249.02	70.2798	3,249.02	71.3062	3,249.02	68.6681	3,249.02	70.3518	3,249.02	66.8632	3,249.02	68.9062	3,249.02	66.2205	3,249.02	66.5354	3,249.02	65.6597	3,249.02	66.9675	3,249.02	62.9772	3,249.02	63.4172	3,249.02	69.5177
3,363.28	88.6509	3,363.28	88.6603	3,363.28	88.4989	3,363.28	88.2659	3,363.28	88.4883	3,363.28	87.6405	3,363.28	87.7229	3,363.28	85.95	3,363.28	86.1322	3,363.28	83.933	3,363.28	84.1217	3,363.28	81.8178	3,363.28	81.5105	3,363.28	79.6854	3,363.28	79.3715	3,363.28	77.7341	3,363.28	77.4162	3,363.28	74.5406	3,363.28	75.135	3,363.28	73.0768	3,363.28	74.1427	3,363.28	69.8961	3,363.28	70.9843	3,363.28	69.8408	3,363.28	70.5981	3,363.28	64.8569	3,363.28	66.8449	3,363.28	68.1599	3,363.28	68.2998	3,363.28	64.3335	3,363.28	65.4516	3,363.28	67.7558	3,363.28	68.108	3,363.28	54.6285	3,363.28	62.6918	3,363.28	68.7361
3,481.93	88.4951	3,481.93	88.4412	3,481.93	88.4797	3,481.93	88.0114	3,481.93	88.3739	3,481.93	87.0191	3,481.93	87.1704	3,481.93	85.43	3,481.93	85.309	3,481.93	83.0374	3,481.93	82.9383	3,481.93	80.8336	3,481.93	80.6758	3,481.93	79.3959	3,481.93	79.0268	3,481.93	77.76	3,481.93	77.4942	3,481.93	75.1654	3,481.93	74.9004	3,481.93	74.0012	3,481.93	74.0352	3,481.93	70.7995	3,481.93	71.6288	3,481.93	71.2059	3,481.93	69.656	3,481.93	66.3803	3,481.93	66.1442	3,481.93	68.6026	3,481.93	68.5961	3,481.93	64.7271	3,481.93	64.2324	3,481.93	68.8123	3,481.93	68.4668	3,481.93	54.9756	3,481.93	61.6171	3,481.93	68.0495
3,604.98	87.927	3,604.98	87.7861	3,604.98	88.1783	3,604.98	87.5432	3,604.98	87.6074	3,604.98	86.2693	3,604.98	86.3405	3,604.98	84.369	3,604.98	84.5059	3,604.98	82.2309	3,604.98	82.5798	3,604.98	80.8827	3,604.98	81.0847	3,604.98	78.2929	3,604.98	78.9237	3,604.98	76.8596	3,604.98	77.6569	3,604.98	75.2376	3,604.98	75.6616	3,604.98	74.0917	3,604.98	74.1437	3,604.98	71.57	3,604.98	72.4604	3,604.98	70.6443	3,604.98	70.462	3,604.98	67.4903	3,604.98	68.7127	3,604.98	69.0171	3,604.98	69.4218	3,604.98	65.8432	3,604.98	64.2231	3,604.98	68.718	3,604.98	68.9569	3,604.98	60.8879	3,604.98	57.6144	3,604.98	69.1103
3,732.42	88.1049	3,732.42	87.7339	3,732.42	87.6321	3,732.42	86.8462	3,732.42	86.8963	3,732.42	85.8324	3,732.42	85.5397	3,732.42	83.7267	3,732.42	83.789	3,732.42	82.3761	3,732.42	81.8938	3,732.42	81.2847	3,732.42	80.6074	3,732.42	78.8466	3,732.42	78.9132	3,732.42	77.1814	3,732.42	77.0087	3,732.42	75.0877	3,732.42	75.3988	3,732.42	73.372	3,732.42	73.6425	3,732.42	70.5742	3,732.42	72.0954	3,732.42	70.0877	3,732.42	70.095	3,732.42	68.0541	3,732.42	65.1239	3,732.42	68.0163	3,732.42	68.3823	3,732.42	66.2774	3,732.42	63.1221	3,732.42	68.6229	3,732.42	67.9007	3,732.42	62.2675	3,732.42	52.3046	3,732.42	68.3199
3,864.26	89.0505	3,864.26	88.6858	3,864.26	88.5744	3,864.26	87.5587	3,864.26	87.8976	3,864.26	86.4524	3,864.26	86.1203	3,864.26	85.1301	3,864.26	84.4464	3,864.26	83.4431	3,864.26	82.7761	3,864.26	81.8367	3,864.26	81.3829	3,864.26	80.4929	3,864.26	79.6702	3,864.26	78.4938	3,864.26	77.9889	3,864.26	76.8535	3,864.26	75.6838	3,864.26	73.6592	3,864.26	74.0457	3,864.26	72.0103	3,864.26	71.9209	3,864.26	68.9311	3,864.26	69.8149	3,864.26	69.0139	3,864.26	68.1312	3,864.26	63.2222	3,864.26	65.7902	3,864.26	64.2514	3,864.26	63.9757	3,864.26	68.9811	3,864.26	67.1766	3,864.26	62.6019	3,864.26	51.1507	3,864.26	69.5957
4,000.49	88.4533	4,000.49	88.1365	4,000.49	88.5967	4,000.49	87.4902	4,000.49	87.3247	4,000.49	85.3482	4,000.49	85.6331	4,000.49	83.7605	4,000.49	84.4491	4,000.49	83.0447	4,000.49	83.2379	4,000.49	81.5461	4,000.49	81.8021	4,000.49	79.321	4,000.49	79.6978	4,000.49	77.6372	4,000.49	76.8785	4,000.49	75.9515	4,000.49	74.8958	4,000.49	73.3811	4,000.49	72.0431	4,000.49	72.0058	4,000.49	70.6205	4,000.49	68.8542	4,000.49	69.227	4,000.49	68.27	4,000.49	69.2194	4,000.49	62.8745	4,000.49	66.1216	4,000.49	61.2943	4,000.49	63.0982	4,000.49	66.3906	4,000.49	64.7912	4,000.49	63.9555	4,000.49	56.6016	4,000.49	67.8215
4,141.11	88.7482	4,141.11	88.5537	4,141.11	88.177	4,141.11	87.4167	4,141.11	87.1821	4,141.11	86.6846	4,141.11	85.7418	4,141.11	85.2003	4,141.11	84.5197	4,141.11	84.0998	4,141.11	83.3509	4,141.11	82.8165	4,141.11	81.5742	4,141.11	80.77	4,141.11	79.8816	4,141.11	78.0006	4,141.11	76.4794	4,141.11	75.3035	4,141.11	74.5822	4,141.11	73.1025	4,141.11	72.2678	4,141.11	71.2312	4,141.11	71.1761	4,141.11	68.9578	4,141.11	68.1718	4,141.11	67.1658	4,141.11	67.0957	4,141.11	65.8466	4,141.11	65.3945	4,141.11	63.1668	4,141.11	66.5019	4,141.11	61.3342	4,141.11	65.4313	4,141.11	59.8605	4,141.11	57.5229	4,141.11	66.215
4,287.6	88.7099	4,287.6	88.1726	4,287.6	88.0898	4,287.6	86.9829	4,287.6	87.078	4,287.6	85.9002	4,287.6	85.7134	4,287.6	85.2159	4,287.6	84.641	4,287.6	83.5373	4,287.6	83.2602	4,287.6	81.8545	4,287.6	81.744	4,287.6	80.196	4,287.6	79.565	4,287.6	76.5528	4,287.6	76.7074	4,287.6	74.7709	4,287.6	73.3244	4,287.6	71.5735	4,287.6	71.0461	4,287.6	70.1936	4,287.6	70.2424	4,287.6	66.8231	4,287.6	66.5189	4,287.6	67.5905	4,287.6	67.9227	4,287.6	67.7657	4,287.6	63.7436	4,287.6	65.6628	4,287.6	68.3209	4,287.6	60.9001	4,287.6	65.0942	4,287.6	48.6993	4,287.6	61.5934	4,287.6	65.8299
4,438.48	88.5612	4,438.48	87.7962	4,438.48	88.3655	4,438.48	86.727	4,438.48	86.5493	4,438.48	85.0572	4,438.48	85.3418	4,438.48	83.9385	4,438.48	84.8554	4,438.48	83.4774	4,438.48	84.3644	4,438.48	81.7614	4,438.48	81.7712	4,438.48	79.1639	4,438.48	79.0906	4,438.48	77.4282	4,438.48	76.6698	4,438.48	75.2012	4,438.48	74.5654	4,438.48	73.2652	4,438.48	71.01	4,438.48	71.3577	4,438.48	70.0352	4,438.48	68.7222	4,438.48	69.0017	4,438.48	67.2161	4,438.48	68.7503	4,438.48	65.5999	4,438.48	61.8113	4,438.48	65.9054	4,438.48	66.8062	4,438.48	65.2049	4,438.48	64.1714	4,438.48	58.6273	4,438.48	59.0227	4,438.48	68.49
4,595.21	88.1726	4,595.21	87.9229	4,595.21	86.986	4,595.21	86.2032	4,595.21	86.1394	4,595.21	85.7165	4,595.21	84.6629	4,595.21	85.1621	4,595.21	84.2479	4,595.21	83.9202	4,595.21	82.2677	4,595.21	81.2266	4,595.21	80.0869	4,595.21	79.2647	4,595.21	78.5582	4,595.21	75.9638	4,595.21	75.1926	4,595.21	71.669	4,595.21	73.6001	4,595.21	71.7399	4,595.21	70.8667	4,595.21	68.6206	4,595.21	69.3816	4,595.21	66.1964	4,595.21	67.4157	4,595.21	68.9623	4,595.21	67.5011	4,595.21	62.743	4,595.21	58.8906	4,595.21	64.9756	4,595.21	66.8007	4,595.21	65.214	4,595.21	60.7685	4,595.21	61.0618	4,595.21	58.9914	4,595.21	66.6162
4,756.35	87.4645	4,756.35	86.6105	4,756.35	86.9168	4,756.35	85.6995	4,756.35	84.9969	4,756.35	84.202	4,756.35	84.3095	4,756.35	83.554	4,756.35	83.5034	4,756.35	82.3351	4,756.35	82.4107	4,756.35	79.6311	4,756.35	79.9451	4,756.35	75.8464	4,756.35	76.2254	4,756.35	74.3073	4,756.35	73.6868	4,756.35	70.9139	4,756.35	72.2875	4,756.35	68.8861	4,756.35	69.6598	4,756.35	67.2413	4,756.35	67.8708	4,756.35	66.38	4,756.35	66.445	4,756.35	65.5203	4,756.35	65.9496	4,756.35	61.3548	4,756.35	57.9712	4,756.35	62.2171	4,756.35	63.2891	4,756.35	61.5784	4,756.35	56.0127	4,756.35	58.5644	4,756.35	51.3372	4,756.35	63.9263
4,924.8	84.9482	4,924.8	84.5386	4,924.8	84.0067	4,924.8	82.6578	4,924.8	83.3909	4,924.8	82.461	4,924.8	82.4811	4,924.8	81.7145	4,924.8	82.0136	4,924.8	80.5802	4,924.8	80.0979	4,924.8	77.9112	4,924.8	76.9289	4,924.8	73.7486	4,924.8	73.9224	4,924.8	72.2399	4,924.8	71.3388	4,924.8	70.52	4,924.8	69.8352	4,924.8	67.3491	4,924.8	68.3654	4,924.8	65.2087	4,924.8	67.4679	4,924.8	65.7776	4,924.8	64.266	4,924.8	62.7761	4,924.8	62.2155	4,924.8	57.9022	4,924.8	61.2739	4,924.8	59.9597	4,924.8	59.7223	4,924.8	59.5767	4,924.8	58.7679	4,924.8	54.5745	4,924.8	52.6786	4,924.8	61.5604
5,097.66	86.3495	5,097.66	85.4653	5,097.66	85.7101	5,097.66	84.8858	5,097.66	84.2557	5,097.66	84.892	5,097.66	84.5371	5,097.66	84.5689	5,097.66	83.6872	5,097.66	82.6954	5,097.66	81.7071	5,097.66	80.4677	5,097.66	79.5283	5,097.66	77.3788	5,097.66	76.3621	5,097.66	74.1138	5,097.66	74.1644	5,097.66	71.9122	5,097.66	71.0068	5,097.66	68.2487	5,097.66	69.1427	5,097.66	67.5534	5,097.66	67.4476	5,097.66	65.8706	5,097.66	66.6474	5,097.66	66.8421	5,097.66	64.2634	5,097.66	61.0472	5,097.66	65.3019	5,097.66	63.1211	5,097.66	62.9	5,097.66	58.0275	5,097.66	61.246	5,097.66	60.6839	5,097.66	57.1531	5,097.66	59.2601
5,277.83	88.024	5,277.83	87.8151	5,277.83	87.3972	5,277.83	86.815	5,277.83	86.8455	5,277.83	86.6635	5,277.83	86.8046	5,277.83	86.1465	5,277.83	86.051	5,277.83	84.0286	5,277.83	83.76	5,277.83	81.0449	5,277.83	81.0215	5,277.83	78.7442	5,277.83	78.143	5,277.83	75.8749	5,277.83	75.6312	5,277.83	72.7646	5,277.83	73.0015	5,277.83	70.8889	5,277.83	70.4877	5,277.83	68.7277	5,277.83	68.914	5,277.83	67.7435	5,277.83	68.4799	5,277.83	65.6055	5,277.83	66.8846	5,277.83	64.3529	5,277.83	65.7269	5,277.83	62.5734	5,277.83	65.7824	5,277.83	57.6556	5,277.83	61.5273	5,277.83	56.0695	5,277.83	59.8784	5,277.83	65.327
5,463.87	88.3283	5,463.87	87.6972	5,463.87	87.7405	5,463.87	87.4239	5,463.87	87.351	5,463.87	87.5357	5,463.87	87.5192	5,463.87	86.5552	5,463.87	86.3253	5,463.87	84.1785	5,463.87	84.0044	5,463.87	81.0986	5,463.87	81.6691	5,463.87	78.9315	5,463.87	79.1097	5,463.87	76.2547	5,463.87	75.9947	5,463.87	73.6529	5,463.87	74.1753	5,463.87	72.2891	5,463.87	70.4991	5,463.87	68.7348	5,463.87	68.3098	5,463.87	68.7468	5,463.87	69.177	5,463.87	69.517	5,463.87	67.6042	5,463.87	65.8166	5,463.87	67.376	5,463.87	65.8138	5,463.87	65.2598	5,463.87	64.3841	5,463.87	61.1865	5,463.87	46.086	5,463.87	54.0249	5,463.87	67.5832
5,657.23	88.2151	5,657.23	87.6857	5,657.23	87.9484	5,657.23	87.9187	5,657.23	88.1055	5,657.23	87.9314	5,657.23	88.2838	5,657.23	86.4862	5,657.23	86.9988	5,657.23	84.6482	5,657.23	85.0245	5,657.23	81.4358	5,657.23	82.3686	5,657.23	78.8279	5,657.23	79.6696	5,657.23	77.4833	5,657.23	77.1758	5,657.23	75.3343	5,657.23	74.9971	5,657.23	73.2097	5,657.23	72.6207	5,657.23	70.1663	5,657.23	70.4676	5,657.23	69.3838	5,657.23	68.991	5,657.23	66.3359	5,657.23	68.7415	5,657.23	66.0196	5,657.23	66.2458	5,657.23	65.9189	5,657.23	66.1594	5,657.23	63.6143	5,657.23	65.5172	5,657.23	57.9396	5,657.23	58.7735	5,657.23	68.3595
5,856.45	88.1508	5,856.45	87.9549	5,856.45	87.7915	5,856.45	88.2093	5,856.45	88.4722	5,856.45	88.2213	5,856.45	88.2784	5,856.45	86.692	5,856.45	86.7915	5,856.45	85.0365	5,856.45	84.9344	5,856.45	82.4256	5,856.45	82.8444	5,856.45	79.9595	5,856.45	80.0744	5,856.45	77.6539	5,856.45	77.6782	5,856.45	74.9724	5,856.45	75.1185	5,856.45	72.5145	5,856.45	71.8077	5,856.45	69.3182	5,856.45	70.4859	5,856.45	69.7075	5,856.45	69.9661	5,856.45	66.1404	5,856.45	66.8133	5,856.45	67.3962	5,856.45	66.8882	5,856.45	66.8269	5,856.45	64.73	5,856.45	63.7062	5,856.45	66.1597	5,856.45	62.7049	5,856.45	52.094	5,856.45	67.5726
6,062.99	87.1351	6,062.99	87.5039	6,062.99	87.5127	6,062.99	88.1626	6,062.99	88.5175	6,062.99	87.7975	6,062.99	88.0647	6,062.99	86.4855	6,062.99	86.6592	6,062.99	84.4347	6,062.99	85.1287	6,062.99	82.7011	6,062.99	83.2507	6,062.99	80.3601	6,062.99	80.4402	6,062.99	76.7469	6,062.99	77.9488	6,062.99	74.4494	6,062.99	75.1901	6,062.99	71.0595	6,062.99	72.2215	6,062.99	69.126	6,062.99	69.4783	6,062.99	67.3768	6,062.99	69.1457	6,062.99	64.981	6,062.99	64.868	6,062.99	68.6982	6,062.99	67.9709	6,062.99	66.1544	6,062.99	63.7323	6,062.99	60.3121	6,062.99	63.5268	6,062.99	62.3417	6,062.99	61.252	6,062.99	64.4944
6,276.86	87.0732	6,276.86	87.5765	6,276.86	88.3759	6,276.86	88.492	6,276.86	88.8339	6,276.86	87.7474	6,276.86	88.1945	6,276.86	86.1852	6,276.86	86.7679	6,276.86	84.584	6,276.86	85.2781	6,276.86	82.3206	6,276.86	83.278	6,276.86	79.5692	6,276.86	80.25	6,276.86	75.925	6,276.86	77.6446	6,276.86	73.5927	6,276.86	74.0337	6,276.86	70.4	6,276.86	72.4404	6,276.86	69.7456	6,276.86	69.5057	6,276.86	64.8531	6,276.86	68.6633	6,276.86	65.1527	6,276.86	66.744	6,276.86	67.6365	6,276.86	66.5528	6,276.86	63.5244	6,276.86	64.7338	6,276.86	61.1744	6,276.86	64.4339	6,276.86	60.1191	6,276.86	62.6199	6,276.86	57.6626
6,498.05	87.6168	6,498.05	88.0543	6,498.05	88.8459	6,498.05	88.8383	6,498.05	89.4216	6,498.05	87.5764	6,498.05	88.759	6,498.05	85.74	6,498.05	87.2702	6,498.05	84.5083	6,498.05	85.9415	6,498.05	82.1905	6,498.05	83.7113	6,498.05	79.1666	6,498.05	80.5377	6,498.05	75.0687	6,498.05	77.589	6,498.05	71.9898	6,498.05	74.3396	6,498.05	68.6647	6,498.05	71.1902	6,498.05	67.5869	6,498.05	68.8141	6,498.05	65.7739	6,498.05	68.4652	6,498.05	61.3646	6,498.05	66.6206	6,498.05	63.8159	6,498.05	66.894	6,498.05	62.7247	6,498.05	65.732	6,498.05	61.8861	6,498.05	65.289	6,498.05	50.3293	6,498.05	59.9881	6,498.05	63.8857
6,726.56	87.3288	6,726.56	88.5209	6,726.56	88.4164	6,726.56	89.0216	6,726.56	89.0221	6,726.56	87.6456	6,726.56	87.8742	6,726.56	86.2157	6,726.56	86.4821	6,726.56	85.1502	6,726.56	85.0391	6,726.56	82.5414	6,726.56	82.5735	6,726.56	79.4709	6,726.56	79.0405	6,726.56	75.5963	6,726.56	76.1546	6,726.56	72.5922	6,726.56	73.3093	6,726.56	69.6332	6,726.56	69.4867	6,726.56	67.5593	6,726.56	67.9399	6,726.56	65.9886	6,726.56	63.5866	6,726.56	66.6619	6,726.56	65.1972	6,726.56	63.4681	6,726.56	66.418	6,726.56	64.3104	6,726.56	62.5341	6,726.56	59.9303	6,726.56	64.985	6,726.56	60.4255	6,726.56	60.4593	6,726.56	64.6184
6,963.87	87.3109	6,963.87	88.5843	6,963.87	88.2463	6,963.87	88.9708	6,963.87	88.5903	6,963.87	87.451	6,963.87	86.9688	6,963.87	86.1476	6,963.87	85.7473	6,963.87	84.981	6,963.87	84.2931	6,963.87	82.2956	6,963.87	81.4178	6,963.87	79.0136	6,963.87	77.348	6,963.87	76.1239	6,963.87	75.1079	6,963.87	73.0714	6,963.87	73.3523	6,963.87	70.2148	6,963.87	69.5422	6,963.87	69.9927	6,963.87	67.9903	6,963.87	64.766	6,963.87	65.3583	6,963.87	68.1437	6,963.87	65.9617	6,963.87	64.9485	6,963.87	65.1868	6,963.87	63.9001	6,963.87	61.9627	6,963.87	61.9339	6,963.87	63.2771	6,963.87	61.0245	6,963.87	60.6995	6,963.87	64.2059
7,209.96	87.1672	7,209.96	88.3397	7,209.96	88.6329	7,209.96	88.861	7,209.96	88.1458	7,209.96	87.0326	7,209.96	86.4193	7,209.96	85.9252	7,209.96	85.2122	7,209.96	84.8165	7,209.96	83.4903	7,209.96	81.8713	7,209.96	80.8412	7,209.96	78.5845	7,209.96	76.9609	7,209.96	75.6663	7,209.96	74.5099	7,209.96	73.0342	7,209.96	72.0053	7,209.96	70.5553	7,209.96	70.3574	7,209.96	69.6212	7,209.96	68.5532	7,209.96	65.4287	7,209.96	64.6046	7,209.96	66.7764	7,209.96	64.1683	7,209.96	63.3405	7,209.96	62.9532	7,209.96	62.0603	7,209.96	61.5768	7,209.96	63.0854	7,209.96	63.1318	7,209.96	59.2738	7,209.96	62.5524	7,209.96	62.9874
7,464.84	87.5387	7,464.84	88.374	7,464.84	88.7685	7,464.84	88.5414	7,464.84	87.8982	7,464.84	86.389	7,464.84	86.2235	7,464.84	85.4453	7,464.84	85.0758	7,464.84	84.2041	7,464.84	83.3322	7,464.84	81.5704	7,464.84	80.741	7,464.84	78.7325	7,464.84	77.4286	7,464.84	75.8439	7,464.84	74.9049	7,464.84	72.9544	7,464.84	71.061	7,464.84	69.5455	7,464.84	69.5456	7,464.84	66.5124	7,464.84	67.3921	7,464.84	65.8608	7,464.84	64.2478	7,464.84	64.3915	7,464.84	65.0466	7,464.84	64.8885	7,464.84	62.9083	7,464.84	60.5083	7,464.84	60.9143	7,464.84	62.2245	7,464.84	64.2872	7,464.84	59.3887	7,464.84	63.0029	7,464.84	59.5629
7,727.05	87.7983	7,727.05	88.5626	7,727.05	88.206	7,727.05	88.2282	7,727.05	87.5563	7,727.05	86.312	7,727.05	86.2797	7,727.05	85.3851	7,727.05	85.0008	7,727.05	83.4141	7,727.05	83.0625	7,727.05	81.0403	7,727.05	80.6632	7,727.05	78.4896	7,727.05	77.3519	7,727.05	75.4266	7,727.05	74.7283	7,727.05	71.8737	7,727.05	70.3803	7,727.05	68.3068	7,727.05	68.1594	7,727.05	65.8895	7,727.05	66.2329	7,727.05	63.7926	7,727.05	62.4438	7,727.05	63.3366	7,727.05	64.7483	7,727.05	63.5238	7,727.05	63.1522	7,727.05	58.3017	7,727.05	60.5398	7,727.05	62.8937	7,727.05	61.7733	7,727.05	58.8432	7,727.05	61.8129	7,727.05	57.7734
7,999.51	88.5452	7,999.51	88.9166	7,999.51	88.5822	7,999.51	88.1444	7,999.51	87.6886	7,999.51	86.646	7,999.51	86.6542	7,999.51	85.4267	7,999.51	84.5238	7,999.51	83.3882	7,999.51	82.5669	7,999.51	81.0521	7,999.51	80.6263	7,999.51	78.0862	7,999.51	76.7665	7,999.51	75.5712	7,999.51	74.574	7,999.51	71.9222	7,999.51	71.1014	7,999.51	68.2701	7,999.51	69.0123	7,999.51	66.9879	7,999.51	67.4354	7,999.51	65.8476	7,999.51	63.4596	7,999.51	64.6925	7,999.51	65.1201	7,999.51	60.5762	7,999.51	60.4145	7,999.51	56.6673	7,999.51	58.3993	7,999.51	62.2668	7,999.51	58.5921	7,999.51	56.8445	7,999.51	61.5331	7,999.51	60.0586
8,282.23	88.4913	8,282.23	88.1383	8,282.23	88.5008	8,282.23	87.6491	8,282.23	87.2246	8,282.23	86.3172	8,282.23	86.0914	8,282.23	84.7488	8,282.23	83.7586	8,282.23	83.0251	8,282.23	82.5613	8,282.23	80.3418	8,282.23	80.1565	8,282.23	76.4592	8,282.23	75.9077	8,282.23	73.6982	8,282.23	74.0422	8,282.23	71.9361	8,282.23	70.4246	8,282.23	69.0147	8,282.23	68.1292	8,282.23	66.2856	8,282.23	65.2054	8,282.23	65.4649	8,282.23	63.7452	8,282.23	65.1687	8,282.23	65.7221	8,282.23	60.8974	8,282.23	59.2946	8,282.23	59.7041	8,282.23	59.1987	8,282.23	62.6204	8,282.23	60.6142	8,282.23	57.3885	8,282.23	60.3353	8,282.23	60.8307
8,573.73	87.929	8,573.73	87.3089	8,573.73	87.3901	8,573.73	86.8449	8,573.73	86.5271	8,573.73	85.5607	8,573.73	85.8829	8,573.73	83.9617	8,573.73	84.0129	8,573.73	82.7253	8,573.73	83.5203	8,573.73	80.4741	8,573.73	80.802	8,573.73	77.0131	8,573.73	77.047	8,573.73	73.9045	8,573.73	74.6773	8,573.73	71.0042	8,573.73	71.2322	8,573.73	68.0266	8,573.73	69.0168	8,573.73	66.2901	8,573.73	66.7936	8,573.73	65.5979	8,573.73	64.52	8,573.73	62.8722	8,573.73	65.0923	8,573.73	59.1606	8,573.73	60.0572	8,573.73	60.6795	8,573.73	61.6102	8,573.73	62.8233	8,573.73	61.8692	8,573.73	54.0156	8,573.73	59.0137	8,573.73	62.3438
8,876.95	88.2874	8,876.95	87.0774	8,876.95	86.5746	8,876.95	86.544	8,876.95	86.44	8,876.95	85.958	8,876.95	86.0668	8,876.95	84.8195	8,876.95	84.1648	8,876.95	83.7256	8,876.95	83.5554	8,876.95	81.3366	8,876.95	80.6674	8,876.95	78.3366	8,876.95	77.5242	8,876.95	75.4392	8,876.95	74.9234	8,876.95	71.7978	8,876.95	70.8516	8,876.95	68.5032	8,876.95	69.0689	8,876.95	66.8695	8,876.95	66.3523	8,876.95	65.657	8,876.95	64.5367	8,876.95	61.97	8,876.95	66.7684	8,876.95	59.194	8,876.95	59.3803	8,876.95	61.3093	8,876.95	61.5823	8,876.95	62.7471	8,876.95	61.1473	8,876.95	54.7816	8,876.95	59.6028	8,876.95	61.1863
9,188.96	89.515	9,188.96	87.8441	9,188.96	87.6848	9,188.96	87.6613	9,188.96	86.8667	9,188.96	87.0909	9,188.96	85.6827	9,188.96	85.7597	9,188.96	83.9204	9,188.96	84.25	9,188.96	82.4906	9,188.96	82.1061	9,188.96	79.8166	9,188.96	78.7644	9,188.96	76.8758	9,188.96	75.9839	9,188.96	74.232	9,188.96	72.9887	9,188.96	70.9932	9,188.96	69.4163	9,188.96	68.3854	9,188.96	67.9494	9,188.96	65.1405	9,188.96	65.7011	9,188.96	63.8535	9,188.96	60.0224	9,188.96	65.3203	9,188.96	58.8605	9,188.96	59.7019	9,188.96	62.8439	9,188.96	60.8298	9,188.96	64.4183	9,188.96	61.1287	9,188.96	55.2237	9,188.96	57.6004	9,188.96	59.2373
9,514.16	89.8803	9,514.16	88.355	9,514.16	88.0998	9,514.16	88.1238	9,514.16	87.1594	9,514.16	87.0803	9,514.16	85.6882	9,514.16	85.5311	9,514.16	84.4027	9,514.16	83.9757	9,514.16	82.3911	9,514.16	82.26	9,514.16	80.7397	9,514.16	79.064	9,514.16	77.0496	9,514.16	76.0869	9,514.16	74.1254	9,514.16	72.3157	9,514.16	69.7693	9,514.16	68.5265	9,514.16	67.3979	9,514.16	68.5132	9,514.16	64.8104	9,514.16	63.6807	9,514.16	62.5452	9,514.16	63.2825	9,514.16	62.8646	9,514.16	56.4094	9,514.16	57.3334	9,514.16	59.8933	9,514.16	59.0309	9,514.16	63.7764	9,514.16	61.6328	9,514.16	55.6888	9,514.16	55.8764	9,514.16	61.1705
9,849.61	90.4081	9,849.61	89.4732	9,849.61	88.9843	9,849.61	88.7291	9,849.61	88.2932	9,849.61	87.6508	9,849.61	86.9459	9,849.61	85.7718	9,849.61	85.0797	9,849.61	83.3578	9,849.61	82.9493	9,849.61	81.8883	9,849.61	81.2077	9,849.61	78.3341	9,849.61	75.9809	9,849.61	74.5949	9,849.61	73.5012	9,849.61	70.3256	9,849.61	69.4263	9,849.61	67.7443	9,849.61	67.7167	9,849.61	67.6642	9,849.61	64.5927	9,849.61	61.7306	9,849.61	63.5369	9,849.61	61.3348	9,849.61	62.555	9,849.61	56.9024	9,849.61	56.4301	9,849.61	59.7983	9,849.61	59.0919	9,849.61	61.214	9,849.61	61.0207	9,849.61	52.1596	9,849.61	58.9141	9,849.61	61.1522
10,196.8	90.5778	10,196.8	89.4156	10,196.8	89.3614	10,196.8	89.0068	10,196.8	88.5576	10,196.8	87.9313	10,196.8	87.4015	10,196.8	85.9891	10,196.8	85.5766	10,196.8	84.0176	10,196.8	84.2347	10,196.8	82.6022	10,196.8	82.3724	10,196.8	77.3123	10,196.8	77.3276	10,196.8	73.9138	10,196.8	74.606	10,196.8	70.4089	10,196.8	70.8799	10,196.8	67.4477	10,196.8	68.7748	10,196.8	65.4958	10,196.8	65.2517	10,196.8	62.2227	10,196.8	65.3997	10,196.8	59.3064	10,196.8	63.4982	10,196.8	55.2408	10,196.8	57.9392	10,196.8	60.6091	10,196.8	59.6169	10,196.8	62.8786	10,196.8	59.2325	10,196.8	46.557	10,196.8	59.2299	10,196.8	62.163
10,555.7	90.1094	10,555.7	89.388	10,555.7	89.5989	10,555.7	89.2402	10,555.7	88.7723	10,555.7	88.7003	10,555.7	88.4416	10,555.7	86.997	10,555.7	86.8809	10,555.7	85.601	10,555.7	85.7066	10,555.7	82.8922	10,555.7	83.0377	10,555.7	77.8984	10,555.7	77.9751	10,555.7	74.7018	10,555.7	75.9234	10,555.7	70.668	10,555.7	71.5203	10,555.7	68.274	10,555.7	69.2646	10,555.7	66.648	10,555.7	66.5221	10,555.7	61.5164	10,555.7	64.332	10,555.7	58.5364	10,555.7	63.7407	10,555.7	54.9625	10,555.7	60.1081	10,555.7	62.675	10,555.7	59.6201	10,555.7	62.5334	10,555.7	58.867	10,555.7	50.3251	10,555.7	55.6866	10,555.7	63.8827
10,927.7	91.7317	10,927.7	91.221	10,927.7	91.6141	10,927.7	90.5163	10,927.7	90.4731	10,927.7	88.8355	10,927.7	89.0406	10,927.7	86.159	10,927.7	86.4759	10,927.7	83.8907	10,927.7	84.3002	10,927.7	79.6369	10,927.7	80.524	10,927.7	74.6086	10,927.7	75.2568	10,927.7	71.6648	10,927.7	72.6327	10,927.7	67.9879	10,927.7	68.5568	10,927.7	65.8759	10,927.7	66.9362	10,927.7	62.7722	10,927.7	64.1359	10,927.7	57.1576	10,927.7	60.8289	10,927.7	57.6518	10,927.7	60.3586	10,927.7	46.0608	10,927.7	58.1178	10,927.7	59.6144	10,927.7	57.3257	10,927.7	60.3427	10,927.7	52.9047	10,927.7	50.6075	10,927.7	49.5211	10,927.7	60.1992
11,313	92.7316	11,313	92.0322	11,313	92.4959	11,313	91.1884	11,313	91.0113	11,313	89.5552	11,313	88.85	11,313	87.0736	11,313	85.7595	11,313	84.9516	11,313	82.4055	11,313	81.157	11,313	77.3797	11,313	77.4252	11,313	73.6802	11,313	74.1797	11,313	70.0935	11,313	70.7603	11,313	66.0316	11,313	68.2856	11,313	63.1467	11,313	65.3668	11,313	61.0777	11,313	61.4195	11,313	58.4279	11,313	60.9901	11,313	56.1174	11,313	54.7863	11,313	51.7641	11,313	60.8836	11,313	53.5955	11,313	61.5429	11,313	51.4415	11,313	44.7724	11,313	49.7518	11,313	61.3955
11,712.9	91.9523	11,712.9	91.1641	11,712.9	91.7956	11,712.9	90.194	11,712.9	90.1904	11,712.9	88.3305	11,712.9	87.9274	11,712.9	86.0082	11,712.9	84.648	11,712.9	83.7496	11,712.9	80.8751	11,712.9	79.2003	11,712.9	78.5495	11,712.9	75.9829	11,712.9	74.9622	11,712.9	72.8758	11,712.9	72.3293	11,712.9	69.3755	11,712.9	68.8405	11,712.9	66.6339	11,712.9	67.1524	11,712.9	64.1226	11,712.9	63.4382	11,712.9	58.0186	11,712.9	61.3771	11,712.9	57.1893	11,712.9	58.0675	11,712.9	50.3804	11,712.9	54.4802	11,712.9	59.9714	11,712.9	53.8922	11,712.9	57.525	11,712.9	55.6661	11,712.9	44.1321	11,712.9	52.0491	11,712.9	60.0936
12,126	89.2071	12,126	88.3956	12,126	89.822	12,126	87.2688	12,126	88.5113	12,126	83.8544	12,126	87.0525	12,126	81.5295	12,126	84.3168	12,126	77.1634	12,126	81.9769	12,126	72.0347	12,126	79.8562	12,126	67.5686	12,126	76.7507	12,126	64.4957	12,126	73.8214	12,126	60.7407	12,126	70.2129	12,126	58.2494	12,126	68.5187	12,126	54.219	12,126	65.2174	12,126	48.6139	12,126	61.6547	12,126	49.679	12,126	60.3758	12,126	43.3512	12,126	55.2639	12,126	56.197	12,126	50.6281	12,126	53.1336	12,126	52.5415	12,126	47.5182	12,126	49.5867	12,126	57.5669
12,553.7	86.796	12,553.7	85.7126	12,553.7	87.9509	12,553.7	83.3194	12,553.7	86.7718	12,553.7	78.9474	12,553.7	85.3178	12,553.7	73.6954	12,553.7	83.2801	12,553.7	59.1792	12,553.7	80.5131	12,553.7	61.9805	12,553.7	78.318	12,553.7	63.0541	12,553.7	75.1222	12,553.7	58.0995	12,553.7	71.763	12,553.7	55.9777	12,553.7	68.7455	12,553.7	47.1576	12,553.7	66.1546	12,553.7	43.2491	12,553.7	63.0279	12,553.7	51.9802	12,553.7	60.5666	12,553.7	43.1655	12,553.7	59.3049	12,553.7	41.0703	12,553.7	54.546	12,553.7	48.0352	12,553.7	41.4869	12,553.7	52.7331	12,553.7	47.6575	12,553.7	44.649	12,553.7	45.8318	12,553.7	52.5155
12,996.1	83.6009	12,996.1	83.6538	12,996.1	84.8773	12,996.1	81.5767	12,996.1	84.1037	12,996.1	80.9647	12,996.1	82.8271	12,996.1	78.3857	12,996.1	80.7232	12,996.1	76.775	12,996.1	77.6364	12,996.1	75.3417	12,996.1	75.9015	12,996.1	72.839	12,996.1	73.1347	12,996.1	67.6913	12,996.1	70.3004	12,996.1	65.0124	12,996.1	66.2183	12,996.1	62.0101	12,996.1	63.4493	12,996.1	59.23	12,996.1	59.3963	12,996.1	56.4642	12,996.1	56.571	12,996.1	53.3058	12,996.1	57.3783	12,996.1	48.0502	12,996.1	51.065	12,996.1	51.6453	12,996.1	42.8181	12,996.1	53.2722	12,996.1	45.863	12,996.1	23.7575	12,996.1	45.9105	12,996.1	40.0627
13,454.6	83.4519	13,454.6	83.7043	13,454.6	83.7932	13,454.6	83.089	13,454.6	82.5785	13,454.6	81.3851	13,454.6	81.0913	13,454.6	78.6165	13,454.6	78.5733	13,454.6	75.7165	13,454.6	75.435	13,454.6	72.9772	13,454.6	72.3581	13,454.6	68.5286	13,454.6	70.0135	13,454.6	65.3608	13,454.6	65.0631	13,454.6	61.7694	13,454.6	59.4188	13,454.6	60.2562	13,454.6	57.4122	13,454.6	58.2551	13,454.6	53.0708	13,454.6	51.6695	13,454.6	48.3412	13,454.6	48.2369	13,454.6	51.9539	13,454.6	43.9939	13,454.6	43.2384	13,454.6	46.6604	13,454.6	43.4111	13,454.6	47.1311	13,454.6	48.5037	13,454.6	41.1423	13,454.6	52.4621	13,454.6	47.7226
13,929.2	85.1066	13,929.2	85.7324	13,929.2	85.1431	13,929.2	85.7729	13,929.2	82.9808	13,929.2	84.6725	13,929.2	81.5483	13,929.2	82.1281	13,929.2	76.9644	13,929.2	78.7085	13,929.2	72.8612	13,929.2	76.3029	13,929.2	68.1191	13,929.2	71.3401	13,929.2	54.62	13,929.2	68.4308	13,929.2	61.3499	13,929.2	64.794	13,929.2	60.5794	13,929.2	63.2849	13,929.2	57.504	13,929.2	60.0947	13,929.2	55.2918	13,929.2	54.0445	13,929.2	51.3955	13,929.2	50.1661	13,929.2	48.7591	13,929.2	39.716	13,929.2	45.8176	13,929.2	51.3232	13,929.2	40.7347	13,929.2	23.8753	13,929.2	46.4641	13,929.2	49.3798	13,929.2	50.6278	13,929.2	53.4173
14,419.9	88.2607	14,419.9	88.2848	14,419.9	88.2311	14,419.9	87.7942	14,419.9	87.243	14,419.9	86.7704	14,419.9	85.548	14,419.9	83.5955	14,419.9	80.6618	14,419.9	79.1849	14,419.9	76.5834	14,419.9	76.5282	14,419.9	70.0875	14,419.9	68.6884	14,419.9	68.4738	14,419.9	70.9171	14,419.9	70.3898	14,419.9	67.8929	14,419.9	67.3981	14,419.9	66.1443	14,419.9	64.4316	14,419.9	60.9434	14,419.9	61.2871	14,419.9	54.8241	14,419.9	56.7534	14,419.9	48.5319	14,419.9	55.764	14,419.9	18.6494	14,419.9	48.8612	14,419.9	49.6339	14,419.9	46.2253	14,419.9	45.667	14,419.9	47.3283	14,419.9	49.3613	14,419.9	53.8875	14,419.9	57.9122
14,928.2	89.5565	14,928.2	88.3725	14,928.2	88.6778	14,928.2	87.1319	14,928.2	87.5873	14,928.2	84.9919	14,928.2	85.1317	14,928.2	81.0528	14,928.2	79.9522	14,928.2	76.749	14,928.2	75.906	14,928.2	73.6278	14,928.2	69.0762	14,928.2	74.8253	14,928.2	73.1602	14,928.2	73.6545	14,928.2	72.1862	14,928.2	69.4135	14,928.2	68.1237	14,928.2	66.4018	14,928.2	65.2016	14,928.2	61.1019	14,928.2	61.3382	14,928.2	56.715	14,928.2	55.9794	14,928.2	47.0877	14,928.2	56.5033	14,928.2	42.7381	14,928.2	44.7852	14,928.2	43.9549	14,928.2	47.6173	14,928.2	51.8483	14,928.2	40.8671	14,928.2	49.1994	14,928.2	54.4018	14,928.2	57.0072
15,455.6	79.7448	15,455.6	79.2554	15,455.6	77.7002	15,455.6	79.341	15,455.6	77.3387	15,455.6	78.0887	15,455.6	74.9504	15,455.6	76.4354	15,455.6	73.2128	15,455.6	72.7032	15,455.6	69.5163	15,455.6	68.9045	15,455.6	68.2972	15,455.6	68.9253	15,455.6	67.1501	15,455.6	65.2231	15,455.6	61.0555	15,455.6	60.6462	15,455.6	55.6112	15,455.6	56.8418	15,455.6	51.693	15,455.6	50.7353	15,455.6	48.4696	15,455.6	49.0996	15,455.6	45.9757	15,455.6	44.4165	15,455.6	45.5746	15,455.6	40.7257	15,455.6	31.7273	15,455.6	39.852	15,455.6	37.4194	15,455.6	47.1741	15,455.6	28.4571	15,455.6	27.1528	15,455.6	40.4245	15,455.6	42.6521
16,000.5	84.3059	16,000.5	83.1544	16,000.5	83.3867	16,000.5	82.8835	16,000.5	82.5678	16,000.5	80.8365	16,000.5	80.7117	16,000.5	78.0053	16,000.5	77.8185	16,000.5	72.3956	16,000.5	72.2929	16,000.5	68.4412	16,000.5	68.8235	16,000.5	65.7624	16,000.5	63.5909	16,000.5	57.6954	16,000.5	55.9075	16,000.5	52.894	16,000.5	52.15	16,000.5	50.5509	16,000.5	52.0288	16,000.5	43.6603	16,000.5	49.1681	16,000.5	44.401	16,000.5	44.783	16,000.5	35.918	16,000.5	44.2177	16,000.5	37.2765	16,000.5	39.2946	16,000.5	40.9121	16,000.5	36.3425	16,000.5	45.5989	16,000.5	31.9907	16,000.5	33.3287	16,000.5	47.7281	16,000.5	47.9277
16,564.5	88.7367	16,564.5	87.5568	16,564.5	88.3175	16,564.5	86.9524	16,564.5	87.3337	16,564.5	84.0507	16,564.5	84.909	16,564.5	81.353	16,564.5	81.9728	16,564.5	74.0834	16,564.5	75.3906	16,564.5	73.5906	16,564.5	73.7553	16,564.5	63.9996	16,564.5	62.6952	16,564.5	63.8771	16,564.5	64.778	16,564.5	63.1332	16,564.5	63.3558	16,564.5	59.4956	16,564.5	60.7049	16,564.5	54.7678	16,564.5	58.2443	16,564.5	52.0545	16,564.5	51.6254	16,564.5	48.0087	16,564.5	51.3321	16,564.5	45.6229	16,564.5	33.6779	16,564.5	50.0551	16,564.5	48.7169	16,564.5	51.5621	16,564.5	43.0979	16,564.5	34.2028	16,564.5	49.9789	16,564.5	48.9118
17,148.9	82.2204	17,148.9	82.4269	17,148.9	82.2204	17,148.9	80.8648	17,148.9	80.1934	17,148.9	77.8784	17,148.9	77.734	17,148.9	74.8059	17,148.9	75.2774	17,148.9	70.917	17,148.9	69.9065	17,148.9	66.4517	17,148.9	66.8805	17,148.9	59.0015	17,148.9	56.0296	17,148.9	60.954	17,148.9	60.708	17,148.9	57.6518	17,148.9	57.1737	17,148.9	55.3576	17,148.9	55.6844	17,148.9	48.0767	17,148.9	51.8368	17,148.9	44.7542	17,148.9	41.9171	17,148.9	40.1439	17,148.9	41.4395	17,148.9	38.5998	17,148.9	37.701	17,148.9	44.4113	17,148.9	44.2477	17,148.9	47.1108	17,148.9	29.6118	17,148.9	34.6388	17,148.9	39.7974	17,148.9	44.8031
17,752.4	83.2323	17,752.4	83.2637	17,752.4	82.769	17,752.4	82.1536	17,752.4	79.9142	17,752.4	78.7889	17,752.4	75.3164	17,752.4	73.9848	17,752.4	67.1704	17,752.4	67.3074	17,752.4	58.1895	17,752.4	57.4321	17,752.4	45.9333	17,752.4	59.5844	17,752.4	58.9457	17,752.4	55.2417	17,752.4	48.785	17,752.4	51.9609	17,752.4	47.2868	17,752.4	47.3013	17,752.4	42.5437	17,752.4	41.0944	17,752.4	21.6977	17,752.4	42.2711	17,752.4	36.7247	17,752.4	34.9318	17,752.4	34.79	17,752.4	30.6403	17,752.4	19.1895	17,752.4	36.5486	17,752.4	28.8614	17,752.4	40.2553	17,752.4	30.5771	17,752.4	36.4813	17,752.4	34.3385	17,752.4	40.7058
18,379.4	86.2031	18,379.4	85.6488	18,379.4	85.5749	18,379.4	84.39	18,379.4	82.3196	18,379.4	80.5595	18,379.4	77.3434	18,379.4	75.029	18,379.4	68.7865	18,379.4	66.9902	18,379.4	62.62	18,379.4	54.8405	18,379.4	59.6372	18,379.4	60.4689	18,379.4	57.7048	18,379.4	52.4359	18,379.4	44.7689	18,379.4	51.3513	18,379.4	47.2899	18,379.4	44.9571	18,379.4	33.0476	18,379.4	36.6579	18,379.4	42.3156	18,379.4	40.1687	18,379.4	42.0209	18,379.4	25.2877	18,379.4	38.8972	18,379.4	24.6903	18,379.4	31.2441	18,379.4	36.0944	18,379.4	40.1781	18,379.4	35.6895	18,379.4	39.5046	18,379.4	38.7477	18,379.4	37.1961	18,379.4	42.8187
19,026.9	88.9098	19,026.9	87.9618	19,026.9	88.5375	19,026.9	86.1734	19,026.9	85.4368	19,026.9	81.9029	19,026.9	80.7258	19,026.9	74.2456	19,026.9	73.8329	19,026.9	67.2947	19,026.9	66.7053	19,026.9	63.9783	19,026.9	64.718	19,026.9	61.4206	19,026.9	55.2543	19,026.9	54.3751	19,026.9	55.6372	19,026.9	53.3927	19,026.9	50.9095	19,026.9	47.4481	19,026.9	47.7501	19,026.9	41.3176	19,026.9	48.0898	19,026.9	43.4811	19,026.9	44.9176	19,026.9	30.3821	19,026.9	42.5019	19,026.9	30.6196	19,026.9	37.0846	19,026.9	35.4896	19,026.9	43.0738	19,026.9	37.3154	19,026.9	41.8704	19,026.9	39.904	19,026.9	44.38	19,026.9	40.007
19,697.8	88.6309	19,697.8	87.8591	19,697.8	88.1103	19,697.8	85.7978	19,697.8	84.859	19,697.8	81.9329	19,697.8	79.4667	19,697.8	74.8699	19,697.8	72.8735	19,697.8	69.7925	19,697.8	64.9846	19,697.8	67.2848	19,697.8	60.6327	19,697.8	62.4148	19,697.8	57.1156	19,697.8	57.7616	19,697.8	52.0449	19,697.8	56.3617	19,697.8	50.3904	19,697.8	50.175	19,697.8	47.6477	19,697.8	38.7395	19,697.8	45.7648	19,697.8	41.2413	19,697.8	41.2635	19,697.8	19.5328	19,697.8	40.3298	19,697.8	34.8435	19,697.8	40.914	19,697.8	39.857	19,697.8	44.8027	19,697.8	31.97	19,697.8	41.127	19,697.8	39.0793	19,697.8	48.6633	19,697.8	38.3242
19,999.5	84.6489	19,999.5	83.954	19,999.5	84.0016	19,999.5	82.0085	19,999.5	80.8424	19,999.5	78.6997	19,999.5	75.5039	19,999.5	72.9864	19,999.5	68.857	19,999.5	67.8346	19,999.5	61.2351	19,999.5	65.0473	19,999.5	51.4361	19,999.5	59.8727	19,999.5	57.7581	19,999.5	55.2619	19,999.5	44.6361	19,999.5	54.8466	19,999.5	49.6238	19,999.5	47.4624	19,999.5	44.7472	19,999.5	42.1572	19,999.5	43.1114	19,999.5	30.2354	19,999.5	48.4544	19,999.5	50.4806	19,999.5	46.5952	19,999.5	43.9525	19,999.5	41.4183	19,999.5	48.4062	19,999.5	38.2495	19,999.5	48.8791	19,999.5	38.3097	19,999.5	34.851	19,999.5	46.44	19,999.5	43.3965
