"SPL Vertical"																																																																							
"On-Axis"		"10°"		"-10°"		"20°"		"-20°"		"30°"		"-30°"		"40°"		"-40°"		"50°"		"-50°"		"60°"		"-60°"		"70°"		"-70°"		"80°"		"-80°"		"90°"		"-90°"		"100°"		"-100°"		"110°"		"-110°"		"120°"		"-120°"		"130°"		"-130°"		"140°"		"-140°"		"150°"		"-150°"		"160°"		"-160°"		"170°"		"-170°"		"180°"	
"Frequency [Hz]"	"Sound Pessure Level [dB]  / [2.83V 1m] "	"Frequency [Hz]"	"Sound Pessure Level [dB]  / [2.83V 1m] "	"Frequency [Hz]"	"Sound Pessure Level [dB]  / [2.83V 1m] "	"Frequency [Hz]"	"Sound Pessure Level [dB]  / [2.83V 1m] "	"Frequency [Hz]"	"Sound Pessure Level [dB]  / [2.83V 1m] "	"Frequency [Hz]"	"Sound Pessure Level [dB]  / [2.83V 1m] "	"Frequency [Hz]"	"Sound Pessure Level [dB]  / [2.83V 1m] "	"Frequency [Hz]"	"Sound Pessure Level [dB]  / [2.83V 1m] "	"Frequency [Hz]"	"Sound Pessure Level [dB]  / [2.83V 1m] "	"Frequency [Hz]"	"Sound Pessure Level [dB]  / [2.83V 1m] "	"Frequency [Hz]"	"Sound Pessure Level [dB]  / [2.83V 1m] "	"Frequency [Hz]"	"Sound Pessure Level [dB]  / [2.83V 1m] "	"Frequency [Hz]"	"Sound Pessure Level [dB]  / [2.83V 1m] "	"Frequency [Hz]"	"Sound Pessure Level [dB]  / [2.83V 1m] "	"Frequency [Hz]"	"Sound Pessure Level [dB]  / [2.83V 1m] "	"Frequency [Hz]"	"Sound Pessure Level [dB]  / [2.83V 1m] "	"Frequency [Hz]"	"Sound Pessure Level [dB]  / [2.83V 1m] "	"Frequency [Hz]"	"Sound Pessure Level [dB]  / [2.83V 1m] "	"Frequency [Hz]"	"Sound Pessure Level [dB]  / [2.83V 1m] "	"Frequency [Hz]"	"Sound Pessure Level [dB]  / [2.83V 1m] "	"Frequency [Hz]"	"Sound Pessure Level [dB]  / [2.83V 1m] "	"Frequency [Hz]"	"Sound Pessure Level [dB]  / [2.83V 1m] "	"Frequency [Hz]"	"Sound Pessure Level [dB]  / [2.83V 1m] "	"Frequency [Hz]"	"Sound Pessure Level [dB]  / [2.83V 1m] "	"Frequency [Hz]"	"Sound Pessure Level [dB]  / [2.83V 1m] "	"Frequency [Hz]"	"Sound Pessure Level [dB]  / [2.83V 1m] "	"Frequency [Hz]"	"Sound Pessure Level [dB]  / [2.83V 1m] "	"Frequency [Hz]"	"Sound Pessure Level [dB]  / [2.83V 1m] "	"Frequency [Hz]"	"Sound Pessure Level [dB]  / [2.83V 1m] "	"Frequency [Hz]"	"Sound Pessure Level [dB]  / [2.83V 1m] "	"Frequency [Hz]"	"Sound Pessure Level [dB]  / [2.83V 1m] "	"Frequency [Hz]"	"Sound Pessure Level [dB]  / [2.83V 1m] "	"Frequency [Hz]"	"Sound Pessure Level [dB]  / [2.83V 1m] "	"Frequency [Hz]"	"Sound Pessure Level [dB]  / [2.83V 1m] "	"Frequency [Hz]"	"Sound Pessure Level [dB]  / [2.83V 1m] "	"Frequency [Hz]"	"Sound Pessure Level [dB]  / [2.83V 1m] "
20.5078	53.478	20.5078	52.822	20.5078	53.9451	20.5078	52.066	20.5078	54.1806	20.5078	51.3988	20.5078	54.1558	20.5078	51.1382	20.5078	53.8447	20.5078	51.5811	20.5078	53.2274	20.5078	52.7117	20.5078	52.3277	20.5078	54.2276	20.5078	51.3439	20.5078	55.8361	20.5078	50.9029	20.5078	57.3771	20.5078	51.8089	20.5078	58.7855	20.5078	53.8488	20.5078	60.0398	20.5078	56.1514	20.5078	61.134	20.5078	58.2401	20.5078	62.0651	20.5078	59.9888	20.5078	62.8284	20.5078	61.3909	20.5078	63.4161	20.5078	62.4688	20.5078	63.8172	20.5078	63.2478	20.5078	64.0178	20.5078	63.7518	20.5078	64.0019
21.9727	56.7883	21.9727	56.1713	21.9727	57.2355	21.9727	55.427	21.9727	57.4912	21.9727	54.6482	21.9727	57.5396	21.9727	54.0188	21.9727	57.3655	21.9727	53.8134	21.9727	56.9572	21.9727	54.2472	21.9727	56.3205	21.9727	55.2705	21.9727	55.5255	21.9727	56.6247	21.9727	54.8092	21.9727	58.0639	21.9727	54.659	21.9727	59.4451	21.9727	55.4891	21.9727	60.7024	21.9727	57.0809	21.9727	61.8085	21.9727	58.8855	21.9727	62.7508	21.9727	60.5521	21.9727	63.5209	21.9727	61.9502	21.9727	64.1094	21.9727	63.05	21.9727	64.505	21.9727	63.8573	21.9727	64.6941	21.9727	64.3881	21.9727	64.6609
23.4375	57.5055	23.4375	56.8661	23.4375	57.9542	23.4375	56.0723	23.4375	58.1943	23.4375	55.2125	23.4375	58.2108	23.4375	54.4832	23.4375	57.985	23.4375	54.2082	23.4375	57.4951	23.4375	54.6629	23.4375	56.7266	23.4375	55.7881	23.4375	55.7138	23.4375	57.2627	23.4375	54.6679	23.4375	58.8015	23.4375	54.1871	23.4375	60.2533	23.4375	54.9683	23.4375	61.5566	23.4375	56.7902	23.4375	62.6895	23.4375	58.8693	23.4375	63.6435	23.4375	60.7585	23.4375	64.4122	23.4375	62.3263	23.4375	64.9875	23.4375	63.5579	23.4375	65.3579	23.4375	64.47	23.4375	65.5091	23.4375	65.0848	23.4375	65.4243
24.9023	59.1099	24.9023	58.5226	24.9023	59.5263	24.9023	57.7981	24.9023	59.754	24.9023	57.0114	24.9023	59.779	24.9023	56.3192	24.9023	59.5866	24.9023	55.9787	24.9023	59.1622	24.9023	56.2406	24.9023	58.5026	24.9023	57.1278	24.9023	57.6502	24.9023	58.4116	24.9023	56.7827	24.9023	59.8274	24.9023	56.3361	24.9023	61.2062	24.9023	56.8387	24.9023	62.4663	24.9023	58.2648	24.9023	63.5728	24.9023	60.0615	24.9023	64.5098	24.9023	61.7903	24.9023	65.2672	24.9023	63.2702	24.9023	65.8349	24.9023	64.4527	24.9023	66.2007	24.9023	65.3369	24.9023	66.3505	24.9023	65.9363	24.9023	66.2682
26.3672	60.5183	26.3672	60.0124	26.3672	60.8844	26.3672	59.4076	26.3672	61.0881	26.3672	58.7814	26.3672	61.1138	26.3672	58.2717	26.3672	60.9494	26.3672	58.0725	26.3672	60.5888	26.3672	58.3513	26.3672	60.0438	26.3672	59.1202	26.3672	59.3769	26.3672	60.2259	26.3672	58.7639	26.3672	61.4735	26.3672	58.544	26.3672	62.7193	26.3672	59.0566	26.3672	63.8815	26.3672	60.2709	26.3672	64.9177	26.3672	61.8146	26.3672	65.805	26.3672	63.3475	26.3672	66.5279	26.3672	64.6947	26.3672	67.073	26.3672	65.7908	26.3672	67.4264	26.3672	66.6196	26.3672	67.5733	26.3672	67.1849	26.3672	67.4979
27.832	62.0741	27.832	61.6322	27.832	62.3998	27.832	61.1135	27.832	62.5859	27.832	60.5874	27.832	62.6173	27.832	60.1664	27.832	62.4845	27.832	59.9994	27.832	62.1859	27.832	60.2161	27.832	61.739	27.832	60.8424	27.832	61.2045	27.832	61.7801	27.832	60.7282	27.832	62.8787	27.832	60.5633	27.832	64.0094	27.832	60.9619	27.832	65.0877	27.832	61.9411	27.832	66.0638	27.832	63.2545	27.832	66.908	27.832	64.6199	27.832	67.6	27.832	65.8594	27.832	68.1235	27.832	66.8895	27.832	68.4628	27.832	67.6794	27.832	68.6024	27.832	68.2234	27.832	68.5273
29.2969	63.5755	29.2969	63.1856	29.2969	63.869	29.2969	62.7374	29.2969	64.0427	29.2969	62.2928	29.2969	64.0819	29.2969	61.9453	29.2969	63.979	29.2969	61.8115	29.2969	63.7356	29.2969	61.9921	29.2969	63.3725	29.2969	62.5154	29.2969	62.9479	29.2969	63.3178	29.2969	62.5852	29.2969	64.285	29.2969	62.4799	29.2969	65.3067	29.2969	62.821	29.2969	66.3014	29.2969	63.638	29.2969	67.2161	29.2969	64.7634	29.2969	68.0164	29.2969	65.972	29.2969	68.6783	29.2969	67.098	29.2969	69.1826	29.2969	68.0505	29.2969	69.5122	29.2969	68.7889	29.2969	69.6511	29.2969	69.2999	29.2969	69.5845
30.7617	64.7505	30.7617	64.4038	30.7617	65.0146	30.7617	64.0112	30.7617	65.1728	30.7617	63.6301	30.7617	65.2108	30.7617	63.3419	30.7617	65.1217	30.7617	63.2439	30.7617	64.9092	30.7617	63.4186	30.7617	64.5952	30.7617	63.8917	30.7617	64.2363	30.7617	64.6159	30.7617	63.9429	30.7617	65.4989	30.7617	63.8802	30.7617	66.4448	30.7617	64.2033	30.7617	67.3775	30.7617	64.9411	30.7617	68.2438	30.7617	65.9631	30.7617	69.0075	30.7617	67.0781	30.7617	69.6422	30.7617	68.1331	30.7617	70.1273	30.7617	69.0366	30.7617	70.4444	30.7617	69.7433	30.7617	70.5774	30.7617	70.2358	30.7617	70.5116
32.2266	66.2389	32.2266	65.9357	32.2266	66.4753	32.2266	65.5984	32.2266	66.6233	32.2266	65.2759	32.2266	66.6701	32.2266	65.0341	32.2266	66.6108	32.2266	64.9499	32.2266	66.4506	32.2266	65.0891	32.2266	66.2114	32.2266	65.4784	32.2266	65.9428	32.2266	66.0904	32.2266	65.7338	32.2266	66.858	32.2266	65.7084	32.2266	67.7021	32.2266	65.9828	32.2266	68.5529	32.2266	66.5899	32.2266	69.3571	32.2266	67.4477	32.2266	70.0756	32.2266	68.4121	32.2266	70.6793	32.2266	69.3499	32.2266	71.1447	32.2266	70.1696	32.2266	71.4523	32.2266	70.8195	32.2266	71.5851	32.2266	71.2752	32.2266	71.5293
33.6914	67.5808	33.6914	67.32	33.6914	67.7882	33.6914	67.0364	33.6914	67.922	33.6914	66.7735	33.6914	67.9701	33.6914	66.5872	33.6914	67.9286	33.6914	66.5396	33.6914	67.8039	33.6914	66.6827	33.6914	67.618	33.6914	67.0384	33.6914	67.4165	33.6914	67.5874	33.6914	67.2754	33.6914	68.2779	33.6914	67.2951	33.6914	69.0449	33.6914	67.5658	33.6914	69.8273	33.6914	68.1145	33.6914	70.5749	33.6914	68.8803	33.6914	71.2489	33.6914	69.7485	33.6914	71.8193	33.6914	70.6038	33.6914	72.2615	33.6914	71.3607	33.6914	72.5553	33.6914	71.9665	33.6914	72.6834	33.6914	72.3937	33.6914	72.6323
35.1563	68.9908	35.1563	68.7613	35.1563	69.1776	35.1563	68.5163	35.1563	69.3033	35.1563	68.2927	35.1563	69.357	35.1563	68.1368	35.1563	69.3355	35.1563	68.0987	35.1563	69.2448	35.1563	68.221	35.1563	69.1049	35.1563	68.5241	35.1563	68.955	35.1563	68.9973	35.1563	68.8577	35.1563	69.6026	35.1563	68.8927	35.1563	70.2876	35.1563	69.1326	35.1563	70.9984	35.1563	69.6037	35.1563	71.6879	35.1563	70.2652	35.1563	72.3173	35.1563	71.0276	35.1563	72.8554	35.1563	71.7921	35.1563	73.2764	35.1563	72.4786	35.1563	73.5592	35.1563	73.0334	35.1563	73.6861	35.1563	73.4263	35.1563	73.6442
36.6211	70.1973	36.6211	69.9968	36.6211	70.3636	36.6211	69.7864	36.6211	70.4788	36.6211	69.5986	36.6211	70.5329	36.6211	69.4728	36.6211	70.523	36.6211	69.4509	36.6211	70.4554	36.6211	69.5684	36.6211	70.3481	36.6211	69.8432	36.6211	70.2357	36.6211	70.2688	36.6211	70.1715	36.6211	70.8156	36.6211	70.2218	36.6211	71.4401	36.6211	70.4464	36.6211	72.0951	36.6211	70.87	36.6211	72.7367	36.6211	71.4629	36.6211	73.3273	36.6211	72.1527	36.6211	73.8355	36.6211	72.8533	36.6211	74.2352	36.6211	73.4899	36.6211	74.5044	36.6211	74.0095	36.6211	74.6257	36.6211	74.38	36.6211	74.5863
38.0859	71.4317	38.0859	71.2515	38.0859	71.5843	38.0859	71.0655	38.0859	71.6942	38.0859	70.902	38.0859	71.752	38.0859	70.7947	38.0859	71.7554	38.0859	70.7787	38.0859	71.7096	38.0859	70.8843	38.0859	71.6308	38.0859	71.1279	38.0859	71.5487	38.0859	71.5062	38.0859	71.5081	38.0859	71.9967	38.0859	71.5642	38.0859	72.5635	38.0859	71.7676	38.0859	73.1649	38.0859	72.1415	38.0859	73.7605	38.0859	72.666	38.0859	74.314	38.0859	73.2829	38.0859	74.7942	38.0859	73.9177	38.0859	75.1744	38.0859	74.5013	38.0859	75.4324	38.0859	74.9818	38.0859	75.5507	38.0859	75.326	38.0859	75.517
39.5508	72.5151	39.5508	72.3548	39.5508	72.6532	39.5508	72.1916	39.5508	72.7547	39.5508	72.0509	39.5508	72.8115	39.5508	71.9621	39.5508	72.8212	39.5508	71.9559	39.5508	72.7888	39.5508	72.0584	39.5508	72.7292	39.5508	72.2845	39.5508	72.6692	39.5508	72.6329	39.5508	72.6483	39.5508	73.0855	39.5508	72.7148	39.5508	73.6115	39.5508	72.9125	39.5508	74.1739	39.5508	73.2624	39.5508	74.7353	39.5508	73.7488	39.5508	75.2607	39.5508	74.3217	39.5508	75.7193	39.5508	74.9143	39.5508	76.0845	39.5508	75.4624	39.5508	76.334	39.5508	75.9156	39.5508	76.45	39.5508	76.2408	39.5508	76.4206
41.0156	73.9671	41.0156	73.843	41.0156	74.0791	41.0156	73.7233	41.0156	74.1666	41.0156	73.6284	41.0156	74.2217	41.0156	73.5807	41.0156	74.2422	41.0156	73.6026	41.0156	74.232	41.0156	73.7128	41.0156	74.2033	41.0156	73.9215	41.0156	74.1777	41.0156	74.2282	41.0156	74.1859	41.0156	74.6202	41.0156	74.2641	41.0156	75.075	41.0156	74.4451	41.0156	75.5638	41.0156	74.7454	41.0156	76.0553	41.0156	75.1563	41.0156	76.5187	41.0156	75.6431	41.0156	76.9248	41.0156	76.1551	41.0156	77.2477	41.0156	76.6388	41.0156	77.4654	41.0156	77.0481	41.0156	77.5607	41.0156	77.3495	41.0156	77.5229
42.4805	75.119	42.4805	75.0088	42.4805	75.2177	42.4805	74.9013	42.4805	75.2944	42.4805	74.8137	42.4805	75.3427	42.4805	74.7656	42.4805	75.361	42.4805	74.7769	42.4805	75.3535	42.4805	74.8649	42.4805	75.3317	42.4805	75.0406	42.4805	75.3151	42.4805	75.3062	42.4805	75.331	42.4805	75.6529	42.4805	75.4109	42.4805	76.0628	42.4805	75.5826	42.4805	76.5104	42.4805	75.86	42.4805	76.9669	42.4805	76.2353	42.4805	77.4026	42.4805	76.6784	42.4805	77.7887	42.4805	77.1446	42.4805	78.0994	42.4805	77.5855	42.4805	78.3127	42.4805	77.9584	42.4805	78.4114	42.4805	78.2314	42.4805	78.385
43.9453	76.2195	43.9453	76.0983	43.9453	76.3301	43.9453	75.979	43.9453	76.4203	43.9453	75.8775	43.9453	76.4843	43.9453	75.8113	43.9453	76.5199	43.9453	75.7988	43.9453	76.5301	43.9453	75.8566	43.9453	76.5234	43.9453	75.9963	43.9453	76.5155	43.9453	76.2217	43.9453	76.5283	43.9453	76.527	43.9453	76.5884	43.9453	76.8968	43.9453	76.7208	43.9453	77.3086	43.9453	76.9412	43.9453	77.7349	43.9453	77.2483	43.9453	78.1469	43.9453	77.6208	43.9453	78.5162	43.9453	78.0221	43.9453	78.8169	43.9453	78.4086	43.9453	79.0269	43.9453	78.7392	43.9453	79.1295	43.9453	78.9815	43.9453	79.1147
45.4102	77.2408	45.4102	77.1246	45.4102	77.3481	45.4102	77.0109	45.4102	77.4376	45.4102	76.914	45.4102	77.504	45.4102	76.8498	45.4102	77.5451	45.4102	76.8349	45.4102	77.5635	45.4102	76.8844	45.4102	77.5665	45.4102	77.0092	45.4102	77.5677	45.4102	77.2137	45.4102	77.5861	45.4102	77.4933	45.4102	77.6445	45.4102	77.835	45.4102	77.7652	45.4102	78.2185	45.4102	77.9629	45.4102	78.6185	45.4102	78.2379	45.4102	79.0077	45.4102	78.5734	45.4102	79.3587	45.4102	78.9375	45.4102	79.6462	45.4102	79.291	45.4102	79.8487	45.4102	79.5951	45.4102	79.9498	45.4102	79.8184	45.4102	79.9399
46.875	78.1826	46.875	78.0722	46.875	78.2874	46.875	77.9666	46.875	78.3784	46.875	77.8786	46.875	78.4502	46.875	77.8221	46.875	78.5007	46.875	77.8118	46.875	78.5313	46.875	77.8608	46.875	78.5483	46.875	77.9787	46.875	78.5629	46.875	78.1695	46.875	78.5916	46.875	78.4297	46.875	78.6544	46.875	78.7482	46.875	78.771	46.875	79.1072	46.875	78.955	46.875	79.4839	46.875	79.2078	46.875	79.8528	46.875	79.5153	46.875	80.1881	46.875	79.8494	46.875	80.4654	46.875	80.174	46.875	80.6634	46.875	80.4531	46.875	80.7661	46.875	80.6565	46.875	80.764
48.3398	78.8603	48.3398	78.7666	48.3398	78.9554	48.3398	78.6837	48.3398	79.0445	48.3398	78.6223	48.3398	79.1227	48.3398	78.5941	48.3398	79.1878	48.3398	78.6109	48.3398	79.241	48.3398	78.6827	48.3398	79.2874	48.3398	78.8165	48.3398	79.3364	48.3398	79.0143	48.3398	79.4016	48.3398	79.2724	48.3398	79.4984	48.3398	79.5809	48.3398	79.6415	48.3398	79.924	48.3398	79.84	48.3398	80.2819	48.3398	80.093	48.3398	80.632	48.3398	80.3872	48.3398	80.951	48.3398	80.6983	48.3398	81.2165	48.3398	80.9955	48.3398	81.4088	48.3398	81.2476	48.3398	81.5127	48.3398	81.4282	48.3398	81.5194
51.2695	80.5685	51.2695	80.4908	51.2695	80.6501	51.2695	80.4235	51.2695	80.7304	51.2695	80.3737	51.2695	80.8059	51.2695	80.3495	51.2695	80.8746	51.2695	80.3587	51.2695	80.9367	51.2695	80.4088	51.2695	80.9948	51.2695	80.5054	51.2695	81.0544	51.2695	80.6514	51.2695	81.1234	51.2695	80.846	51.2695	81.2114	51.2695	81.0836	51.2695	81.328	51.2695	81.3539	51.2695	81.4799	51.2695	81.6425	51.2695	81.668	51.2695	81.9313	51.2695	81.8853	51.2695	82.2004	51.2695	82.116	51.2695	82.4297	51.2695	82.3379	51.2695	82.6012	51.2695	82.5265	51.2695	82.7007	51.2695	82.6595	51.2695	82.7203
52.7344	81.2645	52.7344	81.1921	52.7344	81.3417	52.7344	81.13	52.7344	81.4194	52.7344	81.0842	52.7344	81.4942	52.7344	81.0614	52.7344	81.5641	52.7344	81.0684	52.7344	81.6288	52.7344	81.1115	52.7344	81.6901	52.7344	81.1957	52.7344	81.7521	52.7344	81.3243	52.7344	81.8209	52.7344	81.497	52.7344	81.9044	52.7344	81.7098	52.7344	82.0105	52.7344	81.9542	52.7344	82.1456	52.7344	82.2176	52.7344	82.3111	52.7344	82.4838	52.7344	82.5018	52.7344	82.7341	52.7344	82.7048	52.7344	82.9496	52.7344	82.9008	52.7344	83.1129	52.7344	83.0673	52.7344	83.2103	52.7344	83.1836	52.7344	83.2339
54.1992	81.8747	54.1992	81.8105	54.1992	81.9456	54.1992	81.7576	54.1992	82.0197	54.1992	81.7206	54.1992	82.094	54.1992	81.7051	54.1992	82.1668	54.1992	81.7164	54.1992	82.2374	54.1992	81.7598	54.1992	82.3069	54.1992	81.8395	54.1992	82.3779	54.1992	81.9584	54.1992	82.4549	54.1992	82.1166	54.1992	82.5435	54.1992	82.3109	54.1992	82.6498	54.1992	82.5344	54.1992	82.7784	54.1992	82.7762	54.1992	82.9306	54.1992	83.0219	54.1992	83.102	54.1992	83.2548	54.1992	83.282	54.1992	83.4572	54.1992	83.4542	54.1992	83.6127	54.1992	83.5991	54.1992	83.7085	54.1992	83.6982	54.1992	83.7371
55.6641	82.4536	55.6641	82.3945	55.6641	82.5199	55.6641	82.3463	55.6641	82.5904	55.6641	82.3129	55.6641	82.6627	55.6641	82.2988	55.6641	82.735	55.6641	82.3083	55.6641	82.8063	55.6641	82.3461	55.6641	82.877	55.6641	82.4159	55.6641	82.9487	55.6641	82.5205	55.6641	83.0246	55.6641	82.6605	55.6641	83.1088	55.6641	82.8337	55.6641	83.2063	55.6641	83.0345	55.6641	83.3209	55.6641	83.2535	55.6641	83.4543	55.6641	83.4779	55.6641	83.6035	55.6641	83.6925	55.6641	83.7599	55.6641	83.8807	55.6641	83.9096	55.6641	84.0271	55.6641	84.0353	55.6641	84.1193	55.6641	84.1201	55.6641	84.1504
58.5938	83.3829	58.5938	83.3275	58.5938	83.4478	58.5938	83.2838	58.5938	83.5196	58.5938	83.2546	58.5938	83.5965	58.5938	83.2425	58.5938	83.6763	58.5938	83.2506	58.5938	83.7576	58.5938	83.282	58.5938	83.8394	58.5938	83.3394	58.5938	83.9215	58.5938	83.4251	58.5938	84.0048	58.5938	83.5401	58.5938	84.0909	58.5938	83.6834	58.5938	84.1821	58.5938	83.8513	58.5938	84.281	58.5938	84.0372	58.5938	84.3884	58.5938	84.2312	58.5938	84.5029	58.5938	84.4207	58.5938	84.6189	58.5938	84.5916	58.5938	84.7264	58.5938	84.7301	58.5938	84.8126	58.5938	84.8252	58.5938	84.864	58.5938	84.8701
60.0586	83.763	60.0586	83.7122	60.0586	83.8242	60.0586	83.6735	60.0586	83.8939	60.0586	83.6488	60.0586	83.9702	60.0586	83.6401	60.0586	84.0515	60.0586	83.6498	60.0586	84.1358	60.0586	83.68	60.0586	84.222	60.0586	83.7333	60.0586	84.3089	60.0586	83.8115	60.0586	84.3965	60.0586	83.9159	60.0586	84.4854	60.0586	84.0459	60.0586	84.5766	60.0586	84.1988	60.0586	84.6715	60.0586	84.3693	60.0586	84.7708	60.0586	84.5486	60.0586	84.8731	60.0586	84.7257	60.0586	84.9737	60.0586	84.8877	60.0586	85.0644	60.0586	85.0218	60.0586	85.1343	60.0586	85.1173	60.0586	85.1718	60.0586	85.1677
62.9883	84.3781	62.9883	84.3323	62.9883	84.4368	62.9883	84.3002	62.9883	84.5074	62.9883	84.2824	62.9883	84.5885	62.9883	84.2794	62.9883	84.6782	62.9883	84.2921	62.9883	84.7741	62.9883	84.3214	62.9883	84.8737	62.9883	84.3686	62.9883	84.9742	62.9883	84.4351	62.9883	85.0732	62.9883	84.5218	62.9883	85.1688	62.9883	84.629	62.9883	85.2597	62.9883	84.7554	62.9883	85.3454	62.9883	84.8976	62.9883	85.4257	62.9883	85.0497	62.9883	85.5	62.9883	85.2033	62.9883	85.5661	62.9883	85.3482	62.9883	85.6193	62.9883	85.4738	62.9883	85.6531	62.9883	85.5709	62.9883	85.6599	62.9883	85.6335
64.4531	84.6773	64.4531	84.6356	64.4531	84.733	64.4531	84.6079	64.4531	84.8022	64.4531	84.5942	64.4531	84.8836	64.4531	84.5944	64.4531	84.9753	64.4531	84.6085	64.4531	85.0748	64.4531	84.6369	64.4531	85.1787	64.4531	84.6807	64.4531	85.2837	64.4531	84.7408	64.4531	85.3864	64.4531	84.8183	64.4531	85.4839	64.4531	84.9138	64.4531	85.5742	64.4531	85.0267	64.4531	85.656	64.4531	85.1547	64.4531	85.7288	64.4531	85.293	64.4531	85.7918	64.4531	85.4347	64.4531	85.8435	64.4531	85.5706	64.4531	85.8808	64.4531	85.6914	64.4531	85.8989	64.4531	85.7885	64.4531	85.8922	64.4531	85.856
67.3828	85.04	67.3828	85.0016	67.3828	85.0935	67.3828	84.9778	67.3828	85.1623	67.3828	84.9674	67.3828	85.2453	67.3828	84.9694	67.3828	85.3406	67.3828	84.9827	67.3828	85.4451	67.3828	85.0069	67.3828	85.5546	67.3828	85.0421	67.3828	85.6647	67.3828	85.0889	67.3828	85.7705	67.3828	85.1483	67.3828	85.8675	67.3828	85.2214	67.3828	85.9523	67.3828	85.3089	67.3828	86.0224	67.3828	85.41	67.3828	86.0769	67.3828	85.5223	67.3828	86.1154	67.3828	85.6413	67.3828	86.1381	67.3828	85.7603	67.3828	86.1444	67.3828	85.8719	67.3828	86.1326	67.3828	85.9689	67.3828	86.1005	67.3828	86.046
68.8477	85.1737	68.8477	85.1351	68.8477	85.228	68.8477	85.1113	68.8477	85.2981	68.8477	85.1008	68.8477	85.3833	68.8477	85.1021	68.8477	85.4813	68.8477	85.1138	68.8477	85.5888	68.8477	85.1351	68.8477	85.7015	68.8477	85.1657	68.8477	85.8141	68.8477	85.2059	68.8477	85.9212	68.8477	85.2569	68.8477	86.0177	68.8477	85.3198	68.8477	86.0995	68.8477	85.3956	68.8477	86.1636	68.8477	85.4846	68.8477	86.2088	68.8477	85.5852	68.8477	86.2349	68.8477	85.694	68.8477	86.2429	68.8477	85.8058	68.8477	86.2332	68.8477	85.9141	68.8477	86.2058	68.8477	86.0122	68.8477	86.1599	68.8477	86.0952
71.7773	85.4716	71.7773	85.4349	71.7773	85.5245	71.7773	85.413	71.7773	85.5942	71.7773	85.4038	71.7773	85.6799	71.7773	85.4051	71.7773	85.7795	71.7773	85.4147	71.7773	85.8892	71.7773	85.4309	71.7773	86.0041	71.7773	85.4528	71.7773	86.1181	71.7773	85.4804	71.7773	86.2249	71.7773	85.5146	71.7773	86.3181	71.7773	85.5567	71.7773	86.3924	71.7773	85.6088	71.7773	86.4441	71.7773	85.6722	71.7773	86.4713	71.7773	85.7475	71.7773	86.4744	71.7773	85.8336	71.7773	86.4553	71.7773	85.9276	71.7773	86.4168	71.7773	86.0252	71.7773	86.3619	71.7773	86.1215	71.7773	86.2929	71.7773	86.2119
74.707	85.7595	74.707	85.7278	74.707	85.8071	74.707	85.71	74.707	85.8716	74.707	85.7037	74.707	85.9524	74.707	85.7059	74.707	86.0477	74.707	85.7141	74.707	86.1537	74.707	85.7261	74.707	86.2654	74.707	85.7407	74.707	86.3765	74.707	85.7575	74.707	86.4799	74.707	85.7773	74.707	86.5689	74.707	85.802	74.707	86.6372	74.707	85.834	74.707	86.6804	74.707	85.8758	74.707	86.6961	74.707	85.9295	74.707	86.6847	74.707	85.9958	74.707	86.6486	74.707	86.0738	74.707	86.5921	74.707	86.1607	74.707	86.5198	74.707	86.253	74.707	86.4365	74.707	86.3463
77.6367	85.9606	77.6367	85.9308	77.6367	86.0071	77.6367	85.9156	77.6367	86.0718	77.6367	85.9117	77.6367	86.1542	77.6367	85.9157	77.6367	86.2523	77.6367	85.9245	77.6367	86.3625	77.6367	85.9352	77.6367	86.4791	77.6367	85.9461	77.6367	86.5952	77.6367	85.9562	77.6367	86.703	77.6367	85.9663	77.6367	86.7947	77.6367	85.9782	77.6367	86.8629	77.6367	85.9948	77.6367	86.9022	77.6367	86.0196	77.6367	86.9095	77.6367	86.0562	77.6367	86.8848	77.6367	86.1073	77.6367	86.8311	77.6367	86.174	77.6367	86.7539	77.6367	86.2555	77.6367	86.6603	77.6367	86.3494	77.6367	86.5573	77.6367	86.4517
79.1016	86.0201	79.1016	85.9906	79.1016	86.0665	79.1016	85.9754	79.1016	86.1309	79.1016	85.9712	79.1016	86.2131	79.1016	85.9745	79.1016	86.3112	79.1016	85.9817	79.1016	86.4212	79.1016	85.9899	79.1016	86.5375	79.1016	85.997	79.1016	86.653	79.1016	86.002	79.1016	86.7597	79.1016	86.0054	79.1016	86.8493	79.1016	86.0091	79.1016	86.9142	79.1016	86.0163	79.1016	86.9486	79.1016	86.031	79.1016	86.9493	79.1016	86.0576	79.1016	86.9161	79.1016	86.0995	79.1016	86.8524	79.1016	86.159	79.1016	86.7644	79.1016	86.2365	79.1016	86.66	79.1016	86.3298	79.1016	86.5477	79.1016	86.4354
82.0313	86.1182	82.0313	86.0905	82.0313	86.1632	82.0313	86.0773	82.0313	86.227	82.0313	86.0749	82.0313	86.3095	82.0313	86.0794	82.0313	86.4087	82.0313	86.0867	82.0313	86.5205	82.0313	86.0932	82.0313	86.6391	82.0313	86.0965	82.0313	86.757	82.0313	86.0953	82.0313	86.8655	82.0313	86.0897	82.0313	86.9558	82.0313	86.0817	82.0313	87.0193	82.0313	86.075	82.0313	87.0495	82.0313	86.0743	82.0313	87.0424	82.0313	86.0853	82.0313	86.9979	82.0313	86.1131	82.0313	86.9195	82.0313	86.1619	82.0313	86.8144	82.0313	86.2336	82.0313	86.6924	82.0313	86.3273	82.0313	86.5641	82.0313	86.4396
84.9609	86.254	84.9609	86.2269	84.9609	86.2989	84.9609	86.2147	84.9609	86.3634	84.9609	86.2132	84.9609	86.4475	84.9609	86.218	84.9609	86.5492	84.9609	86.2246	84.9609	86.6646	84.9609	86.2293	84.9609	86.7875	84.9609	86.2289	84.9609	86.91	84.9609	86.2219	84.9609	87.023	84.9609	86.2085	84.9609	87.1167	84.9609	86.1907	84.9609	87.1817	84.9609	86.1725	84.9609	87.2105	84.9609	86.1594	84.9609	87.1985	84.9609	86.1583	84.9609	87.1449	84.9609	86.1759	84.9609	87.0534	84.9609	86.218	84.9609	86.9322	84.9609	86.2879	84.9609	86.7924	84.9609	86.3857	84.9609	86.6468	84.9609	86.5077
87.8906	86.3821	87.8906	86.3539	87.8906	86.4268	87.8906	86.3393	87.8906	86.4899	87.8906	86.3342	87.8906	86.5716	87.8906	86.334	87.8906	86.6699	87.8906	86.3341	87.8906	86.7811	87.8906	86.3304	87.8906	86.8993	87.8906	86.3197	87.8906	87.0166	87.8906	86.3004	87.8906	87.1238	87.8906	86.2723	87.8906	87.2106	87.8906	86.2378	87.8906	87.2672	87.8906	86.2011	87.8906	87.2853	87.8906	86.1687	87.8906	87.2598	87.8906	86.1485	87.8906	87.1898	87.8906	86.1489	87.8906	87.0794	87.8906	86.1774	87.8906	86.9378	87.8906	86.2393	87.8906	86.7781	87.8906	86.3359	87.8906	86.6153	87.8906	86.4639
90.8203	86.4585	90.8203	86.4309	90.8203	86.5028	90.8203	86.4169	90.8203	86.5657	90.8203	86.4122	90.8203	86.6472	90.8203	86.4121	90.8203	86.7456	90.8203	86.4117	90.8203	86.8572	90.8203	86.4067	90.8203	86.9759	90.8203	86.3936	90.8203	87.0939	90.8203	86.3703	90.8203	87.2015	90.8203	86.3367	90.8203	87.2881	90.8203	86.2949	90.8203	87.3436	90.8203	86.2495	90.8203	87.359	90.8203	86.2072	90.8203	87.3288	90.8203	86.1768	90.8203	87.2519	90.8203	86.1679	90.8203	87.1325	90.8203	86.1893	90.8203	86.9804	90.8203	86.2473	90.8203	86.8095	90.8203	86.3442	90.8203	86.6362	90.8203	86.4767
95.2148	86.619	95.2148	86.5929	95.2148	86.6604	95.2148	86.5788	95.2148	86.719	95.2148	86.5724	95.2148	86.7951	95.2148	86.5686	95.2148	86.8873	95.2148	86.5624	95.2148	86.9921	95.2148	86.549	95.2148	87.1039	95.2148	86.5246	95.2148	87.2149	95.2148	86.4869	95.2148	87.3155	95.2148	86.4357	95.2148	87.3948	95.2148	86.3731	95.2148	87.4416	95.2148	86.3044	95.2148	87.4463	95.2148	86.2374	95.2148	87.4024	95.2148	86.1823	95.2148	87.3084	95.2148	86.1509	95.2148	87.1687	95.2148	86.1544	95.2148	86.9942	95.2148	86.2014	95.2148	86.801	95.2148	86.2957	95.2148	86.6081	95.2148	86.4345
98.1445	86.7022	98.1445	86.6753	98.1445	86.7441	98.1445	86.6602	98.1445	86.8028	98.1445	86.6529	98.1445	86.8786	98.1445	86.6483	98.1445	86.9698	98.1445	86.6411	98.1445	87.0731	98.1445	86.6263	98.1445	87.1829	98.1445	86.5999	98.1445	87.2913	98.1445	86.5592	98.1445	87.3887	98.1445	86.5037	98.1445	87.4639	98.1445	86.4355	98.1445	87.5056	98.1445	86.3595	98.1445	87.5041	98.1445	86.2839	98.1445	87.4529	98.1445	86.2194	98.1445	87.3507	98.1445	86.1785	98.1445	87.2024	98.1445	86.1734	98.1445	87.0193	98.1445	86.2138	98.1445	86.8184	98.1445	86.3044	98.1445	86.6197	98.1445	86.443
101.074	86.7402	101.074	86.7156	101.074	86.7786	101.074	86.7018	101.074	86.8326	101.074	86.6946	101.074	86.9028	101.074	86.6891	101.074	86.988	101.074	86.6801	101.074	87.0854	101.074	86.6627	101.074	87.1899	101.074	86.6327	101.074	87.2945	101.074	86.5875	101.074	87.3896	101.074	86.5267	101.074	87.4641	101.074	86.4522	101.074	87.5064	101.074	86.3695	101.074	87.506	101.074	86.2868	101.074	87.4558	101.074	86.2155	101.074	87.3537	101.074	86.1687	101.074	87.2043	101.074	86.1593	101.074	87.0186	101.074	86.1977	101.074	86.8139	101.074	86.2888	101.074	86.6108	101.074	86.43
105.469	86.9229	105.469	86.8972	105.469	86.9612	105.469	86.8812	105.469	87.0136	105.469	86.8711	105.469	87.0805	105.469	86.8619	105.469	87.1607	105.469	86.8483	105.469	87.2519	105.469	86.8253	105.469	87.3496	105.469	86.7884	105.469	87.4473	105.469	86.7348	105.469	87.5361	105.469	86.6639	105.469	87.6052	105.469	86.578	105.469	87.6429	105.469	86.4824	105.469	87.6383	105.469	86.3863	105.469	87.5832	105.469	86.3019	105.469	87.4749	105.469	86.2436	105.469	87.3171	105.469	86.2259	105.469	87.121	105.469	86.2602	105.469	86.9046	105.469	86.3523	105.469	86.6898	105.469	86.4994
108.398	87.059	108.398	87.0301	108.398	87.1009	108.398	87.0117	108.398	87.157	108.398	87	108.398	87.2273	108.398	86.9902	108.398	87.3106	108.398	86.977	108.398	87.4044	108.398	86.955	108.398	87.5044	108.398	86.9194	108.398	87.6041	108.398	86.8672	108.398	87.6945	108.398	86.7974	108.398	87.765	108.398	86.7119	108.398	87.8035	108.398	86.6161	108.398	87.799	108.398	86.5193	108.398	87.7432	108.398	86.4338	108.398	87.6331	108.398	86.3745	108.398	87.4723	108.398	86.3564	108.398	87.2723	108.398	86.3916	108.398	87.0511	108.398	86.4858	108.398	86.8314	108.398	86.6365
112.793	87.2921	112.793	87.2637	112.793	87.3313	112.793	87.2436	112.793	87.3823	112.793	87.2283	112.793	87.4454	112.793	87.2133	112.793	87.5196	112.793	87.1933	112.793	87.6028	112.793	87.1628	112.793	87.691	112.793	87.1171	112.793	87.7781	112.793	87.0528	112.793	87.8553	112.793	86.9689	112.793	87.9117	112.793	86.8671	112.793	87.9353	112.793	86.753	112.793	87.9148	112.793	86.636	112.793	87.8422	112.793	86.5294	112.793	87.7147	112.793	86.4492	112.793	87.537	112.793	86.412	112.793	87.3214	112.793	86.4317	112.793	87.0876	112.793	86.5157	112.793	86.8598	112.793	86.6624
117.188	87.4174	117.188	87.3852	117.188	87.4577	117.188	87.3594	117.188	87.5072	117.188	87.3369	117.188	87.5659	117.188	87.3136	117.188	87.6335	117.188	87.2846	117.188	87.7089	117.188	87.2447	117.188	87.7895	117.188	87.1893	117.188	87.8703	117.188	87.115	117.188	87.9436	117.188	87.021	117.188	87.9986	117.188	86.9094	117.188	88.0228	117.188	86.786	117.188	88.0036	117.188	86.661	117.188	87.9316	117.188	86.5484	117.188	87.8026	117.188	86.465	117.188	87.6202	117.188	86.4281	117.188	87.3967	117.188	86.4519	117.188	87.1521	117.188	86.544	117.188	86.9117	117.188	86.7017
120.117	87.5222	120.117	87.4867	120.117	87.5651	120.117	87.4573	120.117	87.6163	120.117	87.4312	120.117	87.6755	120.117	87.4045	120.117	87.7424	120.117	87.3726	120.117	87.8159	120.117	87.3302	120.117	87.8938	120.117	87.2728	120.117	87.9716	120.117	87.1971	120.117	88.042	120.117	87.1022	120.117	88.0947	120.117	86.9902	120.117	88.1174	120.117	86.8671	120.117	88.0977	120.117	86.743	120.117	88.0258	120.117	86.6319	120.117	87.8975	120.117	86.5506	120.117	87.7159	120.117	86.5161	120.117	87.493	120.117	86.5425	120.117	87.2486	120.117	86.6369	120.117	87.0078	120.117	86.7965
124.512	87.6549	124.512	87.6192	124.512	87.6975	124.512	87.5894	124.512	87.7474	124.512	87.5628	124.512	87.8043	124.512	87.5358	124.512	87.8679	124.512	87.5034	124.512	87.9375	124.512	87.4603	124.512	88.0113	124.512	87.4015	124.512	88.0854	124.512	87.3233	124.512	88.153	124.512	87.2247	124.512	88.2038	124.512	87.1076	124.512	88.2253	124.512	86.9781	124.512	88.2045	124.512	86.8466	124.512	88.1311	124.512	86.7278	124.512	88	124.512	86.6391	124.512	87.8145	124.512	86.5986	124.512	87.5864	124.512	86.6211	124.512	87.3363	124.512	86.7142	124.512	87.0902	124.512	86.8752
128.906	87.7183	128.906	87.674	128.906	87.7671	128.906	87.6335	128.906	87.82	128.906	87.5947	128.906	87.8767	128.906	87.554	128.906	87.9367	128.906	87.5069	128.906	87.9995	128.906	87.4481	128.906	88.0637	128.906	87.3724	128.906	88.1262	128.906	87.2764	128.906	88.1807	128.906	87.159	128.906	88.2175	128.906	87.0227	128.906	88.2243	128.906	86.874	128.906	88.188	128.906	86.7243	128.906	88.0979	128.906	86.5896	128.906	87.949	128.906	86.4885	128.906	87.7442	128.906	86.4405	128.906	87.4961	128.906	86.4614	128.906	87.2259	128.906	86.5593	128.906	86.9612	128.906	86.7309
133.301	87.7723	133.301	87.7247	133.301	87.8248	133.301	87.6817	133.301	87.8816	133.301	87.6417	133.301	87.9417	133.301	87.6015	133.301	88.0045	133.301	87.556	133.301	88.0698	133.301	87.4998	133.301	88.1362	133.301	87.4275	133.301	88.201	133.301	87.3348	133.301	88.2581	133.301	87.2203	133.301	88.2975	133.301	87.0862	133.301	88.3067	133.301	86.9388	133.301	88.2721	133.301	86.7896	133.301	88.1826	133.301	86.6545	133.301	88.0327	133.301	86.5529	133.301	87.8255	133.301	86.5043	133.301	87.5739	133.301	86.5252	133.301	87.2997	133.301	86.624	133.301	87.0311	133.301	86.7977
139.16	87.8009	139.16	87.7448	139.16	87.8596	139.16	87.6919	139.16	87.9198	139.16	87.6413	139.16	87.9806	139.16	87.5903	139.16	88.0416	139.16	87.5345	139.16	88.1033	139.16	87.4686	139.16	88.1658	139.16	87.3871	139.16	88.227	139.16	87.2859	139.16	88.2816	139.16	87.1638	139.16	88.32	139.16	87.023	139.16	88.3291	139.16	86.8706	139.16	88.2944	139.16	86.7186	139.16	88.2038	139.16	86.5837	139.16	88.0511	139.16	86.4855	139.16	87.8388	139.16	86.4437	139.16	87.5796	139.16	86.4742	139.16	87.2957	139.16	86.5843	139.16	87.0159	139.16	86.7702
143.555	87.7987	143.555	87.7396	143.555	87.8574	143.555	87.6811	143.555	87.9143	143.555	87.6232	143.555	87.9684	143.555	87.5635	143.555	88.0201	143.555	87.4982	143.555	88.0707	143.555	87.4219	143.555	88.1214	143.555	87.3293	143.555	88.1715	143.555	87.2163	143.555	88.2165	143.555	87.0814	143.555	88.247	143.555	86.9273	143.555	88.2495	143.555	86.7613	143.555	88.2089	143.555	86.5963	143.555	88.112	143.555	86.4498	143.555	87.9518	143.555	86.3424	143.555	87.7307	143.555	86.2946	143.555	87.4617	143.555	86.3228	143.555	87.1677	143.555	86.4344	143.555	86.8785	143.555	86.6252
147.949	87.8409	147.949	87.7713	147.949	87.9062	147.949	87.6994	147.949	87.9648	147.949	87.6259	147.949	88.0155	147.949	87.5494	147.949	88.0583	147.949	87.4665	147.949	88.095	147.949	87.3723	147.949	88.1279	147.949	87.2614	147.949	88.1576	147.949	87.1297	147.949	88.1815	147.949	86.9758	147.949	88.1916	147.949	86.8023	147.949	88.1751	147.949	86.6171	147.949	88.1168	147.949	86.4337	147.949	88.0034	147.949	86.2708	147.949	87.8272	147.949	86.1502	147.949	87.59	147.949	86.0935	147.949	87.3048	147.949	86.1179	147.949	86.9954	147.949	86.2311	147.949	86.6925	147.949	86.4284
153.809	87.8224	153.809	87.7432	153.809	87.8956	153.809	87.6605	153.809	87.9601	153.809	87.5757	153.809	88.0144	153.809	87.4878	153.809	88.0585	153.809	87.3937	153.809	88.0939	153.809	87.2887	153.809	88.1229	153.809	87.1676	153.809	88.1461	153.809	87.026	153.809	88.1606	153.809	86.8625	153.809	88.1585	153.809	86.6798	153.809	88.1276	153.809	86.4858	153.809	88.0533	153.809	86.2943	153.809	87.9229	153.809	86.1242	153.809	87.7295	153.809	85.9979	153.809	87.476	153.809	85.9372	153.809	87.1764	153.809	85.9596	153.809	86.8549	153.809	86.073	153.809	86.543	153.809	86.2732
159.668	87.9699	159.668	87.892	159.668	88.0379	159.668	87.8073	159.668	88.0939	159.668	87.7175	159.668	88.137	159.668	87.6226	159.668	88.169	159.668	87.5203	159.668	88.1937	159.668	87.4066	159.668	88.2154	159.668	87.2767	159.668	88.2365	159.668	87.1269	159.668	88.2546	159.668	86.9562	159.668	88.2611	159.668	86.7678	159.668	88.2413	159.668	86.5703	159.668	88.178	159.668	86.3778	159.668	88.0561	159.668	86.2095	159.668	87.8675	159.668	86.0876	159.668	87.6147	159.668	86.0332	159.668	87.3123	159.668	86.0627	159.668	86.9858	159.668	86.1835	159.668	86.6675	159.668	86.3909
165.527	88.1255	165.527	88.049	165.527	88.1903	165.527	87.9636	165.527	88.2406	165.527	87.8717	165.527	88.276	165.527	87.7733	165.527	88.2986	165.527	87.6664	165.527	88.3134	165.527	87.5471	165.527	88.3264	165.527	87.4109	165.527	88.3421	165.527	87.2546	165.527	88.3597	165.527	87.0777	165.527	88.3714	165.527	86.8844	165.527	88.3623	165.527	86.6844	165.527	88.3139	165.527	86.4931	165.527	88.209	165.527	86.3308	165.527	88.0372	165.527	86.2197	165.527	87.799	165.527	86.1804	165.527	87.5073	165.527	86.227	165.527	87.1863	165.527	86.364	165.527	86.8675	165.527	86.5839
171.387	88.102	171.387	88.0215	171.387	88.168	171.387	87.9306	171.387	88.2156	171.387	87.8326	171.387	88.2436	171.387	87.7287	171.387	88.254	171.387	87.617	171.387	88.2526	171.387	87.4936	171.387	88.2471	171.387	87.3541	171.387	88.2441	171.387	87.1948	171.387	88.2456	171.387	87.0154	171.387	88.2457	171.387	86.8203	171.387	88.2305	171.387	86.6196	171.387	88.1814	171.387	86.4294	171.387	88.0803	171.387	86.2702	171.387	87.916	171.387	86.1638	171.387	87.6883	171.387	86.1291	171.387	87.4095	171.387	86.178	171.387	87.1027	171.387	86.313	171.387	86.7979	171.387	86.5258
177.246	88.0687	177.246	87.9862	177.246	88.1343	177.246	87.892	177.246	88.1786	177.246	87.7901	177.246	88.2001	177.246	87.6821	177.246	88.2009	177.246	87.5665	177.246	88.187	177.246	87.4391	177.246	88.1671	177.246	87.2948	177.246	88.149	177.246	87.1296	177.246	88.1358	177.246	86.9428	177.246	88.1228	177.246	86.7391	177.246	88.0966	177.246	86.529	177.246	88.0385	177.246	86.3297	177.246	87.9304	177.246	86.1621	177.246	87.7608	177.246	86.0482	177.246	87.5299	177.246	86.0067	177.246	87.2503	177.246	86.0488	177.246	86.9458	177.246	86.1763	177.246	86.6461	177.246	86.3812
183.105	87.8811	183.105	87.783	183.105	87.9562	183.105	87.6679	183.105	88.0041	183.105	87.5413	183.105	88.0233	183.105	87.4066	183.105	88.0169	183.105	87.2645	183.105	87.9921	183.105	87.1127	183.105	87.9587	183.105	86.9478	183.105	87.9261	183.105	86.767	183.105	87.8988	183.105	86.5703	183.105	87.8732	183.105	86.3628	183.105	87.8366	183.105	86.1556	183.105	87.7702	183.105	85.9655	183.105	87.6556	183.105	85.813	183.105	87.4815	183.105	85.7181	183.105	87.2479	183.105	85.6961	183.105	86.9678	183.105	85.7546	183.105	86.6647	183.105	85.8928	183.105	86.367	183.105	86.1022
188.965	87.9124	188.965	87.8165	188.965	87.9814	188.965	87.6987	188.965	88.0194	188.965	87.5629	188.965	88.0248	188.965	87.4108	188.965	88.0001	188.965	87.2411	188.965	87.9519	188.965	87.0506	188.965	87.8899	188.965	86.8354	188.965	87.824	188.965	86.5933	188.965	87.7601	188.965	86.3263	188.965	87.6958	188.965	86.0425	188.965	87.6194	188.965	85.7578	188.965	87.5125	188.965	85.4952	188.965	87.3562	188.965	85.2816	188.965	87.1383	188.965	85.1426	188.965	86.8587	188.965	85.0965	188.965	86.531	188.965	85.1508	188.965	86.1809	188.965	85.302	188.965	85.8396	188.965	85.538
196.289	87.897	196.289	87.7939	196.289	87.9738	196.289	87.6715	196.289	88.0183	196.289	87.5354	196.289	88.0277	196.289	87.3885	196.289	88.0038	196.289	87.2295	196.289	87.9531	196.289	87.0541	196.289	87.8854	196.289	86.8566	196.289	87.8109	196.289	86.6326	196.289	87.7355	196.289	86.3817	196.289	87.6573	196.289	86.1097	196.289	87.5655	196.289	85.8306	196.289	87.4436	196.289	85.5661	196.289	87.2747	196.289	85.343	196.289	87.0489	196.289	85.1879	196.289	86.7672	196.289	85.1213	196.289	86.4442	196.289	85.1531	196.289	86.1046	196.289	85.2817	196.289	85.7789	196.289	85.4964
203.613	87.8383	203.613	87.7457	203.613	87.8978	203.613	87.6277	203.613	87.9181	203.613	87.4913	203.613	87.8979	203.613	87.3405	203.613	87.8419	203.613	87.1749	203.613	87.7613	203.613	86.9909	203.613	87.6715	203.613	86.7829	203.613	87.5876	203.613	86.5466	203.613	87.5174	203.613	86.2821	203.613	87.4565	203.613	85.9965	203.613	87.3879	203.613	85.7053	203.613	87.2871	203.613	85.4317	203.613	87.1319	203.613	85.2037	203.613	86.9105	203.613	85.0477	203.613	86.6264	203.613	84.9824	203.613	86.2986	203.613	85.0149	203.613	85.9561	203.613	85.1418	203.613	85.6313	203.613	85.3526
210.938	87.8541	210.938	87.7282	210.938	87.9417	210.938	87.5742	210.938	87.9825	210.938	87.401	210.938	87.9722	210.938	87.214	210.938	87.9123	210.938	87.0141	210.938	87.8116	210.938	86.7979	210.938	87.6843	210.938	86.5602	210.938	87.5473	210.938	86.2969	210.938	87.4143	210.938	86.0083	210.938	87.2898	210.938	85.7025	210.938	87.1661	210.938	85.3966	210.938	87.026	210.938	85.1163	210.938	86.8498	210.938	84.8911	210.938	86.6243	210.938	84.7474	210.938	86.3487	210.938	84.7014	210.938	86.0361	210.938	84.755	210.938	85.7095	210.938	84.8991	210.938	85.3955	210.938	85.1185
218.262	87.7786	218.262	87.6541	218.262	87.8623	218.262	87.4993	218.262	87.8971	218.262	87.3238	218.262	87.8794	218.262	87.1337	218.262	87.8122	218.262	86.9305	218.262	87.7054	218.262	86.7112	218.262	87.5743	218.262	86.4702	218.262	87.4357	218.262	86.203	218.262	87.3012	218.262	85.9093	218.262	87.1722	218.262	85.5963	218.262	87.0374	218.262	85.2805	218.262	86.8774	218.262	84.9871	218.262	86.6732	218.262	84.7456	218.262	86.4151	218.262	84.5826	218.262	86.1082	218.262	84.5145	218.262	85.7719	218.262	84.5442	218.262	85.4343	218.262	84.6638	218.262	85.1233	218.262	84.8612
225.586	87.7603	225.586	87.6357	225.586	87.8384	225.586	87.476	225.586	87.8611	225.586	87.292	225.586	87.8252	225.586	87.0912	225.586	87.7351	225.586	86.8763	225.586	87.6038	225.586	86.6453	225.586	87.4519	225.586	86.394	225.586	87.3028	225.586	86.1195	225.586	87.1742	225.586	85.8239	225.586	87.0705	225.586	85.5177	225.586	86.9784	225.586	85.2205	225.586	86.8725	225.586	84.9599	225.586	86.7262	225.586	84.7646	225.586	86.523	225.586	84.6567	225.586	86.2633	225.586	84.6444	225.586	85.964	225.586	84.7219	225.586	85.6518	225.586	84.8753	225.586	85.3536	225.586	85.0901
232.91	87.8857	232.91	87.753	232.91	87.9662	232.91	87.5806	232.91	87.9839	232.91	87.3792	232.91	87.9325	232.91	87.1559	232.91	87.8128	232.91	86.9119	232.91	87.6341	232.91	86.6439	232.91	87.4145	232.91	86.3462	232.91	87.1784	232.91	86.015	232.91	86.9504	232.91	85.6525	232.91	86.746	232.91	85.272	232.91	86.565	232.91	84.8992	232.91	86.3915	232.91	84.571	232.91	86.2035	232.91	84.3271	232.91	85.9841	232.91	84.1963	232.91	85.7307	232.91	84.1853	232.91	85.4544	232.91	84.2772	232.91	85.1736	232.91	84.4435	232.91	84.9045	232.91	84.658
241.699	87.8184	241.699	87.6765	241.699	87.9131	241.699	87.5007	241.699	87.9486	241.699	87.303	241.699	87.9182	241.699	87.0901	241.699	87.8218	241.699	86.8623	241.699	87.6677	241.699	86.6132	241.699	87.4712	241.699	86.3333	241.699	87.2515	241.699	86.0139	241.699	87.0258	241.699	85.6521	241.699	86.8015	241.699	85.2552	241.699	86.5724	241.699	84.8439	241.699	86.3217	241.699	84.4522	241.699	86.0314	241.699	84.1216	241.699	85.6945	241.699	83.8895	241.699	85.3218	241.699	83.7754	241.699	84.9413	241.699	83.7754	241.699	84.5866	241.699	83.8709	241.699	84.2834	241.699	84.0433
250.488	87.594	250.488	87.41	250.488	87.7208	250.488	87.1866	250.488	87.7763	250.488	86.9412	250.488	87.7529	250.488	86.6863	250.488	87.6523	250.488	86.4263	250.488	87.4863	250.488	86.1574	250.488	87.2758	250.488	85.8703	250.488	87.0465	250.488	85.5551	250.488	86.8202	250.488	85.2075	250.488	86.6056	250.488	84.8341	250.488	86.3926	250.488	84.455	250.488	86.1572	250.488	84.1032	250.488	85.8746	250.488	83.8172	250.488	85.5339	250.488	83.6279	250.488	85.147	250.488	83.5467	250.488	84.7477	250.488	83.5647	250.488	84.3778	250.488	83.6635	250.488	84.0687	250.488	83.8315
259.277	87.975	259.277	87.8041	259.277	88.0851	259.277	87.5869	259.277	88.1232	259.277	87.3373	259.277	88.084	259.277	87.0657	259.277	87.9696	259.277	86.7759	259.277	87.7912	259.277	86.4651	259.277	87.568	259.277	86.1259	259.277	87.3247	259.277	85.7508	259.277	87.0839	259.277	85.3377	259.277	86.8568	259.277	84.8952	259.277	86.6365	259.277	84.4462	259.277	86.3996	259.277	84.0285	259.277	86.1178	259.277	83.688	259.277	85.7731	259.277	83.4649	259.277	85.369	259.277	83.378	259.277	84.9326	259.277	83.4203	259.277	84.5045	259.277	83.57	259.277	84.1221	259.277	83.8074
268.066	87.468	268.066	87.2924	268.066	87.5895	268.066	87.0822	268.066	87.641	268.066	86.8562	268.066	87.6138	268.066	86.627	268.066	87.5089	268.066	86.3976	268.066	87.3383	268.066	86.1611	268.066	87.1246	268.066	85.9042	268.066	86.8969	268.066	85.6143	268.066	86.6816	268.066	85.2861	268.066	86.4915	268.066	84.9278	268.066	86.3184	268.066	84.5642	268.066	86.1371	268.066	84.235	268.066	85.9196	268.066	83.9841	268.066	85.651	268.066	83.8434	268.066	85.3389	268.066	83.8184	268.066	85.0109	268.066	83.8889	268.066	84.7008	268.066	84.0255	268.066	84.4315	268.066	84.2077
276.855	87.5939	276.855	87.3826	276.855	87.7289	276.855	87.1113	276.855	87.7763	276.855	86.7983	276.855	87.7316	276.855	86.4607	276.855	87.5984	276.855	86.11	276.855	87.3901	276.855	85.7501	276.855	87.1293	276.855	85.3771	276.855	86.8448	276.855	84.9829	276.855	86.5634	276.855	84.5617	276.855	86.2985	276.855	84.1173	276.855	86.0418	276.855	83.6697	276.855	85.7651	276.855	83.257	276.855	85.4361	276.855	82.9286	276.855	85.0376	276.855	82.7255	276.855	84.582	276.855	82.6604	276.855	84.1115	276.855	82.7132	276.855	83.68	276.855	82.8507	276.855	83.3253	276.855	83.0533
287.109	87.5674	287.109	87.4047	287.109	87.6548	287.109	87.1813	287.109	87.6565	287.109	86.9122	287.109	87.5698	287.109	86.6087	287.109	87.4016	287.109	86.2751	287.109	87.1687	287.109	85.9087	287.109	86.897	287.109	85.5023	287.109	86.6174	287.109	85.0499	287.109	86.3574	287.109	84.5537	287.109	86.1302	287.109	84.0301	287.109	85.9268	287.109	83.5142	287.109	85.7177	287.109	83.0576	287.109	85.4656	287.109	82.7165	287.109	85.1434	287.109	82.5306	287.109	84.7487	287.109	82.5056	287.109	84.3074	287.109	82.6155	287.109	83.8627	287.109	82.8242	287.109	83.4553	287.109	83.107
297.363	87.5146	297.363	87.3356	297.363	87.61	297.363	87.0922	297.363	87.6083	297.363	86.8054	297.363	87.5053	297.363	86.4919	297.363	87.3093	297.363	86.1597	297.363	87.0416	297.363	85.8061	297.363	86.7352	297.363	85.4195	297.363	86.428	297.363	84.9858	297.363	86.1506	297.363	84.4976	297.363	85.914	297.363	83.9637	297.363	85.7057	297.363	83.4185	297.363	85.4968	297.363	82.925	297.363	85.2579	297.363	82.5623	297.363	84.9717	297.363	82.3929	297.363	84.6399	297.363	82.4269	297.363	84.2805	297.363	82.6188	297.363	83.9164	297.363	82.9013	297.363	83.5629	297.363	83.2234
307.617	87.7901	307.617	87.621	307.617	87.8804	307.617	87.3917	307.617	87.8749	307.617	87.1178	307.617	87.7632	307.617	86.8087	307.617	87.5456	307.617	86.4664	307.617	87.2373	307.617	86.0868	307.617	86.8704	307.617	85.6637	307.617	86.4903	307.617	85.1936	307.617	86.1427	307.617	84.6805	307.617	85.8518	307.617	84.1401	307.617	85.6069	307.617	83.6045	307.617	85.3691	307.617	83.1232	307.617	85.097	307.617	82.7564	307.617	84.7718	307.617	82.5549	307.617	84.4076	307.617	82.5333	307.617	84.0401	307.617	82.6596	307.617	83.702	307.617	82.875	307.617	83.4023	307.617	83.1292
319.336	87.1506	319.336	86.9731	319.336	87.2635	319.336	86.7568	319.336	87.2886	319.336	86.5238	319.336	87.2107	319.336	86.2848	319.336	87.0257	319.336	86.0349	319.336	86.7445	319.336	85.7562	319.336	86.3958	319.336	85.4253	319.336	86.0256	319.336	85.0231	319.336	85.6863	319.336	84.5451	319.336	85.4144	319.336	84.0092	319.336	85.2081	319.336	83.4621	319.336	85.0279	319.336	82.9786	319.336	84.8238	319.336	82.6437	319.336	84.5685	319.336	82.5139	319.336	84.2743	319.336	82.5823	319.336	83.9804	319.336	82.7823	319.336	83.7202	319.336	83.031	319.336	83.4935	319.336	83.2718
329.59	87.2764	329.59	87.0541	329.59	87.4259	329.59	86.79	329.59	87.4773	329.59	86.5134	329.59	87.4154	329.59	86.2416	329.59	87.2363	329.59	85.9733	329.59	86.9481	329.59	85.6882	329.59	86.5713	329.59	85.3557	329.59	86.1384	329.59	84.947	329.59	85.6884	329.59	84.4464	329.59	85.2552	329.59	83.8609	329.59	84.8525	329.59	83.2297	329.59	84.4684	329.59	82.6287	329.59	84.0783	329.59	82.1597	329.59	83.6721	329.59	81.9073	329.59	83.2749	329.59	81.8841	329.59	82.9372	329.59	82.0188	329.59	82.6939	329.59	82.2081	329.59	82.5274	329.59	82.3806
341.309	87.0154	341.309	86.7847	341.309	87.1652	341.309	86.5093	341.309	87.2091	341.309	86.2286	341.309	87.1379	341.309	85.971	341.309	86.9585	341.309	85.7428	341.309	86.6932	341.309	85.5246	341.309	86.3773	341.309	85.2811	341.309	86.0515	341.309	84.9755	341.309	85.7498	341.309	84.5832	341.309	85.484	341.309	84.1023	341.309	85.2356	341.309	83.5612	341.309	84.9631	341.309	83.0226	341.309	84.6244	341.309	82.5752	341.309	84.2051	341.309	82.2994	341.309	83.7377	341.309	82.2193	341.309	83.2955	341.309	82.2861	341.309	82.9508	341.309	82.418	341.309	82.7207	341.309	82.5607
353.027	86.7574	353.027	86.4409	353.027	86.9583	353.027	86.0503	353.027	87.0179	353.027	85.6374	353.027	86.9266	353.027	85.252	353.027	86.6913	353.027	84.9237	353.027	86.3375	353.027	84.6484	353.027	85.9107	353.027	84.3915	353.027	85.4715	353.027	84.1063	353.027	85.0782	353.027	83.7545	353.027	84.76	353.027	83.3236	353.027	84.4992	353.027	82.8386	353.027	84.2432	353.027	82.3686	353.027	83.9412	353.027	82.0157	353.027	83.5809	353.027	81.8681	353.027	83.2056	353.027	81.9359	353.027	82.8937	353.027	82.1354	353.027	82.6985	353.027	82.3496	353.027	82.5957	353.027	82.5026
366.211	87.0595	366.211	86.7532	366.211	87.2437	366.211	86.359	366.211	87.2846	366.211	85.9205	366.211	87.174	366.211	85.4815	366.211	86.9182	366.211	85.0717	366.211	86.5404	366.211	84.6948	366.211	86.0824	366.211	84.327	366.211	85.6026	366.211	83.9296	366.211	85.1589	366.211	83.4661	366.211	84.7799	366.211	82.9188	366.211	84.44	366.211	82.3023	366.211	84.0684	366.211	81.6744	366.211	83.5902	366.211	81.1352	366.211	82.9765	366.211	80.7912	366.211	82.2839	366.211	80.6836	366.211	81.654	366.211	80.7478	366.211	81.2308	366.211	80.8637	366.211	81.0343	366.211	80.9515
379.395	87.338	379.395	87.0873	379.395	87.4667	379.395	86.7423	379.395	87.4556	379.395	86.3372	379.395	87.2976	379.395	85.906	379.395	86.9975	379.395	85.4728	379.395	86.5751	379.395	85.0435	379.395	86.0688	379.395	84.6035	379.395	85.5378	379.395	84.125	379.395	85.0512	379.395	83.579	379.395	84.6596	379.395	82.9479	379.395	84.3578	379.395	82.2402	379.395	84.0766	379.395	81.5051	379.395	83.7191	379.395	80.8416	379.395	83.2152	379.395	80.3746	379.395	82.5671	379.395	80.179	379.395	81.8667	379.395	80.215	379.395	81.2582	379.395	80.3697	379.395	80.835	379.395	80.5677
392.578	86.667	392.578	86.3894	392.578	86.8417	392.578	86.0476	392.578	86.889	392.578	85.6883	392.578	86.7997	392.578	85.3516	392.578	86.5798	392.578	85.0541	392.578	86.2503	392.578	84.7816	392.578	85.8492	392.578	84.4976	392.578	85.431	392.578	84.1615	392.578	85.0554	392.578	83.7446	392.578	84.7614	392.578	83.2402	392.578	84.5374	392.578	82.6687	392.578	84.3175	392.578	82.0831	392.578	84.0159	392.578	81.567	392.578	83.5768	392.578	81.212	392.578	83.015	392.578	81.067	392.578	82.4246	392.578	81.1007	392.578	81.9318	392.578	81.2288	392.578	81.6003	392.578	81.3902
405.762	86.2917	405.762	85.9707	405.762	86.4583	405.762	85.5417	405.762	86.4488	405.762	85.0734	405.762	86.2627	405.762	84.6435	405.762	85.9201	405.762	84.3078	405.762	85.4625	405.762	84.0711	405.762	84.9552	405.762	83.886	405.762	84.4817	405.762	83.6822	405.762	84.1207	405.762	83.3998	405.762	83.9066	405.762	83.0093	405.762	83.8013	405.762	82.5209	405.762	83.7095	405.762	81.9891	405.762	83.5281	405.762	81.5105	405.762	83.1964	405.762	81.1927	405.762	82.7311	405.762	81.0901	405.762	82.2318	405.762	81.1589	405.762	81.8289	405.762	81.2966	405.762	81.5803	405.762	81.4314
420.41	86.9102	420.41	86.5481	420.41	87.0956	420.41	86.0449	420.41	87.0852	420.41	85.4555	420.41	86.8741	420.41	84.8503	420.41	86.4713	420.41	84.2983	420.41	85.9044	420.41	83.8402	420.41	85.2287	420.41	83.4695	420.41	84.534	420.41	83.1397	420.41	83.9331	420.41	82.7923	420.41	83.5109	420.41	82.3845	420.41	83.2612	420.41	81.9064	420.41	83.0816	420.41	81.3932	420.41	82.8419	420.41	80.9289	420.41	82.4639	420.41	80.6223	420.41	81.9686	420.41	80.5374	420.41	81.4771	420.41	80.6302	420.41	81.133	420.41	80.7793	420.41	80.9705	420.41	80.8893
435.059	87.1036	435.059	86.8038	435.059	87.2319	435.059	86.3654	435.059	87.1739	435.059	85.8411	435.059	86.9309	435.059	85.2954	435.059	86.5184	435.059	84.787	435.059	85.9697	435.059	84.3452	435.059	85.3423	435.059	83.9595	435.059	84.7253	435.059	83.5924	435.059	84.2264	435.059	83.2051	435.059	83.9216	435.059	82.7787	435.059	83.7893	435.059	82.3229	435.059	83.7047	435.059	81.876	435.059	83.512	435.059	81.4936	435.059	83.1082	435.059	81.2257	435.059	82.4978	435.059	81.0839	435.059	81.8156	435.059	81.0283	435.059	81.2757	435.059	80.9961	435.059	81.0115	435.059	80.9656
451.172	87.7932	451.172	87.4048	451.172	87.9773	451.172	86.8467	451.172	87.939	451.172	86.1742	451.172	87.6712	451.172	85.4624	451.172	87.1776	451.172	84.7899	451.172	86.4781	451.172	84.2095	451.172	85.6241	451.172	83.7244	451.172	84.7213	451.172	83.295	451.172	83.9428	451.172	82.8712	451.172	83.4717	451.172	82.4252	451.172	83.3603	451.172	81.974	451.172	83.4645	451.172	81.5872	451.172	83.5617	451.172	81.3673	451.172	83.4958	451.172	81.3846	451.172	83.2336	451.172	81.604	451.172	82.8632	451.172	81.895	451.172	82.5374	451.172	82.1269	451.172	82.3515	451.172	82.256
465.82	87.9571	465.82	87.6061	465.82	88.1255	465.82	87.1022	465.82	88.0953	465.82	86.4906	465.82	87.8622	465.82	85.8277	465.82	87.43	465.82	85.1698	465.82	86.8102	465.82	84.5541	465.82	86.0268	465.82	83.986	465.82	85.1308	465.82	83.4421	465.82	84.2247	465.82	82.8897	465.82	83.4699	465.82	82.3084	465.82	83.0179	465.82	81.7096	465.82	82.8709	465.82	81.1498	465.82	82.8527	465.82	80.7293	465.82	82.7553	465.82	80.5471	465.82	82.4797	465.82	80.6176	465.82	82.0754	465.82	80.839	465.82	81.6864	465.82	81.0723	465.82	81.4208	465.82	81.2506
483.398	87.8219	483.398	87.4285	483.398	88.0218	483.398	86.8851	483.398	88.0113	483.398	86.263	483.398	87.7934	483.398	85.6481	483.398	87.3843	483.398	85.1063	483.398	86.8094	483.398	84.6482	483.398	86.1033	483.398	84.2268	483.398	85.3133	483.398	83.7706	483.398	84.506	483.398	83.2231	483.398	83.7688	483.398	82.5675	483.398	83.1889	483.398	81.8442	483.398	82.8102	483.398	81.1676	483.398	82.6055	483.398	80.7204	483.398	82.5071	483.398	80.663	483.398	82.4656	483.398	80.9868	483.398	82.4668	483.398	81.5029	483.398	82.4905	483.398	81.993	483.398	82.4725	483.398	82.3249
499.512	87.7231	499.512	87.2788	499.512	87.9166	499.512	86.6183	499.512	87.8578	499.512	85.8218	499.512	87.5683	499.512	85.0178	499.512	87.0875	499.512	84.3486	499.512	86.4709	499.512	83.8941	499.512	85.7873	499.512	83.619	499.512	85.1099	499.512	83.4111	499.512	84.499	499.512	83.16	499.512	83.9781	499.512	82.8024	499.512	83.5218	499.512	82.3344	499.512	83.0668	499.512	81.8206	499.512	82.5518	499.512	81.4021	499.512	81.9847	499.512	81.2524	499.512	81.5126	499.512	81.4375	499.512	81.3706	499.512	81.8165	499.512	81.6151	499.512	82.1407	499.512	81.9973	499.512	82.2174
517.09	88.5681	517.09	88.1879	517.09	88.6689	517.09	87.5523	517.09	88.4907	517.09	86.7175	517.09	88.0545	517.09	85.7762	517.09	87.403	517.09	84.845	517.09	86.6056	517.09	84.0256	517.09	85.7631	517.09	83.3586	517.09	84.9996	517.09	82.8148	517.09	84.4211	517.09	82.3306	517.09	84.0498	517.09	81.8466	517.09	83.79	517.09	81.3288	517.09	83.4666	517.09	80.7871	517.09	82.9005	517.09	80.3078	517.09	81.9857	517.09	80.0533	517.09	80.8082	517.09	80.1335	517.09	79.8164	517.09	80.4288	517.09	79.6032	517.09	80.6419	517.09	80.0563	517.09	80.5245
536.133	88.5586	536.133	88.173	536.133	88.6224	536.133	87.4908	536.133	88.363	536.133	86.5754	536.133	87.796	536.133	85.5443	536.133	86.9573	536.133	84.5625	536.133	85.9184	536.133	83.778	536.133	84.8149	536.133	83.2285	536.133	83.8683	536.133	82.831	536.133	83.3259	536.133	82.4727	536.133	83.2753	536.133	82.0927	536.133	83.5444	536.133	81.7016	536.133	83.8489	536.133	81.3623	536.133	83.9575	536.133	81.1554	536.133	83.7429	536.133	81.1338	536.133	83.2001	536.133	81.2774	536.133	82.4878	536.133	81.4843	536.133	81.9067	536.133	81.6267	536.133	81.6638	536.133	81.6505
555.176	88.8286	555.176	88.444	555.176	88.9053	555.176	87.7675	555.176	88.6689	555.176	86.8383	555.176	88.12	555.176	85.736	555.176	87.2636	555.176	84.5949	555.176	86.1148	555.176	83.5827	555.176	84.7217	555.176	82.8191	555.176	83.2338	555.176	82.2953	555.176	82.0109	555.176	81.9022	555.176	81.526	555.176	81.5343	555.176	81.818	555.176	81.1616	555.176	82.3809	555.176	80.8486	555.176	82.7396	555.176	80.7255	555.176	82.6979	555.176	80.8906	555.176	82.3038	555.176	81.293	555.176	81.829	555.176	81.7364	555.176	81.6308	555.176	82.0087	555.176	81.7825	555.176	82.0006
574.219	88.5011	574.219	88.177	574.219	88.5669	574.219	87.5947	574.219	88.3802	574.219	86.771	574.219	87.9463	574.219	85.7532	574.219	87.2682	574.219	84.6297	574.219	86.3483	574.219	83.5226	574.219	85.1985	574.219	82.5456	574.219	83.876	574.219	81.7477	574.219	82.5624	574.219	81.1062	574.219	81.6157	574.219	80.5856	574.219	81.3428	574.219	80.1987	574.219	81.6013	574.219	80.0135	574.219	81.9535	574.219	80.1052	574.219	82.086	574.219	80.4823	574.219	81.9331	574.219	81.0389	574.219	81.6634	574.219	81.58	574.219	81.5653	574.219	81.9112	574.219	81.7325	574.219	81.9355
594.727	88.36	594.727	88.1121	594.727	88.3337	594.727	87.6059	594.727	88.0365	594.727	86.8802	594.727	87.4874	594.727	85.9992	594.727	86.7144	594.727	85.0471	594.727	85.7462	594.727	84.1072	594.727	84.6116	594.727	83.224	594.727	83.3649	594.727	82.3761	594.727	82.1481	594.727	81.4911	594.727	81.2311	594.727	80.503	594.727	80.8616	594.727	79.4461	594.727	80.9734	594.727	78.5705	594.727	81.2319	594.727	78.3087	594.727	81.3466	594.727	78.8181	594.727	81.2219	594.727	79.7127	594.727	80.9756	594.727	80.5208	594.727	80.8536	594.727	80.9955	594.727	80.9585	594.727	81.0962
615.234	88.4069	615.234	88.0332	615.234	88.4678	615.234	87.3814	615.234	88.2123	615.234	86.5298	615.234	87.6597	615.234	85.6067	615.234	86.8447	615.234	84.7653	615.234	85.808	615.234	84.1063	615.234	84.5947	615.234	83.6041	615.234	83.2822	615.234	83.1267	615.234	82.0479	615.234	82.5214	615.234	81.1849	615.234	81.6766	615.234	80.8618	615.234	80.5575	615.234	80.8582	615.234	79.2928	615.234	80.8009	615.234	78.3606	615.234	80.542	615.234	78.4483	615.234	80.276	615.234	79.4922	615.234	80.3717	615.234	80.7035	615.234	80.9047	615.234	81.5299	615.234	81.5115	615.234	81.7898
637.207	88.23	637.207	87.8221	637.207	88.3168	637.207	87.1004	637.207	88.103	637.207	86.1229	637.207	87.6214	637.207	85.0296	637.207	86.9033	637.207	84.0438	637.207	85.9657	637.207	83.3648	637.207	84.8131	637.207	82.9995	637.207	83.4732	637.207	82.7669	637.207	82.0785	637.207	82.4682	637.207	80.9408	637.207	81.984	637.207	80.3934	637.207	81.2733	637.207	80.3798	637.207	80.382	637.207	80.4932	637.207	79.5446	637.207	80.4345	637.207	79.2629	637.207	80.2472	637.207	79.8459	637.207	80.2895	637.207	80.8517	637.207	80.8077	637.207	81.6321	637.207	81.4948	637.207	81.855
659.18	88.8923	659.18	88.6079	659.18	88.8261	659.18	87.9464	659.18	88.4486	659.18	86.9049	659.18	87.8061	659.18	85.5313	659.18	86.9436	659.18	83.9788	659.18	85.8966	659.18	82.5496	659.18	84.6894	659.18	81.5673	659.18	83.36	659.18	81.0623	659.18	82.0319	659.18	80.7637	659.18	80.9915	659.18	80.4206	659.18	80.5335	659.18	79.9514	659.18	80.528	659.18	79.42	659.18	80.4588	659.18	79.0271	659.18	79.9415	659.18	79.1023	659.18	79.1268	659.18	79.8209	659.18	78.9441	659.18	80.8538	659.18	79.9453	659.18	81.6436	659.18	81.1757	659.18	81.8013
682.617	88.4939	682.617	88.2458	682.617	88.4054	682.617	87.6534	682.617	88.0093	682.617	86.7426	682.617	87.3506	682.617	85.5977	682.617	86.4811	682.617	84.3888	682.617	85.4364	682.617	83.3485	682.617	84.2147	682.617	82.6333	682.617	82.8012	682.617	82.1793	682.617	81.2981	682.617	81.7668	682.617	80.1422	682.617	81.1912	682.617	79.9046	682.617	80.3544	682.617	80.3557	682.617	79.3219	682.617	80.6387	682.617	78.4417	682.617	80.1685	682.617	78.306	682.617	78.8448	682.617	79.0576	682.617	77.5053	682.617	80.0644	682.617	77.906	682.617	80.6668	682.617	79.4458	682.617	80.5021
707.52	88.8656	707.52	88.6105	707.52	88.7825	707.52	87.9941	707.52	88.4029	707.52	87.0277	707.52	87.7745	707.52	85.787	707.52	86.9369	707.52	84.4486	707.52	85.9027	707.52	83.2766	707.52	84.6481	707.52	82.4634	707.52	83.1293	707.52	81.9495	707.52	81.3776	707.52	81.5142	707.52	79.7721	707.52	80.9821	707.52	79.1977	707.52	80.2738	707.52	79.8154	707.52	79.3635	707.52	80.5192	707.52	78.3608	707.52	80.4742	707.52	77.8288	707.52	79.5467	707.52	78.5098	707.52	78.5401	707.52	79.9326	707.52	78.9904	707.52	81.015	707.52	80.3728	707.52	81.1995
732.422	89.3942	732.422	89.2824	732.422	89.1381	732.422	88.7739	732.422	88.564	732.422	87.8588	732.422	87.7491	732.422	86.5668	732.422	86.7886	732.422	85.0295	732.422	85.7571	732.422	83.5677	732.422	84.6541	732.422	82.6014	732.422	83.3918	732.422	82.2172	732.422	81.8805	732.422	82.0529	732.422	80.2773	732.422	81.7289	732.422	79.3379	732.422	81.0592	732.422	79.6687	732.422	80.022	732.422	80.3608	732.422	78.8223	732.422	80.2862	732.422	78.1128	732.422	79.0044	732.422	78.5737	732.422	77.1172	732.422	79.7047	732.422	77.1969	732.422	80.4949	732.422	79.0946	732.422	80.3657
757.324	89.5283	757.324	89.449	757.324	89.2207	757.324	88.9581	757.324	88.5722	757.324	88.042	757.324	87.6698	757.324	86.7126	757.324	86.6418	757.324	85.0778	757.324	85.6096	757.324	83.4762	757.324	84.5999	757.324	82.4582	757.324	83.5036	757.324	82.2131	757.324	82.1362	757.324	82.2776	757.324	80.4263	757.324	82.1493	757.324	78.9304	757.324	81.6037	757.324	79.0005	757.324	80.6331	757.324	80.2505	757.324	79.4439	757.324	80.944	757.324	78.5437	757.324	80.257	757.324	78.4846	757.324	78.1125	757.324	79.0516	757.324	76.1608	757.324	79.4021	757.324	77.2156	757.324	78.8519
785.156	90.0062	785.156	89.927	785.156	89.7322	785.156	89.4814	785.156	89.1441	785.156	88.6646	785.156	88.3222	785.156	87.4829	785.156	87.37	785.156	85.9966	785.156	86.3581	785.156	84.4109	785.156	85.2834	785.156	83.114	785.156	84.0819	785.156	82.3988	785.156	82.6535	785.156	82.0972	785.156	80.8952	785.156	81.8078	785.156	78.9614	785.156	81.2482	785.156	77.9797	785.156	80.2607	785.156	78.8501	785.156	78.797	785.156	79.9253	785.156	77.3689	785.156	79.8722	785.156	77.5719	785.156	78.7843	785.156	79.3394	785.156	78.4736	785.156	80.7556	785.156	79.8753	785.156	80.958
811.523	89.6274	811.523	89.6766	811.523	89.1949	811.523	89.3281	811.523	88.4267	811.523	88.5807	811.523	87.4189	811.523	87.4396	811.523	86.3007	811.523	85.9417	811.523	85.1705	811.523	84.2341	811.523	84.0408	811.523	82.6775	811.523	82.8614	811.523	81.7293	811.523	81.5758	811.523	81.4507	811.523	80.1476	811.523	81.4222	811.523	78.7296	811.523	81.2168	811.523	78.1529	811.523	80.6076	811.523	79.0389	811.523	79.5927	811.523	80.0781	811.523	78.5612	811.523	80.0056	811.523	78.3033	811.523	78.5962	811.523	78.9109	811.523	77.1095	811.523	79.4156	811.523	77.7327	811.523	79.0343
840.82	89.7916	840.82	89.9165	840.82	89.2494	840.82	89.5846	840.82	88.3703	840.82	88.7661	840.82	87.306	840.82	87.4401	840.82	86.2503	840.82	85.6531	840.82	85.319	840.82	83.6738	840.82	84.4635	840.82	82.1193	840.82	83.5366	840.82	81.4661	840.82	82.3764	840.82	81.391	840.82	80.8072	840.82	81.3582	840.82	78.7325	840.82	81.1348	840.82	76.8921	840.82	80.6203	840.82	77.2145	840.82	79.6727	840.82	78.5774	840.82	78.3282	840.82	78.8147	840.82	77.4797	840.82	77.7537	840.82	78.1958	840.82	77.2763	840.82	79.3697	840.82	78.6094	840.82	79.6265
870.117	89.2475	870.117	89.4712	870.117	88.6364	870.117	89.236	870.117	87.7518	870.117	88.4904	870.117	86.7491	870.117	87.1817	870.117	85.7734	870.117	85.2677	870.117	84.8764	870.117	82.8386	870.117	84.0141	870.117	80.5063	870.117	83.1619	870.117	79.5525	870.117	82.3676	870.117	80.0712	870.117	81.5686	870.117	80.8288	870.117	80.3861	870.117	81.1755	870.117	78.387	870.117	80.9827	870.117	76.2468	870.117	80.2751	870.117	76.2036	870.117	79.2645	870.117	76.7126	870.117	78.5962	870.117	75.6508	870.117	78.8229	870.117	74.7247	870.117	79.2591	870.117	76.8332	870.117	78.7841
900.879	89.2095	900.879	89.4714	900.879	88.5416	900.879	89.2683	900.879	87.5855	900.879	88.5825	900.879	86.5257	900.879	87.4276	900.879	85.5379	900.879	85.8422	900.879	84.6195	900.879	83.8977	900.879	83.568	900.879	81.7459	900.879	82.2142	900.879	79.7245	900.879	80.673	900.879	78.4252	900.879	79.3566	900.879	78.2425	900.879	78.4608	900.879	78.6932	900.879	77.8404	900.879	78.9185	900.879	77.8748	900.879	78.3823	900.879	78.6217	900.879	77.1275	900.879	78.7959	900.879	76.4691	900.879	77.4925	900.879	77.7176	900.879	75.9106	900.879	79.0693	900.879	77.2262	900.879	78.9718
933.105	89.1595	933.105	89.4015	933.105	88.4346	933.105	89.1351	933.105	87.3375	933.105	88.3647	933.105	86.1075	933.105	87.0845	933.105	85.0395	933.105	85.2719	933.105	84.2525	933.105	82.9726	933.105	83.587	933.105	80.5872	933.105	82.8101	933.105	79.1325	933.105	81.8381	933.105	79.0415	933.105	80.7555	933.105	79.3556	933.105	79.5488	933.105	79.488	933.105	77.9289	933.105	79.5677	933.105	76.3076	933.105	79.585	933.105	76.4927	933.105	79.1687	933.105	77.1769	933.105	78.3788	933.105	76.4324	933.105	78.2015	933.105	75.9573	933.105	78.8807	933.105	77.7293	933.105	79.0227
965.332	88.9041	965.332	89.1589	965.332	88.155	965.332	88.902	965.332	87.0561	965.332	88.181	965.332	85.8851	965.332	87.0531	965.332	84.8774	965.332	85.545	965.332	84.0018	965.332	83.655	965.332	83.0361	965.332	81.4557	965.332	81.8022	965.332	79.3688	965.332	80.3286	965.332	78.2349	965.332	79.0019	965.332	78.1503	965.332	78.2311	965.332	78.2033	965.332	77.6271	965.332	77.847	965.332	76.9143	965.332	77.1063	965.332	76.9764	965.332	76.3752	965.332	77.3951	965.332	76.3943	965.332	76.6799	965.332	77.4045	965.332	75.6683	965.332	78.3943	965.332	76.8549	965.332	78.3062
1,000.49	89.0735	1,000.49	89.2681	1,000.49	88.2598	1,000.49	88.8809	1,000.49	86.9331	1,000.49	87.9921	1,000.49	85.4227	1,000.49	86.6451	1,000.49	84.166	1,000.49	84.8001	1,000.49	83.3344	1,000.49	82.3394	1,000.49	82.7255	1,000.49	79.1792	1,000.49	82.0447	1,000.49	75.9419	1,000.49	81.1283	1,000.49	75.2757	1,000.49	80.0162	1,000.49	77.0559	1,000.49	78.7199	1,000.49	78.5011	1,000.49	76.7773	1,000.49	78.9323	1,000.49	74.2117	1,000.49	78.4531	1,000.49	74.3086	1,000.49	77.4192	1,000.49	75.6015	1,000.49	76.6773	1,000.49	74.7671	1,000.49	77.1156	1,000.49	73.9968	1,000.49	78.0052	1,000.49	76.2934	1,000.49	77.973
1,035.64	88.8855	1,035.64	89.1105	1,035.64	87.9647	1,035.64	88.6776	1,035.64	86.4831	1,035.64	87.7197	1,035.64	84.8362	1,035.64	86.3827	1,035.64	83.5476	1,035.64	84.734	1,035.64	82.7329	1,035.64	82.7345	1,035.64	82.0189	1,035.64	80.2989	1,035.64	81.0994	1,035.64	77.4437	1,035.64	80.0831	1,035.64	74.8384	1,035.64	79.4848	1,035.64	74.2989	1,035.64	79.3128	1,035.64	75.6647	1,035.64	78.5707	1,035.64	76.9564	1,035.64	76.7333	1,035.64	77.367	1,035.64	75.5837	1,035.64	76.9357	1,035.64	75.9767	1,035.64	76.422	1,035.64	74.8507	1,035.64	76.8174	1,035.64	72.4512	1,035.64	77.5115	1,035.64	74.5129	1,035.64	77.0236
1,072.27	89.1573	1,072.27	89.3068	1,072.27	88.2073	1,072.27	88.7019	1,072.27	86.6788	1,072.27	87.5232	1,072.27	85.1026	1,072.27	86.0096	1,072.27	83.8547	1,072.27	84.4096	1,072.27	82.8065	1,072.27	82.9539	1,072.27	81.7666	1,072.27	81.8187	1,072.27	80.5979	1,072.27	80.9595	1,072.27	79.173	1,072.27	79.9303	1,072.27	78.0572	1,072.27	78.1244	1,072.27	78.2581	1,072.27	75.5563	1,072.27	78.5472	1,072.27	74.002	1,072.27	77.3381	1,072.27	74.1072	1,072.27	75.1016	1,072.27	73.8852	1,072.27	74.3077	1,072.27	73.4809	1,072.27	73.698	1,072.27	75.1067	1,072.27	73.8022	1,072.27	77.5396	1,072.27	76.7257	1,072.27	78.3162
1,108.89	88.9662	1,108.89	89.3175	1,108.89	87.7874	1,108.89	88.8568	1,108.89	86.0463	1,108.89	87.7543	1,108.89	84.3638	1,108.89	86.2686	1,108.89	83.3045	1,108.89	84.6561	1,108.89	82.855	1,108.89	83.0442	1,108.89	82.5992	1,108.89	81.4134	1,108.89	81.9309	1,108.89	79.7502	1,108.89	80.2534	1,108.89	78.1366	1,108.89	77.7383	1,108.89	76.669	1,108.89	76.9759	1,108.89	75.6517	1,108.89	77.9324	1,108.89	75.5866	1,108.89	77.6979	1,108.89	75.9708	1,108.89	76.9471	1,108.89	75.7676	1,108.89	77.166	1,108.89	75.0465	1,108.89	76.0465	1,108.89	75.851	1,108.89	72.6754	1,108.89	77.6664	1,108.89	74.7688	1,108.89	77.6921
1,148.44	88.5599	1,148.44	88.9265	1,148.44	87.4014	1,148.44	88.5784	1,148.44	85.627	1,148.44	87.6499	1,148.44	83.8941	1,148.44	86.2623	1,148.44	82.8979	1,148.44	84.4989	1,148.44	82.5387	1,148.44	82.4704	1,148.44	82.3388	1,148.44	80.5362	1,148.44	81.7587	1,148.44	79.2021	1,148.44	80.1468	1,148.44	78.3158	1,148.44	77.5382	1,148.44	77.3301	1,148.44	76.8549	1,148.44	76.3314	1,148.44	77.8961	1,148.44	75.7707	1,148.44	77.0921	1,148.44	75.3424	1,148.44	75.6113	1,148.44	74.2474	1,148.44	76.5303	1,148.44	72.3919	1,148.44	76.0983	1,148.44	72.7119	1,148.44	73.7982	1,148.44	75.4446	1,148.44	74.9395	1,148.44	76.4837
1,189.45	88.5039	1,189.45	88.8252	1,189.45	87.2388	1,189.45	88.3468	1,189.45	85.2689	1,189.45	87.3201	1,189.45	83.4474	1,189.45	85.9173	1,189.45	82.5093	1,189.45	84.1248	1,189.45	82.3022	1,189.45	81.8377	1,189.45	82.5624	1,189.45	79.2632	1,189.45	82.7609	1,189.45	77.2149	1,189.45	81.9654	1,189.45	76.0569	1,189.45	79.4034	1,189.45	75.4511	1,189.45	76.0614	1,189.45	75.7706	1,189.45	76.4948	1,189.45	76.656	1,189.45	77.3578	1,189.45	77.0157	1,189.45	77.3613	1,189.45	76.4359	1,189.45	77.8853	1,189.45	75.0851	1,189.45	76.7797	1,189.45	75.1724	1,189.45	73.4313	1,189.45	77.2596	1,189.45	75.2226	1,189.45	77.7436
1,230.47	88.6655	1,230.47	88.9823	1,230.47	87.4019	1,230.47	88.4315	1,230.47	85.4684	1,230.47	87.2475	1,230.47	83.8356	1,230.47	85.7423	1,230.47	83.2325	1,230.47	84.0327	1,230.47	83.0095	1,230.47	81.7385	1,230.47	82.7241	1,230.47	78.428	1,230.47	82.4339	1,230.47	74.8092	1,230.47	81.6606	1,230.47	72.4843	1,230.47	79.5927	1,230.47	70.9103	1,230.47	76.8623	1,230.47	72.3199	1,230.47	76.9279	1,230.47	75.686	1,230.47	77.2392	1,230.47	77.572	1,230.47	75.9417	1,230.47	77.5909	1,230.47	76.2808	1,230.47	76.1324	1,230.47	75.9571	1,230.47	75.4876	1,230.47	73.6451	1,230.47	76.5344	1,230.47	74.7265	1,230.47	76.6389
1,274.41	88.7274	1,274.41	89.1344	1,274.41	87.2993	1,274.41	88.638	1,274.41	85.2841	1,274.41	87.4609	1,274.41	83.8462	1,274.41	85.7872	1,274.41	83.3383	1,274.41	83.8032	1,274.41	83.0508	1,274.41	81.5202	1,274.41	82.6506	1,274.41	78.7338	1,274.41	82.2591	1,274.41	76.2264	1,274.41	81.7537	1,274.41	75.7866	1,274.41	80.2905	1,274.41	74.7479	1,274.41	77.6186	1,274.41	68.0742	1,274.41	76.6875	1,274.41	67.9764	1,274.41	76.5911	1,274.41	75.6692	1,274.41	74.1007	1,274.41	77.7016	1,274.41	75.4176	1,274.41	76.4396	1,274.41	76.2399	1,274.41	75.1848	1,274.41	72.9271	1,274.41	77.134	1,274.41	73.7558	1,274.41	77.1503
1,319.82	88.5499	1,319.82	89.1534	1,319.82	87.0164	1,319.82	88.7257	1,319.82	85.1278	1,319.82	87.3695	1,319.82	83.9427	1,319.82	85.3121	1,319.82	83.6033	1,319.82	82.9511	1,319.82	83.3217	1,319.82	80.7609	1,319.82	82.8881	1,319.82	78.4205	1,319.82	82.5481	1,319.82	74.7515	1,319.82	81.9309	1,319.82	72.8994	1,319.82	80.1268	1,319.82	74.8644	1,319.82	76.9991	1,319.82	73.4405	1,319.82	75.9997	1,319.82	67.2436	1,319.82	77.3864	1,319.82	72.3756	1,319.82	76.8435	1,319.82	77.3298	1,319.82	76.3672	1,319.82	77.6566	1,319.82	76.8225	1,319.82	75.7324	1,319.82	74.5596	1,319.82	76.7208	1,319.82	74.3131	1,319.82	77.0911
1,366.7	88.3537	1,366.7	89.1342	1,366.7	86.7791	1,366.7	88.9047	1,366.7	85.0518	1,366.7	87.7185	1,366.7	84.184	1,366.7	85.8774	1,366.7	84.2615	1,366.7	83.7074	1,366.7	84.3149	1,366.7	81.2575	1,366.7	83.6375	1,366.7	78.4138	1,366.7	82.5346	1,366.7	74.6087	1,366.7	81.6865	1,366.7	67.106	1,366.7	80.2664	1,366.7	67.2713	1,366.7	76.619	1,366.7	72.8193	1,366.7	74.1645	1,366.7	71.272	1,366.7	77.2974	1,366.7	69.6693	1,366.7	75.6191	1,366.7	74.9287	1,366.7	73.7237	1,366.7	76.1375	1,366.7	77.0816	1,366.7	74.133	1,366.7	75.5865	1,366.7	75.5288	1,366.7	75.1686	1,366.7	77.3025
1,413.57	88.0135	1,413.57	89.1131	1,413.57	86.0614	1,413.57	88.866	1,413.57	84.5218	1,413.57	87.4665	1,413.57	83.5954	1,413.57	85.4592	1,413.57	83.2269	1,413.57	83.5121	1,413.57	83.8051	1,413.57	82.0373	1,413.57	83.819	1,413.57	81.2535	1,413.57	82.759	1,413.57	80.5382	1,413.57	82.3449	1,413.57	78.1303	1,413.57	82.2045	1,413.57	73.1361	1,413.57	79.9265	1,413.57	70.8111	1,413.57	74.4209	1,413.57	69.8967	1,413.57	72.3018	1,413.57	68.0364	1,413.57	75.3933	1,413.57	75.6922	1,413.57	76.6897	1,413.57	77.3157	1,413.57	74.5524	1,413.57	75.0544	1,413.57	73.8177	1,413.57	73.6112	1,413.57	73.6608	1,413.57	72.872
1,463.38	88.472	1,463.38	89.0322	1,463.38	86.9788	1,463.38	88.6435	1,463.38	84.7991	1,463.38	87.2958	1,463.38	82.8617	1,463.38	85.0587	1,463.38	83.0947	1,463.38	82.6813	1,463.38	84.4515	1,463.38	81.5036	1,463.38	84.8194	1,463.38	81.39	1,463.38	83.6582	1,463.38	80.7423	1,463.38	82.1167	1,463.38	78.0484	1,463.38	82.0704	1,463.38	74.1327	1,463.38	81.6797	1,463.38	75.6327	1,463.38	79.0143	1,463.38	76.4938	1,463.38	75.0844	1,463.38	72.2463	1,463.38	73.0175	1,463.38	74.9147	1,463.38	74.4697	1,463.38	75.7193	1,463.38	74.2341	1,463.38	71.0034	1,463.38	71.7892	1,463.38	70.9995	1,463.38	74.4518	1,463.38	74.6218
1,516.11	88.9069	1,516.11	89.3656	1,516.11	87.4575	1,516.11	88.54	1,516.11	85.1228	1,516.11	86.5303	1,516.11	82.731	1,516.11	84.0377	1,516.11	83.4892	1,516.11	82.2668	1,516.11	84.8254	1,516.11	81.2558	1,516.11	85.0607	1,516.11	80.0549	1,516.11	83.9567	1,516.11	78.743	1,516.11	81.3678	1,516.11	76.2421	1,516.11	80.0137	1,516.11	70.8573	1,516.11	81.0719	1,516.11	74.2798	1,516.11	80.8731	1,516.11	77.1877	1,516.11	78.7716	1,516.11	73.6137	1,516.11	72.4743	1,516.11	72.6524	1,516.11	69.9212	1,516.11	74.91	1,516.11	72.9686	1,516.11	71.2115	1,516.11	70.8951	1,516.11	70.8379	1,516.11	73.8614	1,516.11	74.835
1,568.85	88.7292	1,568.85	89.0711	1,568.85	87.1396	1,568.85	88.3612	1,568.85	84.8379	1,568.85	86.8578	1,568.85	83.7976	1,568.85	84.4604	1,568.85	84.5087	1,568.85	80.995	1,568.85	84.6117	1,568.85	77.4343	1,568.85	83.7964	1,568.85	74.8975	1,568.85	82.6915	1,568.85	73.3453	1,568.85	81.359	1,568.85	70.3893	1,568.85	79.7943	1,568.85	46.3712	1,568.85	78.1034	1,568.85	72.2503	1,568.85	77.7414	1,568.85	76.3913	1,568.85	78.1259	1,568.85	74.8657	1,568.85	74.8428	1,568.85	71.56	1,568.85	69.7903	1,568.85	74.0236	1,568.85	73.7382	1,568.85	72.6708	1,568.85	74.6192	1,568.85	70.4236	1,568.85	75.5522	1,568.85	75.5487
1,624.51	87.6045	1,624.51	88.5954	1,624.51	86.3192	1,624.51	88.3954	1,624.51	84.0881	1,624.51	86.3327	1,624.51	82.1946	1,624.51	83.0949	1,624.51	84.2963	1,624.51	79.8388	1,624.51	85.2426	1,624.51	77.0347	1,624.51	84.5723	1,624.51	75.3568	1,624.51	83.2271	1,624.51	73.9254	1,624.51	81.4421	1,624.51	73.9319	1,624.51	80.0185	1,624.51	72.0213	1,624.51	79.1843	1,624.51	70.4764	1,624.51	78.3822	1,624.51	70.461	1,624.51	77.6334	1,624.51	72.9722	1,624.51	72.9451	1,624.51	72.3496	1,624.51	72.2439	1,624.51	73.5416	1,624.51	72.2817	1,624.51	72.1043	1,624.51	73.5551	1,624.51	68.5632	1,624.51	75.4779	1,624.51	73.1745
1,681.64	87.9412	1,681.64	88.247	1,681.64	86.8591	1,681.64	88.0347	1,681.64	83.4063	1,681.64	85.7668	1,681.64	81.9196	1,681.64	82.0414	1,681.64	84.2311	1,681.64	80.1538	1,681.64	84.6025	1,681.64	78.265	1,681.64	84.1496	1,681.64	74.1857	1,681.64	83.5014	1,681.64	68.9264	1,681.64	82.0195	1,681.64	60.5547	1,681.64	79.4466	1,681.64	57.5239	1,681.64	77.1192	1,681.64	67.114	1,681.64	77.3738	1,681.64	56.9572	1,681.64	78.6497	1,681.64	66.4564	1,681.64	76.6379	1,681.64	68.7904	1,681.64	70.8079	1,681.64	68.4128	1,681.64	67.774	1,681.64	69.9384	1,681.64	70.1578	1,681.64	70.1062	1,681.64	73.782	1,681.64	72.4148
1,741.7	88.8314	1,741.7	88.3069	1,741.7	87.0104	1,741.7	86.526	1,741.7	83.5623	1,741.7	84.7659	1,741.7	82.0891	1,741.7	82.0568	1,741.7	83.5555	1,741.7	78.3418	1,741.7	84.561	1,741.7	75.7959	1,741.7	84.4202	1,741.7	69.1137	1,741.7	83.6434	1,741.7	50.8321	1,741.7	82.7029	1,741.7	66.5116	1,741.7	81.435	1,741.7	72.5107	1,741.7	79.3216	1,741.7	69.5943	1,741.7	77.2166	1,741.7	58.9517	1,741.7	78.4947	1,741.7	66.1384	1,741.7	78.1876	1,741.7	68.1308	1,741.7	75.3849	1,741.7	70.0176	1,741.7	73.0314	1,741.7	68.6388	1,741.7	68.6504	1,741.7	67.3793	1,741.7	74.8959	1,741.7	72.3546
1,803.22	88.6724	1,803.22	88.4782	1,803.22	87.3787	1,803.22	86.8584	1,803.22	83.4069	1,803.22	83.2935	1,803.22	80.9026	1,803.22	78.352	1,803.22	84.1687	1,803.22	77.033	1,803.22	84.953	1,803.22	74.5686	1,803.22	83.7462	1,803.22	70.9693	1,803.22	81.8073	1,803.22	71.3552	1,803.22	81.5521	1,803.22	67.1284	1,803.22	81.3709	1,803.22	71.8191	1,803.22	78.1234	1,803.22	71.5473	1,803.22	75.9819	1,803.22	67.3504	1,803.22	76.271	1,803.22	69.8658	1,803.22	75.6838	1,803.22	67.6766	1,803.22	76.8667	1,803.22	65.2693	1,803.22	74.3809	1,803.22	69.7516	1,803.22	69.7491	1,803.22	71.0524	1,803.22	75.8103	1,803.22	72.526
1,866.21	88.7071	1,866.21	87.9246	1,866.21	86.9228	1,866.21	85.7369	1,866.21	82.1757	1,866.21	83.0496	1,866.21	80.5362	1,866.21	77.0394	1,866.21	83.239	1,866.21	70.7924	1,866.21	85.3383	1,866.21	78.0073	1,866.21	85.153	1,866.21	76.0845	1,866.21	82.7942	1,866.21	72.7035	1,866.21	80.8978	1,866.21	74.4488	1,866.21	80.5513	1,866.21	75.4565	1,866.21	77.2824	1,866.21	76.4936	1,866.21	76.7565	1,866.21	73.023	1,866.21	78.1039	1,866.21	69.3333	1,866.21	73.4519	1,866.21	70.0639	1,866.21	74.8775	1,866.21	68.7258	1,866.21	74.6046	1,866.21	69.5273	1,866.21	65.8631	1,866.21	72.7475	1,866.21	76.6577	1,866.21	75.0473
1,932.13	88.2504	1,932.13	87.1686	1,932.13	86.8831	1,932.13	84.5557	1,932.13	81.9435	1,932.13	80.4217	1,932.13	77.9186	1,932.13	76.1728	1,932.13	83.6353	1,932.13	70.3138	1,932.13	85.8449	1,932.13	72.6764	1,932.13	85.2031	1,932.13	77.669	1,932.13	83.0485	1,932.13	76.7807	1,932.13	80.6574	1,932.13	75.2437	1,932.13	80.8273	1,932.13	75.0352	1,932.13	78.22	1,932.13	76.2164	1,932.13	70.6999	1,932.13	76.7685	1,932.13	78.9393	1,932.13	73.3332	1,932.13	77.18	1,932.13	69.3418	1,932.13	74.1413	1,932.13	69.1688	1,932.13	75.0925	1,932.13	67.1723	1,932.13	60.7077	1,932.13	70.0411	1,932.13	75.6576	1,932.13	74.6476
1,999.51	88.6449	1,999.51	87.5268	1,999.51	86.9	1,999.51	84.8965	1,999.51	80.9511	1,999.51	80.52	1,999.51	78.0999	1,999.51	68.9477	1,999.51	83.389	1,999.51	75.0946	1,999.51	85.137	1,999.51	77.1978	1,999.51	85.182	1,999.51	76.9678	1,999.51	84.6882	1,999.51	78.2262	1,999.51	81.9614	1,999.51	78.4328	1,999.51	80.8622	1,999.51	78.2718	1,999.51	81.1	1,999.51	74.4208	1,999.51	71.7971	1,999.51	74.1209	1,999.51	75.9978	1,999.51	72.2453	1,999.51	79.1322	1,999.51	68.3006	1,999.51	75.1747	1,999.51	70.3818	1,999.51	75.8831	1,999.51	67.9597	1,999.51	63.8558	1,999.51	70.9525	1,999.51	75.3916	1,999.51	72.6135
2,069.82	87.8484	2,069.82	88.1581	2,069.82	85.9401	2,069.82	85.299	2,069.82	80.6628	2,069.82	75.5828	2,069.82	75.7755	2,069.82	73.189	2,069.82	84.2813	2,069.82	76.3116	2,069.82	84.618	2,069.82	78.5055	2,069.82	84.5785	2,069.82	79.2299	2,069.82	84.7543	2,069.82	76.4743	2,069.82	83.1011	2,069.82	75.4087	2,069.82	80.1267	2,069.82	74.1161	2,069.82	80.6052	2,069.82	60.9416	2,069.82	78.7333	2,069.82	67.6545	2,069.82	73.5004	2,069.82	67.166	2,069.82	77.2898	2,069.82	70.3096	2,069.82	77.4222	2,069.82	72.0479	2,069.82	69.5625	2,069.82	65.0313	2,069.82	66.1783	2,069.82	69.1605	2,069.82	73.8682	2,069.82	73.1226
2,143.07	87.9597	2,143.07	87.2487	2,143.07	86.0257	2,143.07	83.8692	2,143.07	77.2416	2,143.07	73.1553	2,143.07	77.1501	2,143.07	75.1323	2,143.07	82.3941	2,143.07	79.0955	2,143.07	85.5538	2,143.07	79.0095	2,143.07	86.2342	2,143.07	78.2286	2,143.07	83.9843	2,143.07	75.6731	2,143.07	81.0539	2,143.07	72.0474	2,143.07	75.6365	2,143.07	70.1356	2,143.07	78.774	2,143.07	74.0415	2,143.07	79.7519	2,143.07	74.2743	2,143.07	77.2719	2,143.07	69.6968	2,143.07	69.7981	2,143.07	75.834	2,143.07	75.4152	2,143.07	72.5128	2,143.07	72.7003	2,143.07	62.3246	2,143.07	68.4934	2,143.07	64.7612	2,143.07	74.006	2,143.07	71.7485
2,219.24	88.5567	2,219.24	87.2262	2,219.24	86.474	2,219.24	82.7778	2,219.24	78.2424	2,219.24	72.6466	2,219.24	74.9867	2,219.24	76.6548	2,219.24	83.2449	2,219.24	81.4848	2,219.24	85.6251	2,219.24	81.3375	2,219.24	84.7472	2,219.24	78.8759	2,219.24	81.9807	2,219.24	79.5268	2,219.24	80.6088	2,219.24	78.8962	2,219.24	78.2851	2,219.24	77.5004	2,219.24	71.4394	2,219.24	81.1954	2,219.24	76.9921	2,219.24	80.2245	2,219.24	74.2539	2,219.24	76.0587	2,219.24	77.0854	2,219.24	73.7055	2,219.24	68.8028	2,219.24	70.9349	2,219.24	71.3899	2,219.24	55.5104	2,219.24	70.6302	2,219.24	69.7535	2,219.24	76.1841	2,219.24	66.6962
2,296.88	87.2501	2,296.88	86.3499	2,296.88	85.8208	2,296.88	82.9758	2,296.88	79.1811	2,296.88	76.1033	2,296.88	73.3618	2,296.88	78.9334	2,296.88	83.0667	2,296.88	81.7132	2,296.88	85.1691	2,296.88	82.0635	2,296.88	84.8892	2,296.88	81.1152	2,296.88	83.0602	2,296.88	77.9286	2,296.88	81.004	2,296.88	76.1698	2,296.88	80.2892	2,296.88	74.5287	2,296.88	71.1343	2,296.88	74.5314	2,296.88	73.9932	2,296.88	77.7872	2,296.88	76.7302	2,296.88	75.6558	2,296.88	75.7913	2,296.88	71.5012	2,296.88	74.9307	2,296.88	72.0364	2,296.88	62.4733	2,296.88	67.2184	2,296.88	70.5732	2,296.88	72.0039	2,296.88	74.5284	2,296.88	70.2817
2,378.91	87.5857	2,378.91	86.9826	2,378.91	84.6788	2,378.91	83.0663	2,378.91	78.3564	2,378.91	74.6901	2,378.91	69.163	2,378.91	82.1071	2,378.91	83.6657	2,378.91	83.7225	2,378.91	86.0322	2,378.91	80.9452	2,378.91	85.2185	2,378.91	79.4946	2,378.91	83.8807	2,378.91	77.9999	2,378.91	82.6413	2,378.91	75.8136	2,378.91	80.7256	2,378.91	76.311	2,378.91	76.9023	2,378.91	73.1668	2,378.91	70.2251	2,378.91	70.7486	2,378.91	76.0625	2,378.91	73.0117	2,378.91	74.7739	2,378.91	68.0687	2,378.91	74.1948	2,378.91	71.3433	2,378.91	69.2309	2,378.91	70.0193	2,378.91	68.9446	2,378.91	70.2061	2,378.91	69.1383	2,378.91	71.9616
2,462.4	87.1647	2,462.4	87.4452	2,462.4	84.7952	2,462.4	82.4297	2,462.4	79.6053	2,462.4	79.5016	2,462.4	71.9397	2,462.4	82.0676	2,462.4	83.0522	2,462.4	82.2523	2,462.4	85.8745	2,462.4	82.8749	2,462.4	85.7152	2,462.4	81.1406	2,462.4	84.0064	2,462.4	78.7731	2,462.4	81.5152	2,462.4	75.774	2,462.4	79.8925	2,462.4	74.9552	2,462.4	76.9511	2,462.4	75.0623	2,462.4	73.8371	2,462.4	72.1307	2,462.4	73.7728	2,462.4	74.3648	2,462.4	75.2382	2,462.4	72.6756	2,462.4	73.3462	2,462.4	70.7389	2,462.4	61.1933	2,462.4	66.9353	2,462.4	60.4091	2,462.4	71.0024	2,462.4	73.9361	2,462.4	73.3925
2,548.83	86.7158	2,548.83	86.3513	2,548.83	82.8628	2,548.83	82.0943	2,548.83	78.3526	2,548.83	81.0725	2,548.83	74.2687	2,548.83	81.2509	2,548.83	82.4604	2,548.83	83.8133	2,548.83	85.5881	2,548.83	82.3854	2,548.83	85.6478	2,548.83	80.3402	2,548.83	83.935	2,548.83	79.9266	2,548.83	81.0294	2,548.83	77.0569	2,548.83	78.9499	2,548.83	75.5666	2,548.83	72.9842	2,548.83	75.7753	2,548.83	71.7533	2,548.83	72.2243	2,548.83	75.3244	2,548.83	73.4488	2,548.83	75.2809	2,548.83	73.4638	2,548.83	74.4976	2,548.83	71.3903	2,548.83	59.4161	2,548.83	68.1809	2,548.83	64.5014	2,548.83	69.3062	2,548.83	71.7305	2,548.83	71.2276
2,639.65	86.5097	2,639.65	85.701	2,639.65	82.9135	2,639.65	82.6867	2,639.65	76.4039	2,639.65	79.6759	2,639.65	76.3883	2,639.65	82.7685	2,639.65	81.6371	2,639.65	83.7181	2,639.65	85.9723	2,639.65	82.9034	2,639.65	85.9784	2,639.65	81.1123	2,639.65	84.0288	2,639.65	79.7932	2,639.65	81.9691	2,639.65	79.2477	2,639.65	79.2526	2,639.65	77.0171	2,639.65	77.2113	2,639.65	77.0119	2,639.65	70.3019	2,639.65	74.1443	2,639.65	74.307	2,639.65	73.1574	2,639.65	74.902	2,639.65	73.6561	2,639.65	73.9539	2,639.65	70.9334	2,639.65	65.2815	2,639.65	68.3374	2,639.65	57.0589	2,639.65	70.1503	2,639.65	72.3249	2,639.65	73.0312
2,731.93	86.0213	2,731.93	86.2535	2,731.93	83.3783	2,731.93	83.4854	2,731.93	78.0397	2,731.93	81.305	2,731.93	77.8239	2,731.93	83.5828	2,731.93	81.7795	2,731.93	84.0786	2,731.93	85.3546	2,731.93	84.3842	2,731.93	86.2237	2,731.93	83.3924	2,731.93	83.9638	2,731.93	80.6338	2,731.93	80.6082	2,731.93	77.461	2,731.93	74.2271	2,731.93	76.1165	2,731.93	71.4614	2,731.93	76.0709	2,731.93	74.7727	2,731.93	73.7524	2,731.93	76.6162	2,731.93	73.5294	2,731.93	75.6491	2,731.93	73.7457	2,731.93	72.4177	2,731.93	71.3726	2,731.93	64.5878	2,731.93	69.353	2,731.93	67.6363	2,731.93	70.0143	2,731.93	74.2343	2,731.93	72.5635
2,828.61	85.4683	2,828.61	86.1078	2,828.61	81.7137	2,828.61	82.6197	2,828.61	79.7979	2,828.61	82.5327	2,828.61	80.3863	2,828.61	84.3787	2,828.61	82.415	2,828.61	84.985	2,828.61	85.2027	2,828.61	84.8002	2,828.61	85.7756	2,828.61	83.0646	2,828.61	84.258	2,828.61	80.665	2,828.61	81.8053	2,828.61	78.7678	2,828.61	77.5698	2,828.61	76.6332	2,828.61	73.5765	2,828.61	76.6714	2,828.61	73.4448	2,828.61	74.7335	2,828.61	77.1513	2,828.61	74.2339	2,828.61	75.2724	2,828.61	75.422	2,828.61	73.2732	2,828.61	72.5852	2,828.61	63.8801	2,828.61	69.429	2,828.61	68.6728	2,828.61	69.6271	2,828.61	73.5995	2,828.61	73.8213
2,928.22	86.0609	2,928.22	86.0966	2,928.22	82.0624	2,928.22	82.9495	2,928.22	79.3631	2,928.22	82.589	2,928.22	82.332	2,928.22	85.4559	2,928.22	83.0692	2,928.22	86.5363	2,928.22	84.9139	2,928.22	85.6234	2,928.22	86.4101	2,928.22	83.3526	2,928.22	85.6097	2,928.22	81.2867	2,928.22	81.5142	2,928.22	80.6573	2,928.22	75.1187	2,928.22	77.6149	2,928.22	75.1002	2,928.22	76.0985	2,928.22	78.179	2,928.22	74.6885	2,928.22	76.7496	2,928.22	72.9763	2,928.22	74.9111	2,928.22	74.6401	2,928.22	67.4096	2,928.22	71.922	2,928.22	69.6256	2,928.22	69.9934	2,928.22	68.827	2,928.22	70.0241	2,928.22	71.9434	2,928.22	71.0362
3,030.76	85.8182	3,030.76	85.7868	3,030.76	81.695	3,030.76	82.5085	3,030.76	79.9702	3,030.76	82.8773	3,030.76	83.4475	3,030.76	85.7264	3,030.76	83.9283	3,030.76	86.4375	3,030.76	84.9317	3,030.76	84.8719	3,030.76	86.1059	3,030.76	83.3985	3,030.76	85.5651	3,030.76	80.2413	3,030.76	81.8923	3,030.76	75.8968	3,030.76	76.9311	3,030.76	73.8336	3,030.76	75.6072	3,030.76	73.6315	3,030.76	79.6419	3,030.76	73.0615	3,030.76	77.2764	3,030.76	70.429	3,030.76	75.0112	3,030.76	73.3917	3,030.76	71.5228	3,030.76	72.2426	3,030.76	69.4326	3,030.76	69.3242	3,030.76	68.4517	3,030.76	69.9214	3,030.76	71.2515	3,030.76	72.5129
3,137.7	85.6872	3,137.7	85.1987	3,137.7	81.5103	3,137.7	82.0363	3,137.7	80.5172	3,137.7	83.1616	3,137.7	84.3046	3,137.7	86.4531	3,137.7	83.6325	3,137.7	86.1405	3,137.7	84.9988	3,137.7	84.6265	3,137.7	86.1139	3,137.7	81.7643	3,137.7	84.673	3,137.7	76.4338	3,137.7	80.8398	3,137.7	77.4288	3,137.7	79.2962	3,137.7	76.4862	3,137.7	74.7567	3,137.7	74.0398	3,137.7	78.8419	3,137.7	72.7606	3,137.7	76.8519	3,137.7	70.6493	3,137.7	74.3776	3,137.7	71.2951	3,137.7	68.1205	3,137.7	71.0657	3,137.7	67.7637	3,137.7	67.8525	3,137.7	69.3732	3,137.7	70.3625	3,137.7	69.5305	3,137.7	72.9487
3,249.02	85.7978	3,249.02	85.1993	3,249.02	82.4091	3,249.02	81.6831	3,249.02	79.5046	3,249.02	83.8491	3,249.02	85.1974	3,249.02	86.5791	3,249.02	83.8772	3,249.02	85.8073	3,249.02	83.8752	3,249.02	82.3825	3,249.02	85.9925	3,249.02	79.5478	3,249.02	84.2036	3,249.02	80.434	3,249.02	81.453	3,249.02	78.4419	3,249.02	80.653	3,249.02	74.3931	3,249.02	76.3283	3,249.02	73.1752	3,249.02	78.4446	3,249.02	72.0521	3,249.02	74.4557	3,249.02	68.7039	3,249.02	73.8483	3,249.02	71.2916	3,249.02	70.7923	3,249.02	69.6916	3,249.02	67.0695	3,249.02	68.2789	3,249.02	63.6994	3,249.02	66.8552	3,249.02	70.0693	3,249.02	72.0398
3,363.28	85.999	3,363.28	84.9485	3,363.28	83.0831	3,363.28	81.4067	3,363.28	80.3349	3,363.28	84.7528	3,363.28	85.7879	3,363.28	86.3183	3,363.28	84.4278	3,363.28	84.2658	3,363.28	82.9702	3,363.28	82.5358	3,363.28	85.4727	3,363.28	82.1243	3,363.28	85.2345	3,363.28	77.7898	3,363.28	84.1331	3,363.28	74.6138	3,363.28	81.6189	3,363.28	76.4369	3,363.28	76.9672	3,363.28	75.0383	3,363.28	77.4272	3,363.28	73.4922	3,363.28	74.6802	3,363.28	69.0706	3,363.28	70.9173	3,363.28	70.5889	3,363.28	70.2818	3,363.28	70.4748	3,363.28	65.2487	3,363.28	67.4328	3,363.28	59.9767	3,363.28	68.2747	3,363.28	70.9331	3,363.28	71.8446
3,481.93	86.451	3,481.93	84.5995	3,481.93	83.4938	3,481.93	80.4059	3,481.93	81.559	3,481.93	85.3643	3,481.93	86.7835	3,481.93	86.063	3,481.93	84.3771	3,481.93	83.6769	3,481.93	82.2978	3,481.93	83.6996	3,481.93	85.0693	3,481.93	80.708	3,481.93	85.0651	3,481.93	79.5557	3,481.93	85.3776	3,481.93	80.0468	3,481.93	81.8562	3,481.93	76.1407	3,481.93	78.6229	3,481.93	73.4655	3,481.93	76.8354	3,481.93	74.0872	3,481.93	73.8808	3,481.93	70.4028	3,481.93	68.647	3,481.93	69.9877	3,481.93	68.7548	3,481.93	70.5333	3,481.93	67.8759	3,481.93	67.6503	3,481.93	65.2737	3,481.93	67.7808	3,481.93	70.2237	3,481.93	70.9598
3,604.98	87.0324	3,604.98	83.9867	3,604.98	84.8107	3,604.98	80.7176	3,604.98	79.8647	3,604.98	86.2233	3,604.98	87.313	3,604.98	84.8743	3,604.98	85.338	3,604.98	84.8491	3,604.98	80.2009	3,604.98	83.2238	3,604.98	84.7793	3,604.98	82.3919	3,604.98	84.8498	3,604.98	80.7222	3,604.98	84.9397	3,604.98	74.8618	3,604.98	80.1472	3,604.98	75.6555	3,604.98	74.91	3,604.98	74.2091	3,604.98	77.3168	3,604.98	72.4358	3,604.98	74.8805	3,604.98	70.5552	3,604.98	70.2868	3,604.98	70.5766	3,604.98	68.3777	3,604.98	69.5259	3,604.98	68.898	3,604.98	66.6978	3,604.98	65.4953	3,604.98	66.3481	3,604.98	69.4296	3,604.98	71.2961
3,732.42	87.0887	3,732.42	82.3743	3,732.42	85.5304	3,732.42	82.4845	3,732.42	80.9911	3,732.42	85.5073	3,732.42	86.694	3,732.42	84.9363	3,732.42	85.6199	3,732.42	84.736	3,732.42	78.5444	3,732.42	83.5326	3,732.42	84.826	3,732.42	82.3184	3,732.42	84.8562	3,732.42	77.838	3,732.42	83.877	3,732.42	79.1521	3,732.42	78.4443	3,732.42	76.7659	3,732.42	70.3451	3,732.42	72.555	3,732.42	73.9598	3,732.42	72.635	3,732.42	77.1093	3,732.42	70.1845	3,732.42	70.3188	3,732.42	70.5231	3,732.42	66.0897	3,732.42	70.7079	3,732.42	67.1517	3,732.42	65.3374	3,732.42	66.2698	3,732.42	67.2089	3,732.42	69.5112	3,732.42	70.9505
3,864.26	87.4451	3,864.26	82.0359	3,864.26	86.7009	3,864.26	83.4898	3,864.26	81.6559	3,864.26	85.3531	3,864.26	87.1815	3,864.26	85.3659	3,864.26	85.1202	3,864.26	84.9155	3,864.26	78.3389	3,864.26	83.9428	3,864.26	84.14	3,864.26	81.2444	3,864.26	85.1173	3,864.26	81.3808	3,864.26	83.1544	3,864.26	78.6785	3,864.26	77.5136	3,864.26	75.3861	3,864.26	65.3317	3,864.26	73.8953	3,864.26	72.5646	3,864.26	70.8938	3,864.26	76.8468	3,864.26	70.3949	3,864.26	73.2813	3,864.26	70.147	3,864.26	64.0064	3,864.26	70.2817	3,864.26	65.7851	3,864.26	66.0268	3,864.26	64.2707	3,864.26	65.5814	3,864.26	67.9937	3,864.26	71.7538
4,000.49	87.1015	4,000.49	81.4966	4,000.49	86.7899	4,000.49	83.6547	4,000.49	82.2258	4,000.49	85.4824	4,000.49	86.9995	4,000.49	85.2286	4,000.49	85.6737	4,000.49	84.456	4,000.49	79.4087	4,000.49	83.2087	4,000.49	82.3243	4,000.49	82.5508	4,000.49	83.8946	4,000.49	78.7805	4,000.49	81.8298	4,000.49	75.3846	4,000.49	75.2506	4,000.49	75.3434	4,000.49	68.6708	4,000.49	73.2286	4,000.49	71.911	4,000.49	70.9241	4,000.49	76.1552	4,000.49	69.581	4,000.49	72.4494	4,000.49	68.1604	4,000.49	60.579	4,000.49	69.9767	4,000.49	68.5613	4,000.49	64.935	4,000.49	64.3532	4,000.49	63.8815	4,000.49	68.6419	4,000.49	70.472
4,141.11	87.5534	4,141.11	81.7427	4,141.11	87.7208	4,141.11	84.0806	4,141.11	81.8468	4,141.11	85.2928	4,141.11	86.9744	4,141.11	85.3189	4,141.11	85.6894	4,141.11	83.9023	4,141.11	78.1618	4,141.11	84.17	4,141.11	80.9651	4,141.11	80.2843	4,141.11	83.7828	4,141.11	79.3741	4,141.11	79.4287	4,141.11	78.9446	4,141.11	63.1808	4,141.11	75.2869	4,141.11	63.6057	4,141.11	72.8289	4,141.11	73.618	4,141.11	70.0941	4,141.11	74.4655	4,141.11	68.0164	4,141.11	70.1568	4,141.11	67.3772	4,141.11	64.6475	4,141.11	68.9773	4,141.11	69.4278	4,141.11	62.1452	4,141.11	63.3995	4,141.11	66.4693	4,141.11	68.959	4,141.11	68.5328
4,287.6	87.1668	4,287.6	82.9359	4,287.6	88.2415	4,287.6	84.7744	4,287.6	82.4462	4,287.6	86.0372	4,287.6	86.7867	4,287.6	84.4089	4,287.6	85.0927	4,287.6	84.7539	4,287.6	79.5293	4,287.6	82.613	4,287.6	83.507	4,287.6	81.2935	4,287.6	83.8008	4,287.6	79.0804	4,287.6	77.6794	4,287.6	74.3342	4,287.6	71.4816	4,287.6	75.3416	4,287.6	57.3909	4,287.6	73.3761	4,287.6	74.5621	4,287.6	71.3197	4,287.6	76.3543	4,287.6	69.0941	4,287.6	68.7513	4,287.6	65.565	4,287.6	69.5605	4,287.6	68.1333	4,287.6	69.4722	4,287.6	64.3792	4,287.6	66.2574	4,287.6	61.2365	4,287.6	68.9672	4,287.6	67.7383
4,438.48	87.5257	4,438.48	83.0894	4,438.48	88.1372	4,438.48	85.4266	4,438.48	83.3971	4,438.48	85.1427	4,438.48	85.6592	4,438.48	84.8927	4,438.48	85.9049	4,438.48	83.7019	4,438.48	79.2518	4,438.48	83.5045	4,438.48	82.5762	4,438.48	80.9923	4,438.48	82.0453	4,438.48	79.2467	4,438.48	73.1436	4,438.48	79.0039	4,438.48	77.7831	4,438.48	75.0658	4,438.48	60.9536	4,438.48	73.0183	4,438.48	75.0789	4,438.48	71.2402	4,438.48	76.0308	4,438.48	68.6632	4,438.48	69.3818	4,438.48	66.3787	4,438.48	67.0896	4,438.48	67.1009	4,438.48	69.2635	4,438.48	64.3075	4,438.48	62.8715	4,438.48	59.8991	4,438.48	67.8218	4,438.48	70.391
4,595.21	87.3926	4,595.21	83.7408	4,595.21	88.926	4,595.21	85.8947	4,595.21	84.2704	4,595.21	85.602	4,595.21	85.9339	4,595.21	84.4559	4,595.21	86.1957	4,595.21	84.4379	4,595.21	79.4006	4,595.21	82.7447	4,595.21	80.7653	4,595.21	81.4165	4,595.21	78.5626	4,595.21	79.4907	4,595.21	75.7938	4,595.21	75.2394	4,595.21	78.754	4,595.21	75.3715	4,595.21	68.1044	4,595.21	72.5983	4,595.21	70.5685	4,595.21	71.0168	4,595.21	74.4083	4,595.21	68.6664	4,595.21	64.8639	4,595.21	66.209	4,595.21	64.7568	4,595.21	66.9372	4,595.21	64.9681	4,595.21	61.6518	4,595.21	62.6019	4,595.21	57.0467	4,595.21	66.3294	4,595.21	64.8286
4,756.35	87.3528	4,756.35	84.6016	4,756.35	88.3429	4,756.35	86.3181	4,756.35	84.9232	4,756.35	84.9471	4,756.35	85.3917	4,756.35	84.2421	4,756.35	85.6005	4,756.35	83.7435	4,756.35	81.2496	4,756.35	83.8617	4,756.35	78.8791	4,756.35	80.5792	4,756.35	78.1046	4,756.35	80.129	4,756.35	80.1976	4,756.35	77.7025	4,756.35	79.1188	4,756.35	74.2386	4,756.35	69.5857	4,756.35	73.4259	4,756.35	64.8724	4,756.35	71.5528	4,756.35	73.1775	4,756.35	68.1349	4,756.35	67.7843	4,756.35	67.1853	4,756.35	62.3554	4,756.35	64.751	4,756.35	64.65	4,756.35	65.5517	4,756.35	55.9642	4,756.35	59.3025	4,756.35	66.2758	4,756.35	69.0829
4,924.8	86.6516	4,924.8	85.2387	4,924.8	88.2777	4,924.8	86.3445	4,924.8	85.5897	4,924.8	85.0151	4,924.8	84.6508	4,924.8	84.4574	4,924.8	86.0974	4,924.8	84.5983	4,924.8	82.4226	4,924.8	82.9314	4,924.8	77.1707	4,924.8	81.9984	4,924.8	81.5268	4,924.8	79.8819	4,924.8	82.0181	4,924.8	76.3268	4,924.8	79.3326	4,924.8	75.372	4,924.8	70.4538	4,924.8	72.8551	4,924.8	61.5485	4,924.8	69.9196	4,924.8	73.4359	4,924.8	68.77	4,924.8	69.3477	4,924.8	64.7138	4,924.8	52.713	4,924.8	66.6651	4,924.8	55.7364	4,924.8	61.7393	4,924.8	57.0659	4,924.8	46.5993	4,924.8	67.1465	4,924.8	65.7008
5,097.66	87.2929	5,097.66	85.6912	5,097.66	87.5196	5,097.66	86.6913	5,097.66	86.0051	5,097.66	83.9796	5,097.66	84.8636	5,097.66	84.4611	5,097.66	86.5069	5,097.66	84.1592	5,097.66	84.4009	5,097.66	83.9928	5,097.66	76.436	5,097.66	80.7906	5,097.66	84.3022	5,097.66	80.3176	5,097.66	83.1705	5,097.66	76.6121	5,097.66	79.1184	5,097.66	73.9039	5,097.66	72.3024	5,097.66	72.6613	5,097.66	60.4666	5,097.66	69.6129	5,097.66	71.7127	5,097.66	68.8466	5,097.66	68.4617	5,097.66	65.705	5,097.66	57.4736	5,097.66	66.2129	5,097.66	62.7817	5,097.66	64.3425	5,097.66	59.7228	5,097.66	57.4723	5,097.66	66.1343	5,097.66	63.1784
5,277.83	87.301	5,277.83	86.216	5,277.83	87.4585	5,277.83	86.7361	5,277.83	85.7722	5,277.83	83.958	5,277.83	85.1796	5,277.83	84.9172	5,277.83	85.5662	5,277.83	84.4527	5,277.83	85.6138	5,277.83	83.2003	5,277.83	77.8394	5,277.83	80.971	5,277.83	84.9077	5,277.83	78.8472	5,277.83	83.5633	5,277.83	74.6398	5,277.83	76.1188	5,277.83	74.121	5,277.83	75.2	5,277.83	71.7276	5,277.83	56.8554	5,277.83	69.5072	5,277.83	73.2307	5,277.83	66.9885	5,277.83	70.9385	5,277.83	64.5042	5,277.83	37.1073	5,277.83	64.2311	5,277.83	62.6718	5,277.83	62.5116	5,277.83	57.6235	5,277.83	48.3836	5,277.83	65.7068	5,277.83	65.8613
5,463.87	86.6013	5,463.87	86.8184	5,463.87	87.0221	5,463.87	86.2382	5,463.87	85.8895	5,463.87	84.229	5,463.87	86.0208	5,463.87	85.1159	5,463.87	85.0819	5,463.87	84.1224	5,463.87	83.8411	5,463.87	82.9481	5,463.87	77.9024	5,463.87	80.3835	5,463.87	83.7124	5,463.87	79.0519	5,463.87	82.5414	5,463.87	73.4365	5,463.87	74.7854	5,463.87	73.0117	5,463.87	70.971	5,463.87	71.3311	5,463.87	63.5025	5,463.87	69.2756	5,463.87	66.7721	5,463.87	66.0543	5,463.87	67.8853	5,463.87	63.802	5,463.87	59.1355	5,463.87	62.9717	5,463.87	61.4485	5,463.87	62.5764	5,463.87	56.7212	5,463.87	43.9634	5,463.87	64.9651	5,463.87	62.2188
5,657.23	86.8323	5,657.23	86.7457	5,657.23	86.6631	5,657.23	85.8345	5,657.23	85.5062	5,657.23	85.2529	5,657.23	86.2201	5,657.23	85.4571	5,657.23	86.0468	5,657.23	84.0147	5,657.23	83.967	5,657.23	82.3943	5,657.23	77.9191	5,657.23	79.2811	5,657.23	83.393	5,657.23	77.9117	5,657.23	78.9052	5,657.23	74.8781	5,657.23	73.1813	5,657.23	73.9369	5,657.23	68.5835	5,657.23	70.7258	5,657.23	60.4143	5,657.23	70.7953	5,657.23	69.567	5,657.23	66.645	5,657.23	67.1848	5,657.23	66.3199	5,657.23	55.841	5,657.23	64.1885	5,657.23	60.6178	5,657.23	63.8436	5,657.23	56.9983	5,657.23	50.8634	5,657.23	65.3248	5,657.23	62.7969
5,856.45	86.6734	5,856.45	86.6175	5,856.45	86.6541	5,856.45	85.9322	5,856.45	85.3756	5,856.45	85.7447	5,856.45	86.2306	5,856.45	84.814	5,856.45	85.9936	5,856.45	84.4685	5,856.45	84.8835	5,856.45	81.9894	5,856.45	78.4798	5,856.45	80.6733	5,856.45	82.0616	5,856.45	77.961	5,856.45	79.1478	5,856.45	75.1918	5,856.45	73.0388	5,856.45	74.1729	5,856.45	72.9975	5,856.45	71.5723	5,856.45	66.4313	5,856.45	71.6339	5,856.45	65.9246	5,856.45	67.4074	5,856.45	61.2882	5,856.45	66.5065	5,856.45	59.551	5,856.45	65.0485	5,856.45	53.2462	5,856.45	64.6134	5,856.45	62.0344	5,856.45	57.0538	5,856.45	64.8466	5,856.45	62.1424
6,062.99	86.374	6,062.99	86.0975	6,062.99	86.0981	6,062.99	86.2673	6,062.99	85.2162	6,062.99	85.0005	6,062.99	85.6829	6,062.99	84.3313	6,062.99	86.1688	6,062.99	84.6289	6,062.99	85.2101	6,062.99	82.329	6,062.99	77.9723	6,062.99	81.2534	6,062.99	79.8597	6,062.99	78.4286	6,062.99	81.4367	6,062.99	75.344	6,062.99	78.4814	6,062.99	72.2006	6,062.99	75.9042	6,062.99	71.1667	6,062.99	67.0914	6,062.99	69.8713	6,062.99	65.7662	6,062.99	66.1909	6,062.99	67.9551	6,062.99	65.7789	6,062.99	64.7477	6,062.99	63.8792	6,062.99	62.1063	6,062.99	64.3166	6,062.99	59.6233	6,062.99	57.7892	6,062.99	61.431	6,062.99	61.999
6,276.86	85.766	6,276.86	86.1513	6,276.86	85.9717	6,276.86	86.2203	6,276.86	85.1631	6,276.86	84.4005	6,276.86	84.9315	6,276.86	85.094	6,276.86	85.2373	6,276.86	84.082	6,276.86	85.1557	6,276.86	82.5368	6,276.86	76.7931	6,276.86	79.4668	6,276.86	79.6401	6,276.86	76.9357	6,276.86	82.2768	6,276.86	74.7887	6,276.86	79.4679	6,276.86	70.8302	6,276.86	77.0194	6,276.86	71.1037	6,276.86	60.5243	6,276.86	68.6773	6,276.86	70.4341	6,276.86	65.2779	6,276.86	68.186	6,276.86	65.4203	6,276.86	63.5593	6,276.86	64.3141	6,276.86	63.2542	6,276.86	64.5728	6,276.86	57.3671	6,276.86	59.19	6,276.86	60.7615	6,276.86	55.9614
6,498.05	85.575	6,498.05	86.3529	6,498.05	85.7251	6,498.05	85.4072	6,498.05	84.7994	6,498.05	84.74	6,498.05	84.9237	6,498.05	84.8629	6,498.05	83.8859	6,498.05	83.8688	6,498.05	83.7163	6,498.05	82.6887	6,498.05	77.4136	6,498.05	79.8647	6,498.05	78.464	6,498.05	77.8128	6,498.05	81.4091	6,498.05	74.253	6,498.05	79.0797	6,498.05	72.3701	6,498.05	76.2687	6,498.05	71.4228	6,498.05	57.4854	6,498.05	69.5231	6,498.05	66.9242	6,498.05	66.0516	6,498.05	68.5038	6,498.05	65.0363	6,498.05	63.0927	6,498.05	65.7177	6,498.05	58.047	6,498.05	65.1056	6,498.05	51.1443	6,498.05	59.7921	6,498.05	59.1824	6,498.05	52.1126
6,726.56	85.5781	6,726.56	86.7435	6,726.56	86.2722	6,726.56	85.2628	6,726.56	85.1	6,726.56	85.1551	6,726.56	85.2354	6,726.56	83.7318	6,726.56	83.8124	6,726.56	84.486	6,726.56	83.0627	6,726.56	82.998	6,726.56	80.6549	6,726.56	81.2322	6,726.56	75.1559	6,726.56	77.5349	6,726.56	78.9954	6,726.56	73.631	6,726.56	76.7777	6,726.56	71.6334	6,726.56	74.3346	6,726.56	69.6338	6,726.56	64.4783	6,726.56	68.5055	6,726.56	66.2402	6,726.56	65.4804	6,726.56	69.2437	6,726.56	65.2665	6,726.56	67.3279	6,726.56	65.5974	6,726.56	59.3888	6,726.56	64.4154	6,726.56	54.6885	6,726.56	59.7536	6,726.56	62.9555	6,726.56	54.68
6,963.87	85.9455	6,963.87	86.7683	6,963.87	86.4856	6,963.87	85.734	6,963.87	85.9382	6,963.87	84.4071	6,963.87	84.9046	6,963.87	83.5916	6,963.87	84.0349	6,963.87	85.0034	6,963.87	84.264	6,963.87	82.8415	6,963.87	82.8682	6,963.87	80.1393	6,963.87	75.533	6,963.87	75.8561	6,963.87	71.7377	6,963.87	73.1451	6,963.87	69.729	6,963.87	69.6829	6,963.87	76.3144	6,963.87	69.159	6,963.87	65.7421	6,963.87	67.6616	6,963.87	68.1645	6,963.87	62.9728	6,963.87	63.1493	6,963.87	65.4952	6,963.87	66.087	6,963.87	63.9201	6,963.87	63.2741	6,963.87	63.2346	6,963.87	55.9169	6,963.87	60.4121	6,963.87	59.0585	6,963.87	57.1401
7,209.96	86.0931	7,209.96	87.1384	7,209.96	86.6544	7,209.96	85.6043	7,209.96	86.0941	7,209.96	83.7758	7,209.96	84.7195	7,209.96	84.2484	7,209.96	84.6948	7,209.96	84.6089	7,209.96	84.7097	7,209.96	82.3685	7,209.96	82.846	7,209.96	79.3694	7,209.96	71.4462	7,209.96	75.8625	7,209.96	71.1141	7,209.96	72.3136	7,209.96	72.0882	7,209.96	69.006	7,209.96	74.269	7,209.96	69.4062	7,209.96	60.2972	7,209.96	68.3495	7,209.96	62.5602	7,209.96	63.9804	7,209.96	51.2358	7,209.96	65.9549	7,209.96	62.4802	7,209.96	63.3887	7,209.96	61.6605	7,209.96	64.7327	7,209.96	53.3841	7,209.96	60.9337	7,209.96	57.5463	7,209.96	56.0265
7,464.84	86.1626	7,464.84	87.0932	7,464.84	86.3562	7,464.84	85.2842	7,464.84	86.3601	7,464.84	84.1284	7,464.84	84.362	7,464.84	84.1915	7,464.84	83.8671	7,464.84	83.9257	7,464.84	83.8919	7,464.84	82.3999	7,464.84	82.5722	7,464.84	78.864	7,464.84	69.603	7,464.84	74.671	7,464.84	75.1881	7,464.84	72.4495	7,464.84	72.9569	7,464.84	68.779	7,464.84	69.1017	7,464.84	69.219	7,464.84	60.2511	7,464.84	67.3691	7,464.84	60.414	7,464.84	64.2698	7,464.84	55.7039	7,464.84	66.7206	7,464.84	63.2337	7,464.84	64.527	7,464.84	59.2163	7,464.84	64.201	7,464.84	50.9098	7,464.84	61.4169	7,464.84	59.4889	7,464.84	53.0226
7,727.05	86.7683	7,727.05	86.8659	7,727.05	86.1952	7,727.05	85.5413	7,727.05	86.2083	7,727.05	84.4264	7,727.05	84.6059	7,727.05	83.3497	7,727.05	84.431	7,727.05	83.8202	7,727.05	82.5368	7,727.05	81.4969	7,727.05	80.9508	7,727.05	78.5104	7,727.05	76.369	7,727.05	74.8766	7,727.05	79.7343	7,727.05	71.4881	7,727.05	75.6708	7,727.05	68.2857	7,727.05	62.2598	7,727.05	68.7111	7,727.05	62.9053	7,727.05	66.1652	7,727.05	60.0726	7,727.05	64.5027	7,727.05	57.9257	7,727.05	66.0582	7,727.05	62.4814	7,727.05	63.0853	7,727.05	58.487	7,727.05	64.0824	7,727.05	55.4546	7,727.05	60.1222	7,727.05	58.7281	7,727.05	54.663
7,999.51	87.2548	7,999.51	86.7648	7,999.51	86.5721	7,999.51	85.994	7,999.51	85.93	7,999.51	83.8679	7,999.51	84.5409	7,999.51	83.9122	7,999.51	83.896	7,999.51	83.0069	7,999.51	82.8076	7,999.51	81.1178	7,999.51	81.1516	7,999.51	78.85	7,999.51	75.9169	7,999.51	74.8086	7,999.51	80.4014	7,999.51	71.2774	7,999.51	76.8182	7,999.51	67.02	7,999.51	65.3929	7,999.51	68.9474	7,999.51	59.4181	7,999.51	66.0617	7,999.51	57.3222	7,999.51	64.3633	7,999.51	58.388	7,999.51	66.1831	7,999.51	56.7879	7,999.51	64.1582	7,999.51	50.572	7,999.51	64.7915	7,999.51	54.9062	7,999.51	62.1958	7,999.51	53.1602	7,999.51	54.4574
8,282.23	87.4581	8,282.23	87.2968	8,282.23	87.4146	8,282.23	86.0424	8,282.23	86.0344	8,282.23	84.564	8,282.23	84.385	8,282.23	83.0561	8,282.23	83.6915	8,282.23	82.1617	8,282.23	82.8428	8,282.23	81.6793	8,282.23	81.4128	8,282.23	78.6995	8,282.23	77.5757	8,282.23	76.0454	8,282.23	78.5935	8,282.23	71.4858	8,282.23	74.8635	8,282.23	68.1448	8,282.23	66.8601	8,282.23	67.9042	8,282.23	54.2253	8,282.23	65.6319	8,282.23	35.5712	8,282.23	62.7265	8,282.23	51.8767	8,282.23	65.6919	8,282.23	54.1735	8,282.23	63.79	8,282.23	47.6915	8,282.23	65.046	8,282.23	53.6862	8,282.23	62.2552	8,282.23	57.6957	8,282.23	52.4823
8,573.73	87.8287	8,573.73	87.3405	8,573.73	87.6309	8,573.73	86.3057	8,573.73	86.4744	8,573.73	84.9059	8,573.73	84.2988	8,573.73	81.7379	8,573.73	83.1645	8,573.73	82.4759	8,573.73	83.1777	8,573.73	80.8781	8,573.73	82.3367	8,573.73	78.757	8,573.73	76.1755	8,573.73	75.0225	8,573.73	75.6028	8,573.73	71.1064	8,573.73	70.5759	8,573.73	67.4615	8,573.73	67.4112	8,573.73	66.7258	8,573.73	54.9752	8,573.73	64.1524	8,573.73	56.8428	8,573.73	60.799	8,573.73	52.5644	8,573.73	64.6988	8,573.73	58.8672	8,573.73	62.4879	8,573.73	49.612	8,573.73	63.6379	8,573.73	52.6624	8,573.73	62.0443	8,573.73	55.317	8,573.73	54.1467
8,876.95	88.0111	8,876.95	87.1654	8,876.95	87.6458	8,876.95	87.0845	8,876.95	86.8605	8,876.95	84.3815	8,876.95	85.129	8,876.95	81.908	8,876.95	83.0812	8,876.95	81.7598	8,876.95	83.672	8,876.95	81.0322	8,876.95	82.9668	8,876.95	78.2484	8,876.95	75.222	8,876.95	74.3849	8,876.95	71.5274	8,876.95	70.102	8,876.95	69.4744	8,876.95	65.6312	8,876.95	69.0229	8,876.95	66.5069	8,876.95	58.7948	8,876.95	63.7101	8,876.95	57.8282	8,876.95	61.5272	8,876.95	54.7092	8,876.95	64.548	8,876.95	59.5493	8,876.95	62.0142	8,876.95	46.4877	8,876.95	64.4148	8,876.95	51.2444	8,876.95	62.4886	8,876.95	54.0271	8,876.95	52.072
9,188.96	87.9117	9,188.96	87.4036	9,188.96	87.7125	9,188.96	87.2423	9,188.96	86.5165	9,188.96	84.8201	9,188.96	85.6057	9,188.96	81.5597	9,188.96	83.3059	9,188.96	81.9492	9,188.96	83.1684	9,188.96	81.0447	9,188.96	83.2657	9,188.96	77.1084	9,188.96	72.914	9,188.96	73.7409	9,188.96	65.0604	9,188.96	69.2762	9,188.96	68.0547	9,188.96	65.1104	9,188.96	66.1589	9,188.96	65.979	9,188.96	59.2389	9,188.96	62.7651	9,188.96	56.9174	9,188.96	61.4181	9,188.96	56.0537	9,188.96	63.3383	9,188.96	59.4517	9,188.96	61.0075	9,188.96	39.7206	9,188.96	64.0177	9,188.96	57.1592	9,188.96	61.1357	9,188.96	47.8192	9,188.96	54.1094
9,514.16	87.7667	9,514.16	87.4377	9,514.16	87.6774	9,514.16	87.1774	9,514.16	86.5546	9,514.16	84.7966	9,514.16	85.5526	9,514.16	81.8968	9,514.16	83.1332	9,514.16	82.5018	9,514.16	82.1348	9,514.16	79.898	9,514.16	81.7279	9,514.16	76.5583	9,514.16	72.884	9,514.16	71.7487	9,514.16	74.2645	9,514.16	69.2563	9,514.16	69.6808	9,514.16	64.2571	9,514.16	64.6644	9,514.16	65.6864	9,514.16	58.4485	9,514.16	61.8621	9,514.16	54.1255	9,514.16	61.7623	9,514.16	56.9875	9,514.16	62.9836	9,514.16	59.4241	9,514.16	60.8109	9,514.16	42.3119	9,514.16	63.7879	9,514.16	52.9528	9,514.16	60.5977	9,514.16	48.2104	9,514.16	55.431
9,849.61	87.7303	9,849.61	87.2716	9,849.61	87.6155	9,849.61	86.985	9,849.61	86.9215	9,849.61	84.5317	9,849.61	85.483	9,849.61	82.4265	9,849.61	82.1901	9,849.61	81.8982	9,849.61	81.9474	9,849.61	79.9498	9,849.61	79.6219	9,849.61	75.649	9,849.61	74.716	9,849.61	72.985	9,849.61	75.2605	9,849.61	69.0677	9,849.61	69.6332	9,849.61	65.0369	9,849.61	66.6321	9,849.61	65.8749	9,849.61	58.3224	9,849.61	61.7332	9,849.61	52.2131	9,849.61	62.4251	9,849.61	57.9264	9,849.61	62.2111	9,849.61	62.4669	9,849.61	61.8374	9,849.61	40.274	9,849.61	64.3776	9,849.61	56.4715	9,849.61	61.0141	9,849.61	53.5134	9,849.61	50.5443
10,196.8	87.4775	10,196.8	87.4988	10,196.8	87.6036	10,196.8	86.5112	10,196.8	86.9954	10,196.8	84.7324	10,196.8	85.075	10,196.8	82.1922	10,196.8	81.9954	10,196.8	81.6864	10,196.8	81.0869	10,196.8	78.8178	10,196.8	77.999	10,196.8	76.1754	10,196.8	76.4367	10,196.8	72.2124	10,196.8	73.2363	10,196.8	68.6114	10,196.8	63.1296	10,196.8	63.9923	10,196.8	59.3513	10,196.8	65.1705	10,196.8	51.1153	10,196.8	60.6396	10,196.8	53.8605	10,196.8	62.0889	10,196.8	55.344	10,196.8	61.9826	10,196.8	62.341	10,196.8	59.8833	10,196.8	45.9858	10,196.8	63.2495	10,196.8	54.3284	10,196.8	59.1354	10,196.8	50.2161	10,196.8	52.1794
10,555.7	87.3937	10,555.7	87.6896	10,555.7	87.321	10,555.7	86.346	10,555.7	87.0227	10,555.7	84.6481	10,555.7	84.5128	10,555.7	82.1774	10,555.7	82.8077	10,555.7	80.7852	10,555.7	81.4442	10,555.7	78.7983	10,555.7	77.0521	10,555.7	76.5943	10,555.7	74.1544	10,555.7	72.4142	10,555.7	71.7001	10,555.7	68.4483	10,555.7	60.9204	10,555.7	63.5274	10,555.7	62.4189	10,555.7	64.1084	10,555.7	57.0989	10,555.7	60.112	10,555.7	56.9637	10,555.7	61.8057	10,555.7	56.7864	10,555.7	61.5844	10,555.7	59.671	10,555.7	58.0652	10,555.7	49.2768	10,555.7	62.9154	10,555.7	55.1014	10,555.7	59.6797	10,555.7	53.2686	10,555.7	51.2117
10,927.7	87.5652	10,927.7	87.8786	10,927.7	87.2742	10,927.7	86.3145	10,927.7	86.7139	10,927.7	85.1363	10,927.7	84.4625	10,927.7	81.2759	10,927.7	83.2124	10,927.7	80.2977	10,927.7	80.4795	10,927.7	78.8864	10,927.7	74.6637	10,927.7	76.1325	10,927.7	73.0823	10,927.7	71.195	10,927.7	70.446	10,927.7	66.6311	10,927.7	63.1546	10,927.7	63.5729	10,927.7	60.2778	10,927.7	63.4455	10,927.7	56.4389	10,927.7	59.1563	10,927.7	54.8931	10,927.7	60.9943	10,927.7	58.6067	10,927.7	60.5182	10,927.7	61.5	10,927.7	56.2098	10,927.7	46.3051	10,927.7	61.6612	10,927.7	54.5997	10,927.7	58.7234	10,927.7	54.3585	10,927.7	52.8341
11,313	88.1958	11,313	88.1471	11,313	87.4953	11,313	86.3561	11,313	86.7457	11,313	85.2113	11,313	84.673	11,313	81.0626	11,313	83.4694	11,313	79.9136	11,313	78.2126	11,313	77.8921	11,313	72.086	11,313	75.2624	11,313	75.6418	11,313	69.8879	11,313	71.1508	11,313	66.3355	11,313	56.3063	11,313	62.1987	11,313	62.5596	11,313	62.2768	11,313	51.297	11,313	60.027	11,313	56.407	11,313	60.8288	11,313	54.7708	11,313	58.4518	11,313	61.6255	11,313	56.6211	11,313	47.9429	11,313	61.3832	11,313	53.2898	11,313	55.8584	11,313	55.9995	11,313	50.2012
11,712.9	88.6527	11,712.9	88.1381	11,712.9	87.6647	11,712.9	86.3666	11,712.9	86.9286	11,712.9	85.0131	11,712.9	84.7024	11,712.9	81.3381	11,712.9	82.4684	11,712.9	79.56	11,712.9	77.2093	11,712.9	77.2312	11,712.9	77.516	11,712.9	73.0941	11,712.9	76.4376	11,712.9	68.4822	11,712.9	68.2957	11,712.9	65.4693	11,712.9	61.1867	11,712.9	62.7629	11,712.9	65.2684	11,712.9	61.0122	11,712.9	55.8496	11,712.9	59.824	11,712.9	59.3562	11,712.9	60.3327	11,712.9	60.3236	11,712.9	55.189	11,712.9	60.5334	11,712.9	57.6053	11,712.9	39.7602	11,712.9	60.2082	11,712.9	53.9249	11,712.9	55.6709	11,712.9	58.2084	11,712.9	51.5692
12,126	88.8994	12,126	88.3742	12,126	88.0551	12,126	86.4416	12,126	86.9684	12,126	84.6041	12,126	84.1677	12,126	81.481	12,126	81.2499	12,126	79.6989	12,126	78.1198	12,126	76.5486	12,126	78.5315	12,126	73.2135	12,126	73.3847	12,126	68.8624	12,126	63.5563	12,126	65.7695	12,126	58.5166	12,126	62.7246	12,126	64.3265	12,126	60.1133	12,126	55.7412	12,126	59.2052	12,126	57.272	12,126	59.139	12,126	61.6909	12,126	56.0103	12,126	60.4423	12,126	57.7373	12,126	45.6323	12,126	59.6054	12,126	54.7264	12,126	56.759	12,126	58.3611	12,126	54.9159
12,553.7	88.9964	12,553.7	88.4095	12,553.7	88.4364	12,553.7	86.7275	12,553.7	87.0384	12,553.7	84.4428	12,553.7	84.1437	12,553.7	81.549	12,553.7	80.4531	12,553.7	79.2988	12,553.7	78.395	12,553.7	76.7608	12,553.7	74.9359	12,553.7	74.2852	12,553.7	70.3556	12,553.7	70.3258	12,553.7	61.8191	12,553.7	67.0502	12,553.7	53.0406	12,553.7	63.5924	12,553.7	58.3341	12,553.7	59.8184	12,553.7	54.2728	12,553.7	60.7615	12,553.7	55.1098	12,553.7	56.4888	12,553.7	59.3136	12,553.7	58.1704	12,553.7	57.5003	12,553.7	58.1371	12,553.7	33.4854	12,553.7	60.0568	12,553.7	53.5813	12,553.7	56.577	12,553.7	57.6571	12,553.7	55.874
12,996.1	89.0616	12,996.1	88.244	12,996.1	88.5606	12,996.1	86.6814	12,996.1	87.1017	12,996.1	84.3193	12,996.1	84.7815	12,996.1	81.4574	12,996.1	80.9578	12,996.1	78.5417	12,996.1	79.1242	12,996.1	76.9827	12,996.1	75.7635	12,996.1	74.966	12,996.1	69.4382	12,996.1	69.968	12,996.1	61.7561	12,996.1	67.2338	12,996.1	60.7569	12,996.1	62.6871	12,996.1	59.1721	12,996.1	59.893	12,996.1	52.8358	12,996.1	59.8548	12,996.1	51.0585	12,996.1	51.6846	12,996.1	58.6967	12,996.1	57.4927	12,996.1	54.5525	12,996.1	58.3945	12,996.1	38.9107	12,996.1	59.9534	12,996.1	54.7033	12,996.1	53.4951	12,996.1	57.1583	12,996.1	56.2179
13,454.6	89.0414	13,454.6	88.2513	13,454.6	88.4362	13,454.6	86.3136	13,454.6	87.0726	13,454.6	84.1778	13,454.6	85.094	13,454.6	80.9846	13,454.6	81.1913	13,454.6	78.2296	13,454.6	79.5754	13,454.6	77.1226	13,454.6	77.0335	13,454.6	74.5418	13,454.6	73.8807	13,454.6	69.4833	13,454.6	66.6363	13,454.6	66.2131	13,454.6	58.366	13,454.6	62.0612	13,454.6	63.1152	13,454.6	59.5219	13,454.6	57.8873	13,454.6	59.2046	13,454.6	46.1034	13,454.6	53.0483	13,454.6	56.5979	13,454.6	55.6921	13,454.6	53.4815	13,454.6	58.4106	13,454.6	48.2104	13,454.6	58.9698	13,454.6	54.4724	13,454.6	50.2568	13,454.6	57.4721	13,454.6	55.2262
13,929.2	88.8211	13,929.2	88.4246	13,929.2	88.2835	13,929.2	86.109	13,929.2	86.9317	13,929.2	84.0291	13,929.2	84.8198	13,929.2	80.3664	13,929.2	81.9338	13,929.2	78.7323	13,929.2	79.3459	13,929.2	76.9254	13,929.2	78.0417	13,929.2	73.7345	13,929.2	73.738	13,929.2	69.1936	13,929.2	62.4789	13,929.2	64.9879	13,929.2	58.538	13,929.2	61.0887	13,929.2	61.6345	13,929.2	59.046	13,929.2	50.2563	13,929.2	58.903	13,929.2	49.9238	13,929.2	52.9835	13,929.2	53.5922	13,929.2	55.7765	13,929.2	55.4814	13,929.2	58.7172	13,929.2	51.7068	13,929.2	57.4168	13,929.2	53.0507	13,929.2	52.2155	13,929.2	57.1582	13,929.2	53.285
14,419.9	88.8422	14,419.9	88.7779	14,419.9	88.236	14,419.9	86.4033	14,419.9	86.7497	14,419.9	84.0072	14,419.9	84.344	14,419.9	80.29	14,419.9	80.9536	14,419.9	78.8486	14,419.9	78.6504	14,419.9	76.5615	14,419.9	78.5925	14,419.9	73.6967	14,419.9	69.8079	14,419.9	69.2876	14,419.9	61.6382	14,419.9	64.1565	14,419.9	60.7422	14,419.9	61.2166	14,419.9	60.5343	14,419.9	58.1622	14,419.9	49.2195	14,419.9	58.1177	14,419.9	50.4836	14,419.9	53.9781	14,419.9	46.2529	14,419.9	56.6512	14,419.9	53.3652	14,419.9	59.058	14,419.9	50.5445	14,419.9	56.3865	14,419.9	53.1632	14,419.9	51.5624	14,419.9	57.6181	14,419.9	52.6624
14,928.2	89.0394	14,928.2	89.0599	14,928.2	88.3817	14,928.2	86.7385	14,928.2	86.6219	14,928.2	84.0374	14,928.2	84.0146	14,928.2	80.8769	14,928.2	80.3092	14,928.2	78.8342	14,928.2	77.2152	14,928.2	76.3616	14,928.2	76.063	14,928.2	73.5614	14,928.2	71.0479	14,928.2	69.1947	14,928.2	65.7559	14,928.2	63.6761	14,928.2	57.1097	14,928.2	60.5272	14,928.2	59.7369	14,928.2	56.4128	14,928.2	52.546	14,928.2	57.4519	14,928.2	41.2382	14,928.2	54.516	14,928.2	50.1601	14,928.2	56.1562	14,928.2	51.5541	14,928.2	58.0325	14,928.2	44.8462	14,928.2	54.816	14,928.2	50.5779	14,928.2	50.4146	14,928.2	56.4877	14,928.2	52.0143
15,455.6	89.2421	15,455.6	89.0212	15,455.6	88.7026	15,455.6	86.782	15,455.6	86.797	15,455.6	84.1091	15,455.6	84.0902	15,455.6	81.3939	15,455.6	80.5527	15,455.6	78.5194	15,455.6	76.655	15,455.6	76.5095	15,455.6	74.9384	15,455.6	72.6443	15,455.6	72.9852	15,455.6	68.3367	15,455.6	61.6769	15,455.6	62.7633	15,455.6	57.6836	15,455.6	60.0916	15,455.6	61.038	15,455.6	54.0379	15,455.6	52.1264	15,455.6	58.188	15,455.6	47.6516	15,455.6	50.5218	15,455.6	53.0661	15,455.6	55.0448	15,455.6	50.0506	15,455.6	55.9476	15,455.6	45.6086	15,455.6	55.8994	15,455.6	49.4146	15,455.6	50.7101	15,455.6	55.4461	15,455.6	51.5386
16,000.5	89.2148	16,000.5	88.9278	16,000.5	88.953	16,000.5	86.6977	16,000.5	87.0221	16,000.5	84.1831	16,000.5	84.162	16,000.5	81.4421	16,000.5	81.3261	16,000.5	78.2308	16,000.5	77.4988	16,000.5	76.2183	16,000.5	78.1137	16,000.5	71.6391	16,000.5	70.9418	16,000.5	68.1527	16,000.5	68.7283	16,000.5	61.4402	16,000.5	61.171	16,000.5	58.4302	16,000.5	58.0161	16,000.5	53.7928	16,000.5	55.5943	16,000.5	55.7897	16,000.5	45.7019	16,000.5	49.53	16,000.5	52.4015	16,000.5	53.6678	16,000.5	49.7698	16,000.5	53.6558	16,000.5	50.4093	16,000.5	55.6899	16,000.5	52.1662	16,000.5	49.6121	16,000.5	54.012	16,000.5	53.0297
16,564.5	89.0633	16,564.5	88.9732	16,564.5	88.9781	16,564.5	86.7632	16,564.5	87.1965	16,564.5	84.462	16,564.5	84.3004	16,564.5	81.111	16,564.5	82.046	16,564.5	78.3673	16,564.5	78.2913	16,564.5	75.3386	16,564.5	74.6493	16,564.5	71.9136	16,564.5	69.3715	16,564.5	67.6789	16,564.5	69.0509	16,564.5	61.2001	16,564.5	57.988	16,564.5	57.7235	16,564.5	59.8385	16,564.5	52.7091	16,564.5	53.9864	16,564.5	55.236	16,564.5	26.8209	16,564.5	53.0467	16,564.5	45.5471	16,564.5	50.8231	16,564.5	43.1118	16,564.5	47.6566	16,564.5	47.1531	16,564.5	52.0813	16,564.5	47.5896	16,564.5	46.6827	16,564.5	48.982	16,564.5	49.7193
17,148.9	89.0041	17,148.9	89.016	17,148.9	88.7276	17,148.9	86.7629	17,148.9	87.418	17,148.9	84.637	17,148.9	84.3623	17,148.9	80.8427	17,148.9	81.6076	17,148.9	78.2089	17,148.9	77.8908	17,148.9	74.2467	17,148.9	74.3478	17,148.9	71.8193	17,148.9	70.895	17,148.9	65.7579	17,148.9	64.3618	17,148.9	59.7215	17,148.9	53.6045	17,148.9	55.8238	17,148.9	61.6435	17,148.9	51.9924	17,148.9	48.4031	17,148.9	53.3354	17,148.9	47.0883	17,148.9	51.2026	17,148.9	48.4523	17,148.9	45.8806	17,148.9	22.4291	17,148.9	46.7909	17,148.9	31.3174	17,148.9	49.717	17,148.9	46.7898	17,148.9	48.9404	17,148.9	52.0312	17,148.9	42.7766
17,752.4	89.1623	17,752.4	89.0686	17,752.4	88.5198	17,752.4	86.7361	17,752.4	87.0674	17,752.4	84.5309	17,752.4	84.4353	17,752.4	80.5345	17,752.4	80.7583	17,752.4	77.5325	17,752.4	76.9978	17,752.4	73.428	17,752.4	74.7755	17,752.4	69.6562	17,752.4	70.0064	17,752.4	64.2132	17,752.4	62.6191	17,752.4	57.0848	17,752.4	54.9247	17,752.4	55.5949	17,752.4	60.5664	17,752.4	49.7274	17,752.4	48.418	17,752.4	50.3601	17,752.4	49.9256	17,752.4	49.1526	17,752.4	51.1963	17,752.4	43.2987	17,752.4	38.4336	17,752.4	47.3084	17,752.4	43.1858	17,752.4	48.445	17,752.4	48.8588	17,752.4	48.8679	17,752.4	53.83	17,752.4	47.4246
18,379.4	89.4244	18,379.4	89.2343	18,379.4	88.5711	18,379.4	86.9023	18,379.4	86.714	18,379.4	84.3192	18,379.4	84.3774	18,379.4	80.0357	18,379.4	80.1768	18,379.4	76.7909	18,379.4	75.7813	18,379.4	72.5759	18,379.4	73.2339	18,379.4	67.3922	18,379.4	66.9955	18,379.4	63.9485	18,379.4	59.5793	18,379.4	56.6434	18,379.4	55.3528	18,379.4	54.6213	18,379.4	61.0025	18,379.4	48.1372	18,379.4	54.392	18,379.4	50.5605	18,379.4	51.6134	18,379.4	48.9211	18,379.4	48.9691	18,379.4	42.6834	18,379.4	43.1464	18,379.4	47.5228	18,379.4	44.9639	18,379.4	48.7769	18,379.4	47.703	18,379.4	48.8277	18,379.4	52.7908	18,379.4	50.4333
19,026.9	89.3024	19,026.9	88.9379	19,026.9	88.4948	19,026.9	86.6171	19,026.9	86.4288	19,026.9	83.4873	19,026.9	83.7029	19,026.9	78.9759	19,026.9	79.3153	19,026.9	75.4001	19,026.9	73.9891	19,026.9	71.2276	19,026.9	70.7997	19,026.9	66.8705	19,026.9	65.0501	19,026.9	62.5104	19,026.9	58.4595	19,026.9	55.4782	19,026.9	51.8786	19,026.9	52.4252	19,026.9	59.1836	19,026.9	43.3714	19,026.9	53.4726	19,026.9	49.1111	19,026.9	47.1943	19,026.9	46.9858	19,026.9	39.5186	19,026.9	39.5694	19,026.9	45.0329	19,026.9	48.7944	19,026.9	43.7963	19,026.9	46.9437	19,026.9	44.762	19,026.9	46.1227	19,026.9	50.0326	19,026.9	48.7094
19,697.8	88.6797	19,697.8	88.076	19,697.8	88.0157	19,697.8	85.8279	19,697.8	85.9935	19,697.8	82.4452	19,697.8	82.4267	19,697.8	77.6215	19,697.8	77.8903	19,697.8	74.4538	19,697.8	72.551	19,697.8	70.2594	19,697.8	67.5553	19,697.8	66.6384	19,697.8	64.4608	19,697.8	60.6339	19,697.8	56.0427	19,697.8	54.1969	19,697.8	46.7415	19,697.8	50.4122	19,697.8	58.0983	19,697.8	41.5072	19,697.8	51.052	19,697.8	46.4863	19,697.8	35.7296	19,697.8	45.792	19,697.8	37.6794	19,697.8	33.5155	19,697.8	38.1012	19,697.8	47.4158	19,697.8	35.488	19,697.8	44.8099	19,697.8	42.1973	19,697.8	41.5858	19,697.8	45.5486	19,697.8	47.0493
19,999.5	88.4683	19,999.5	87.9107	19,999.5	87.8139	19,999.5	85.6786	19,999.5	85.7142	19,999.5	82.108	19,999.5	82.1334	19,999.5	77.0736	19,999.5	78.2423	19,999.5	74.3345	19,999.5	72.501	19,999.5	69.7123	19,999.5	67.664	19,999.5	65.5417	19,999.5	64.1852	19,999.5	61.0866	19,999.5	48.7095	19,999.5	55.2027	19,999.5	37.3847	19,999.5	45.332	19,999.5	56.9379	19,999.5	41.3762	19,999.5	50.8522	19,999.5	49.8859	19,999.5	56.1711	19,999.5	50.0755	19,999.5	55.4676	19,999.5	43.0714	19,999.5	31.6201	19,999.5	39.6453	19,999.5	43.8827	19,999.5	47.1097	19,999.5	40.5608	19,999.5	44.5723	19,999.5	46.2875	19,999.5	42.8369
