"SPL Horizontal"																																																																							
"On-Axis"		"10°"		"-10°"		"20°"		"-20°"		"30°"		"-30°"		"40°"		"-40°"		"50°"		"-50°"		"60°"		"-60°"		"70°"		"-70°"		"80°"		"-80°"		"90°"		"-90°"		"100°"		"-100°"		"110°"		"-110°"		"120°"		"-120°"		"130°"		"-130°"		"140°"		"-140°"		"150°"		"-150°"		"160°"		"-160°"		"170°"		"-170°"		"180°"	
"Frequency [Hz]"	"Sound Pessure Level [dB]  / [2.83V 1m] "	"Frequency [Hz]"	"Sound Pessure Level [dB]  / [2.83V 1m] "	"Frequency [Hz]"	"Sound Pessure Level [dB]  / [2.83V 1m] "	"Frequency [Hz]"	"Sound Pessure Level [dB]  / [2.83V 1m] "	"Frequency [Hz]"	"Sound Pessure Level [dB]  / [2.83V 1m] "	"Frequency [Hz]"	"Sound Pessure Level [dB]  / [2.83V 1m] "	"Frequency [Hz]"	"Sound Pessure Level [dB]  / [2.83V 1m] "	"Frequency [Hz]"	"Sound Pessure Level [dB]  / [2.83V 1m] "	"Frequency [Hz]"	"Sound Pessure Level [dB]  / [2.83V 1m] "	"Frequency [Hz]"	"Sound Pessure Level [dB]  / [2.83V 1m] "	"Frequency [Hz]"	"Sound Pessure Level [dB]  / [2.83V 1m] "	"Frequency [Hz]"	"Sound Pessure Level [dB]  / [2.83V 1m] "	"Frequency [Hz]"	"Sound Pessure Level [dB]  / [2.83V 1m] "	"Frequency [Hz]"	"Sound Pessure Level [dB]  / [2.83V 1m] "	"Frequency [Hz]"	"Sound Pessure Level [dB]  / [2.83V 1m] "	"Frequency [Hz]"	"Sound Pessure Level [dB]  / [2.83V 1m] "	"Frequency [Hz]"	"Sound Pessure Level [dB]  / [2.83V 1m] "	"Frequency [Hz]"	"Sound Pessure Level [dB]  / [2.83V 1m] "	"Frequency [Hz]"	"Sound Pessure Level [dB]  / [2.83V 1m] "	"Frequency [Hz]"	"Sound Pessure Level [dB]  / [2.83V 1m] "	"Frequency [Hz]"	"Sound Pessure Level [dB]  / [2.83V 1m] "	"Frequency [Hz]"	"Sound Pessure Level [dB]  / [2.83V 1m] "	"Frequency [Hz]"	"Sound Pessure Level [dB]  / [2.83V 1m] "	"Frequency [Hz]"	"Sound Pessure Level [dB]  / [2.83V 1m] "	"Frequency [Hz]"	"Sound Pessure Level [dB]  / [2.83V 1m] "	"Frequency [Hz]"	"Sound Pessure Level [dB]  / [2.83V 1m] "	"Frequency [Hz]"	"Sound Pessure Level [dB]  / [2.83V 1m] "	"Frequency [Hz]"	"Sound Pessure Level [dB]  / [2.83V 1m] "	"Frequency [Hz]"	"Sound Pessure Level [dB]  / [2.83V 1m] "	"Frequency [Hz]"	"Sound Pessure Level [dB]  / [2.83V 1m] "	"Frequency [Hz]"	"Sound Pessure Level [dB]  / [2.83V 1m] "	"Frequency [Hz]"	"Sound Pessure Level [dB]  / [2.83V 1m] "	"Frequency [Hz]"	"Sound Pessure Level [dB]  / [2.83V 1m] "	"Frequency [Hz]"	"Sound Pessure Level [dB]  / [2.83V 1m] "	"Frequency [Hz]"	"Sound Pessure Level [dB]  / [2.83V 1m] "	"Frequency [Hz]"	"Sound Pessure Level [dB]  / [2.83V 1m] "
20.5078	53.478	20.5078	53.3901	20.5078	53.3423	20.5078	53.0907	20.5078	52.9809	20.5078	52.6127	20.5078	52.4078	20.5078	52.0441	20.5078	51.6836	20.5078	51.5866	20.5078	50.9882	20.5078	51.5784	20.5078	50.7039	20.5078	52.3049	20.5078	51.2662	20.5078	53.6922	20.5078	52.6842	20.5078	55.3977	20.5078	54.5283	20.5078	57.1268	20.5078	56.4103	20.5078	58.7273	20.5078	58.1447	20.5078	60.1383	20.5078	59.6678	20.5078	61.3381	20.5078	60.9631	20.5078	62.3194	20.5078	62.0288	20.5078	63.0788	20.5078	62.8655	20.5078	63.6138	20.5078	63.4735	20.5078	63.9221	20.5078	63.8524	20.5078	64.0019
21.9727	56.7883	21.9727	56.695	21.9727	56.6965	21.9727	56.4203	21.9727	56.4199	21.9727	55.977	21.9727	55.9658	21.9727	55.4023	21.9727	55.3617	21.9727	54.7916	21.9727	54.6873	21.9727	54.3448	21.9727	54.1268	21.9727	54.3584	21.9727	53.9901	21.9727	55.0386	21.9727	54.549	21.9727	56.2844	21.9727	55.7559	21.9727	57.7966	21.9727	57.2964	21.9727	59.3214	21.9727	58.8795	21.9727	60.7205	21.9727	60.3445	21.9727	61.9323	21.9727	61.622	21.9727	62.9318	21.9727	62.6853	21.9727	63.7083	21.9727	63.5243	21.9727	64.257	21.9727	64.1346	21.9727	64.5751	21.9727	64.5139	21.9727	64.6609
23.4375	57.5055	23.4375	57.42	23.4375	57.3857	23.4375	57.1326	23.4375	57.058	23.4375	56.652	23.4375	56.5232	23.4375	56.0087	23.4375	55.7988	23.4375	55.293	23.4375	54.9569	23.4375	54.7182	23.4375	54.2002	23.4375	54.6369	23.4375	53.9252	23.4375	55.3218	23.4375	54.5134	23.4375	56.6573	23.4375	55.8869	23.4375	58.2785	23.4375	57.6107	23.4375	59.8945	23.4375	59.335	23.4375	61.3611	23.4375	60.898	23.4375	62.6213	23.4375	62.2436	23.4375	63.6551	23.4375	63.3558	23.4375	64.455	23.4375	64.2311	23.4375	65.0178	23.4375	64.8684	23.4375	65.3413	23.4375	65.2665	23.4375	65.4243
24.9023	59.1099	24.9023	59.0243	24.9023	59.0108	24.9023	58.7563	24.9023	58.7273	24.9023	58.3139	24.9023	58.2646	24.9023	57.7239	24.9023	57.6443	24.9023	57.0607	24.9023	56.9327	24.9023	56.4942	24.9023	56.2911	24.9023	56.311	24.9023	56.0122	24.9023	56.777	24.9023	56.3983	24.9023	57.8765	24.9023	57.4696	24.9023	59.3269	24.9023	58.9366	24.9023	60.8414	24.9023	60.4887	24.9023	62.2518	24.9023	61.9435	24.9023	63.4815	24.9023	63.2196	24.9023	64.4989	24.9023	64.2852	24.9023	65.291	24.9023	65.1277	24.9023	65.8517	24.9023	65.7412	24.9023	66.178	24.9023	66.1222	24.9023	66.2682
26.3672	60.5183	26.3672	60.4454	26.3672	60.4324	26.3672	60.2185	26.3672	60.1893	26.3672	59.8521	26.3672	59.799	26.3672	59.3821	26.3672	59.2907	26.3672	58.8875	26.3672	58.7346	26.3672	58.5172	26.3672	58.2732	26.3672	58.4822	26.3672	58.1284	26.3672	58.9519	26.3672	58.5068	26.3672	59.9084	26.3672	59.4256	26.3672	61.1609	26.3672	60.6918	26.3672	62.4961	26.3672	62.0699	26.3672	63.768	26.3672	63.3962	26.3672	64.8969	26.3672	64.5834	26.3672	65.8427	26.3672	65.5892	26.3672	66.5848	26.3672	66.3927	26.3672	67.1119	26.3672	66.9827	26.3672	67.4175	26.3672	67.3525	26.3672	67.4979
27.832	62.0741	27.832	62.0093	27.832	62.0028	27.832	61.813	27.832	61.798	27.832	61.5005	27.832	61.4721	27.832	61.1063	27.832	61.0551	27.832	60.6997	27.832	60.6101	27.832	60.4014	27.832	60.2519	27.832	60.3744	27.832	60.1466	27.832	60.7542	27.832	60.449	27.832	61.5489	27.832	61.1928	27.832	62.6289	27.832	62.2588	27.832	63.821	27.832	63.466	27.832	64.9876	27.832	64.6656	27.832	66.043	27.832	65.764	27.832	66.9387	27.832	66.7088	27.832	67.6476	27.832	67.4712	27.832	68.154	27.832	68.0344	27.832	68.4488	27.832	68.3884	27.832	68.5273
29.2969	63.5755	29.2969	63.5212	29.2969	63.5137	29.2969	63.356	29.2969	63.3388	29.2969	63.0957	29.2969	63.064	29.2969	62.7735	29.2969	62.7184	29.2969	62.4509	29.2969	62.3588	29.2969	62.2262	29.2969	62.0798	29.2969	62.2255	29.2969	62.0104	29.2969	62.5534	29.2969	62.2699	29.2969	63.2265	29.2969	62.8947	29.2969	64.158	29.2969	63.8083	29.2969	65.213	29.2969	64.8726	29.2969	66.27	29.2969	65.9576	29.2969	67.2438	29.2969	66.9711	29.2969	68.0812	29.2969	67.8554	29.2969	68.7498	29.2969	68.5761	29.2969	69.2302	29.2969	69.1122	29.2969	69.5104	29.2969	69.4508	29.2969	69.5845
30.7617	64.7505	30.7617	64.7045	30.7617	64.6939	30.7617	64.5613	30.7617	64.5378	30.7617	64.3371	30.7617	64.2956	30.7617	64.0642	30.7617	63.9959	30.7617	63.7989	30.7617	63.6911	30.7617	63.6271	30.7617	63.4645	30.7617	63.6536	30.7617	63.4247	30.7617	63.9643	30.7617	63.6705	30.7617	64.5758	30.7617	64.2354	30.7617	65.4213	30.7617	65.0623	30.7617	66.3893	30.7617	66.0379	30.7617	67.3716	30.7617	67.0471	30.7617	68.2866	30.7617	68.0017	30.7617	69.0799	30.7617	68.8431	30.7617	69.7169	30.7617	69.5342	30.7617	70.1757	30.7617	70.0514	30.7617	70.4429	30.7617	70.38	30.7617	70.5116
32.2266	66.2389	32.2266	66.2019	32.2266	66.1906	32.2266	66.0843	32.2266	66.0602	32.2266	65.901	32.2266	65.8611	32.2266	65.6802	32.2266	65.6193	32.2266	65.4692	32.2266	65.3801	32.2266	65.3365	32.2266	65.2106	32.2266	65.3641	32.2266	65.1949	32.2266	65.6217	32.2266	65.4091	32.2266	66.1314	32.2266	65.8848	32.2266	66.8523	32.2266	66.5878	32.2266	67.7003	32.2266	67.4355	32.2266	68.5829	32.2266	68.3327	32.2266	69.4224	32.2266	69.1986	32.2266	70.1624	32.2266	69.9734	32.2266	70.764	32.2266	70.6165	32.2266	71.2018	32.2266	71.1007	32.2266	71.4598	32.2266	71.4083	32.2266	71.5293
33.6914	67.5808	33.6914	67.5483	33.6914	67.5423	33.6914	67.4499	33.6914	67.4363	33.6914	67.2997	33.6914	67.2754	33.6914	67.1244	33.6914	67.0842	33.6914	66.966	33.6914	66.9024	33.6914	66.8824	33.6914	66.7868	33.6914	66.9399	33.6914	66.8051	33.6914	67.1934	33.6914	67.0173	33.6914	67.6607	33.6914	67.4495	33.6914	68.3114	33.6914	68.0779	33.6914	69.0785	33.6914	68.8388	33.6914	69.8841	33.6914	69.6532	33.6914	70.6583	33.6914	70.4486	33.6914	71.3469	33.6914	71.1681	33.6914	71.9108	33.6914	71.7702	33.6914	72.3231	33.6914	72.2264	33.6914	72.5668	33.6914	72.5174	33.6914	72.6323
35.1563	68.9908	35.1563	68.9604	35.1563	68.9625	35.1563	68.8759	35.1563	68.8789	35.1563	68.75	35.1563	68.7515	35.1563	68.6061	35.1563	68.6018	35.1563	68.4799	35.1563	68.4635	35.1563	68.4195	35.1563	68.3828	35.1563	68.4789	35.1563	68.4136	35.1563	68.7032	35.1563	68.6037	35.1563	69.1104	35.1563	68.9768	35.1563	69.6805	35.1563	69.5196	35.1563	70.3617	35.1563	70.1851	35.1563	71.0882	35.1563	70.9091	35.1563	71.7965	35.1563	71.6274	35.1563	72.434	35.1563	72.2858	35.1563	72.9611	35.1563	72.8423	35.1563	73.3494	35.1563	73.2666	35.1563	73.5805	35.1563	73.538	35.1563	73.6442
36.6211	70.1973	36.6211	70.1744	36.6211	70.1712	36.6211	70.1067	36.6211	70.0991	36.6211	70.0059	36.6211	69.9915	36.6211	69.8932	36.6211	69.8677	36.6211	69.7995	36.6211	69.7572	36.6211	69.7655	36.6211	69.6995	36.6211	69.836	36.6211	69.7398	36.6211	70.0485	36.6211	69.9184	36.6211	70.419	36.6211	70.2565	36.6211	70.9332	36.6211	70.7459	36.6211	71.5497	36.6211	71.3493	36.6211	72.2126	36.6211	72.0124	36.6211	72.8649	36.6211	72.6776	36.6211	73.4568	36.6211	73.2935	36.6211	73.9491	36.6211	73.8187	36.6211	74.3129	36.6211	74.2221	36.6211	74.5288	36.6211	74.4823	36.6211	74.5863
38.0859	71.4317	38.0859	71.4103	38.0859	71.4122	38.0859	71.352	38.0859	71.3542	38.0859	71.2677	38.0859	71.267	38.0859	71.1761	38.0859	71.1672	38.0859	71.1042	38.0859	71.08	38.0859	71.0865	38.0859	71.0388	38.0859	71.1606	38.0859	71.0814	38.0859	71.3578	38.0859	71.2422	38.0859	71.6926	38.0859	71.5412	38.0859	72.1551	38.0859	71.9748	38.0859	72.7119	38.0859	72.5146	38.0859	73.3157	38.0859	73.1154	38.0859	73.915	38.0859	73.7257	38.0859	74.4634	38.0859	74.2972	38.0859	74.9222	38.0859	74.789	38.0859	75.2626	38.0859	75.1697	38.0859	75.4646	38.0859	75.4169	38.0859	75.517
39.5508	72.5151	39.5508	72.5004	39.5508	72.4952	39.5508	72.4548	39.5508	72.443	39.5508	72.3882	39.5508	72.3669	39.5508	72.3173	39.5508	72.2821	39.5508	72.266	39.5508	72.2115	39.5508	72.2643	39.5508	72.1845	39.5508	72.3444	39.5508	72.2343	39.5508	72.5335	39.5508	72.3911	39.5508	72.8448	39.5508	72.6727	39.5508	73.2712	39.5508	73.077	39.5508	73.7852	39.5508	73.5801	39.5508	74.3456	39.5508	74.1421	39.5508	74.9057	39.5508	74.7161	39.5508	75.4215	39.5508	75.2566	39.5508	75.8556	39.5508	75.7241	39.5508	76.1789	39.5508	76.0875	39.5508	76.3711	39.5508	76.3242	39.5508	76.4206
41.0156	73.9671	41.0156	73.9768	41.0156	73.9347	41.0156	73.9665	41.0156	73.8818	41.0156	73.944	41.0156	73.8158	41.0156	73.922	41.0156	73.7495	41.0156	73.9184	41.0156	73.7016	41.0156	73.9545	41.0156	73.6953	41.0156	74.0531	41.0156	73.7562	41.0156	74.2332	41.0156	73.907	41.0156	74.5048	41.0156	74.1613	41.0156	74.8646	41.0156	74.5176	41.0156	75.2942	41.0156	74.9582	41.0156	75.7638	41.0156	75.452	41.0156	76.2371	41.0156	75.9608	41.0156	76.6769	41.0156	76.4452	41.0156	77.0495	41.0156	76.8693	41.0156	77.3268	41.0156	77.2037	41.0156	77.4886	41.0156	77.4262	41.0156	77.5229
42.4805	75.119	42.4805	75.1173	42.4805	75.101	42.4805	75.0979	42.4805	75.0656	42.4805	75.0673	42.4805	75.0196	42.4805	75.0364	42.4805	74.9744	42.4805	75.021	42.4805	74.946	42.4805	75.0406	42.4805	74.9541	42.4805	75.1163	42.4805	75.0201	42.4805	75.267	42.4805	75.1629	42.4805	75.504	42.4805	75.3942	42.4805	75.8266	42.4805	75.7135	42.4805	76.2201	42.4805	76.1067	42.4805	76.658	42.4805	76.5479	42.4805	77.1062	42.4805	77.0038	42.4805	77.5286	42.4805	77.4387	42.4805	77.8919	42.4805	77.8193	42.4805	78.168	42.4805	78.117	42.4805	78.3365	42.4805	78.3101	42.4805	78.385
43.9453	76.2195	43.9453	76.2173	43.9453	76.2033	43.9453	76.1985	43.9453	76.1706	43.9453	76.1688	43.9453	76.1271	43.9453	76.1379	43.9453	76.0822	43.9453	76.1196	43.9453	76.0497	43.9453	76.131	43.9453	76.0465	43.9453	76.1909	43.9453	76.0915	43.9453	76.3166	43.9453	76.2024	43.9453	76.5195	43.9453	76.3915	43.9453	76.8007	43.9453	76.6617	43.9453	77.1491	43.9453	77.0036	43.9453	77.5418	43.9453	77.3961	43.9453	77.9482	43.9453	77.8099	43.9453	78.3345	43.9453	78.2116	43.9453	78.6682	43.9453	78.5684	43.9453	78.9218	43.9453	78.8514	43.9453	79.0748	43.9453	79.0384	43.9453	79.1147
45.4102	77.2408	45.4102	77.2414	45.4102	77.2243	45.4102	77.2277	45.4102	77.1935	45.4102	77.2049	45.4102	77.1536	45.4102	77.1815	45.4102	77.1131	45.4102	77.1698	45.4102	77.0844	45.4102	77.1846	45.4102	77.0825	45.4102	77.2426	45.4102	77.1244	45.4102	77.3589	45.4102	77.2261	45.4102	77.544	45.4102	77.3991	45.4102	77.7997	45.4102	77.6467	45.4102	78.1171	45.4102	77.9614	45.4102	78.4767	45.4102	78.3248	45.4102	78.8513	45.4102	78.7101	45.4102	79.2097	45.4102	79.0864	45.4102	79.5212	45.4102	79.4222	45.4102	79.759	45.4102	79.6898	45.4102	79.9027	45.4102	79.8671	45.4102	79.9399
46.875	78.1826	46.875	78.1837	46.875	78.1691	46.875	78.1737	46.875	78.1449	46.875	78.157	46.875	78.1146	46.875	78.1411	46.875	78.0859	46.875	78.1366	46.875	78.0697	46.875	78.1564	46.875	78.0792	46.875	78.2152	46.875	78.1292	46.875	78.3264	46.875	78.2333	46.875	78.4997	46.875	78.4013	46.875	78.7374	46.875	78.636	46.875	79.0324	46.875	78.9308	46.875	79.3679	46.875	79.2694	46.875	79.7194	46.875	79.6278	46.875	80.0581	46.875	79.9776	46.875	80.3546	46.875	80.2896	46.875	80.5832	46.875	80.5374	46.875	80.7238	46.875	80.7001	46.875	80.764
48.3398	78.8603	48.3398	78.861	48.3398	78.8548	48.3398	78.8582	48.3398	78.8459	48.3398	78.8558	48.3398	78.8375	48.3398	78.8605	48.3398	78.836	48.3398	78.8811	48.3398	78.8502	48.3398	78.9286	48.3398	78.8908	48.3398	79.0145	48.3398	78.969	48.3398	79.1491	48.3398	79.0952	48.3398	79.3388	48.3398	79.2762	48.3398	79.5839	48.3398	79.513	48.3398	79.8769	48.3398	79.7993	48.3398	80.2023	48.3398	80.1211	48.3398	80.538	48.3398	80.4577	48.3398	80.8583	48.3398	80.7844	48.3398	81.1373	48.3398	81.0754	48.3398	81.3514	48.3398	81.3068	48.3398	81.4825	48.3398	81.4591	48.3398	81.5194
51.2695	80.5685	51.2695	80.5727	51.2695	80.564	51.2695	80.5775	51.2695	80.56	51.2695	80.5854	51.2695	80.5591	51.2695	80.6005	51.2695	80.5653	51.2695	80.6284	51.2695	80.5843	51.2695	80.6763	51.2695	80.6229	51.2695	80.7514	51.2695	80.6888	51.2695	80.8607	51.2695	80.789	51.2695	81.0092	51.2695	80.929	51.2695	81.1981	51.2695	81.1108	51.2695	81.4234	51.2695	81.3314	51.2695	81.6752	51.2695	81.5819	51.2695	81.9377	51.2695	81.8478	51.2695	82.1914	51.2695	82.1101	51.2695	82.4147	51.2695	82.3476	51.2695	82.5872	51.2695	82.5393	51.2695	82.6925	51.2695	82.6675	51.2695	82.7203
52.7344	81.2645	52.7344	81.2716	52.7344	81.2584	52.7344	81.2805	52.7344	81.2541	52.7344	81.2931	52.7344	81.2536	52.7344	81.3128	52.7344	81.2603	52.7344	81.3439	52.7344	81.2788	52.7344	81.3923	52.7344	81.315	52.7344	81.4638	52.7344	81.3752	52.7344	81.5645	52.7344	81.4658	52.7344	81.6986	52.7344	81.5917	52.7344	81.8676	52.7344	81.7551	52.7344	82.0687	52.7344	81.954	52.7344	82.2936	52.7344	82.1811	52.7344	82.5291	52.7344	82.4236	52.7344	82.7576	52.7344	82.6644	52.7344	82.9595	52.7344	82.8839	52.7344	83.1157	52.7344	83.0624	52.7344	83.2105	52.7344	83.1829	52.7344	83.2339
54.1992	81.8747	54.1992	81.8857	54.1992	81.8674	54.1992	81.9007	54.1992	81.8644	54.1992	81.921	54.1992	81.8675	54.1992	81.9492	54.1992	81.8794	54.1992	81.9886	54.1992	81.9038	54.1992	82.0435	54.1992	81.9453	54.1992	82.1185	54.1992	82.009	54.1992	82.2181	54.1992	82.0997	54.1992	82.3459	54.1992	82.2213	54.1992	82.5029	54.1992	82.3753	54.1992	82.6868	54.1992	82.5598	54.1992	82.8908	54.1992	82.7687	54.1992	83.1035	54.1992	82.9909	54.1992	83.3097	54.1992	83.2115	54.1992	83.4918	54.1992	83.4129	54.1992	83.6325	54.1992	83.5772	54.1992	83.7174	54.1992	83.6889	54.1992	83.7371
55.6641	82.4536	55.6641	82.4662	55.6641	82.4456	55.6641	82.4837	55.6641	82.4431	55.6641	82.5068	55.6641	82.4475	55.6641	82.5373	55.6641	82.4611	55.6641	82.5775	55.6641	82.4866	55.6641	82.6307	55.6641	82.5279	55.6641	82.7007	55.6641	82.5888	55.6641	82.7911	55.6641	82.6734	55.6641	82.9051	55.6641	82.7847	55.6641	83.044	55.6641	82.9242	55.6641	83.2064	55.6641	83.0903	55.6641	83.3871	55.6641	83.2779	55.6641	83.5765	55.6641	83.4776	55.6641	83.7613	55.6641	83.6762	55.6641	83.9258	55.6641	83.8579	55.6641	84.0538	55.6641	84.0065	55.6641	84.1317	55.6641	84.1073	55.6641	84.1504
58.5938	83.3829	58.5938	83.3891	58.5938	83.3844	58.5938	83.4028	58.5938	83.3936	58.5938	83.4245	58.5938	83.4113	58.5938	83.4551	58.5938	83.4384	58.5938	83.4957	58.5938	83.4763	58.5938	83.5482	58.5938	83.5267	58.5938	83.6147	58.5938	83.5916	58.5938	83.6974	58.5938	83.6731	58.5938	83.7982	58.5938	83.7731	58.5938	83.9182	58.5938	83.8923	58.5938	84.0563	58.5938	84.0297	58.5938	84.2087	58.5938	84.1818	58.5938	84.3685	58.5938	84.3421	58.5938	84.5253	58.5938	84.5006	58.5938	84.6662	58.5938	84.6452	58.5938	84.7779	58.5938	84.7624	58.5938	84.8485	58.5938	84.8402	58.5938	84.8701
60.0586	83.763	60.0586	83.7697	60.0586	83.7654	60.0586	83.7855	60.0586	83.7769	60.0586	83.8103	60.0586	83.7979	60.0586	83.8447	60.0586	83.8288	60.0586	83.8892	60.0586	83.8704	60.0586	83.9448	60.0586	83.9235	60.0586	84.0127	60.0586	83.9894	60.0586	84.0944	60.0586	84.0695	60.0586	84.1911	60.0586	84.1651	60.0586	84.3036	60.0586	84.2766	60.0586	84.4309	60.0586	84.4032	60.0586	84.57	60.0586	84.5421	60.0586	84.7149	60.0586	84.6876	60.0586	84.8567	60.0586	84.8314	60.0586	84.9841	60.0586	84.9625	60.0586	85.0849	60.0586	85.0691	60.0586	85.1486	60.0586	85.1401	60.0586	85.1677
62.9883	84.3781	62.9883	84.3882	62.9883	84.3801	62.9883	84.4101	62.9883	84.3942	62.9883	84.4433	62.9883	84.4203	62.9883	84.4871	62.9883	84.4579	62.9883	84.5408	62.9883	84.5065	62.9883	84.6038	62.9883	84.5657	62.9883	84.6758	62.9883	84.6352	62.9883	84.7566	62.9883	84.7147	62.9883	84.8464	62.9883	84.8043	62.9883	84.945	62.9883	84.9037	62.9883	85.0519	62.9883	85.0121	62.9883	85.165	62.9883	85.1274	62.9883	85.2805	62.9883	85.2458	62.9883	85.3922	62.9883	85.3616	62.9883	85.4919	62.9883	85.4669	62.9883	85.5705	62.9883	85.5526	62.9883	85.6196	62.9883	85.6103	62.9883	85.6335
64.4531	84.6773	64.4531	84.6877	64.4531	84.6804	64.4531	84.7112	64.4531	84.6969	64.4531	84.7468	64.4531	84.7262	64.4531	84.7935	64.4531	84.7677	64.4531	84.85	64.4531	84.82	64.4531	84.915	64.4531	84.8822	64.4531	84.9875	64.4531	84.9531	64.4531	85.0668	64.4531	85.032	64.4531	85.1525	64.4531	85.1183	64.4531	85.2443	64.4531	85.2114	64.4531	85.3416	64.4531	85.3105	64.4531	85.4429	64.4531	85.414	64.4531	85.5452	64.4531	85.5189	64.4531	85.6434	64.4531	85.6204	64.4531	85.7309	64.4531	85.7122	64.4531	85.8	64.4531	85.7866	64.4531	85.8434	64.4531	85.8364	64.4531	85.856
67.3828	85.04	67.3828	85.0494	67.3828	85.0456	67.3828	85.0733	67.3828	85.0661	67.3828	85.1105	67.3828	85.1005	67.3828	85.1593	67.3828	85.1473	67.3828	85.2174	67.3828	85.2043	67.3828	85.2825	67.3828	85.2695	67.3828	85.3527	67.3828	85.3407	67.3828	85.4261	67.3828	85.416	67.3828	85.5016	67.3828	85.4938	67.3828	85.5784	67.3828	85.5731	67.3828	85.6562	67.3828	85.653	67.3828	85.7342	67.3828	85.7326	67.3828	85.8111	67.3828	85.8104	67.3828	85.8841	67.3828	85.8836	67.3828	85.9491	67.3828	85.9486	67.3828	86.0009	67.3828	86.0004	67.3828	86.0344	67.3828	86.0341	67.3828	86.046
68.8477	85.1737	68.8477	85.1819	68.8477	85.1811	68.8477	85.2053	68.8477	85.2039	68.8477	85.2424	68.8477	85.2409	68.8477	85.2912	68.8477	85.2902	68.8477	85.3492	68.8477	85.3495	68.8477	85.4136	68.8477	85.4161	68.8477	85.482	68.8477	85.4873	68.8477	85.5523	68.8477	85.5607	68.8477	85.6227	68.8477	85.6345	68.8477	85.6926	68.8477	85.7072	68.8477	85.7614	68.8477	85.7779	68.8477	85.8287	68.8477	85.8461	68.8477	85.894	68.8477	85.9107	68.8477	85.9555	68.8477	85.9701	68.8477	86.0102	68.8477	86.0218	68.8477	86.0543	68.8477	86.0622	68.8477	86.0837	68.8477	86.0876	68.8477	86.0952
71.7773	85.4716	71.7773	85.4768	71.7773	85.4827	71.7773	85.4979	71.7773	85.5096	71.7773	85.5332	71.7773	85.5507	71.7773	85.5803	71.7773	85.6037	71.7773	85.6363	71.7773	85.6655	71.7773	85.6978	71.7773	85.7326	71.7773	85.7615	71.7773	85.8015	71.7773	85.8245	71.7773	85.869	71.7773	85.8846	71.7773	85.9326	71.7773	85.9404	71.7773	85.9906	71.7773	85.9915	71.7773	86.0419	71.7773	86.0381	71.7773	86.0867	71.7773	86.0806	71.7773	86.1251	71.7773	86.1193	71.7773	86.1573	71.7773	86.1533	71.7773	86.1833	71.7773	86.1814	71.7773	86.2019	71.7773	86.2015	71.7773	86.2119	71.7773	86.2119
74.707	85.7595	74.707	85.7658	74.707	85.7695	74.707	85.7879	74.707	85.7955	74.707	85.824	74.707	85.8357	74.707	85.8713	74.707	85.8876	74.707	85.9264	74.707	85.9475	74.707	85.9855	74.707	86.0118	74.707	86.0448	74.707	86.0763	74.707	86.101	74.707	86.1375	74.707	86.1513	74.707	86.1923	74.707	86.1944	74.707	86.2386	74.707	86.2298	74.707	86.2755	74.707	86.2582	74.707	86.3033	74.707	86.281	74.707	86.323	74.707	86.2998	74.707	86.3364	74.707	86.3156	74.707	86.3447	74.707	86.3288	74.707	86.349	74.707	86.3392	74.707	86.3495	74.707	86.3463
77.6367	85.9606	77.6367	85.9694	77.6367	85.9692	77.6367	85.995	77.6367	85.9949	77.6367	86.0352	77.6367	86.0358	77.6367	86.087	77.6367	86.0888	77.6367	86.1463	77.6367	86.1503	77.6367	86.2088	77.6367	86.2156	77.6367	86.2699	77.6367	86.2803	77.6367	86.3256	77.6367	86.3399	77.6367	86.3727	77.6367	86.3908	77.6367	86.4091	77.6367	86.4306	77.6367	86.4341	77.6367	86.4579	77.6367	86.4486	77.6367	86.4734	77.6367	86.4547	77.6367	86.4786	77.6367	86.4552	77.6367	86.4765	77.6367	86.453	77.6367	86.4702	77.6367	86.4507	77.6367	86.4627	77.6367	86.45	77.6367	86.4561	77.6367	86.4517
79.1016	86.0201	79.1016	86.0306	79.1016	86.0272	79.1016	86.0576	79.1016	86.0513	79.1016	86.0992	79.1016	86.0905	79.1016	86.152	79.1016	86.1418	79.1016	86.2118	79.1016	86.2012	79.1016	86.2741	79.1016	86.2642	79.1016	86.334	79.1016	86.326	79.1016	86.3873	79.1016	86.3819	79.1016	86.4304	79.1016	86.4282	79.1016	86.461	79.1016	86.4622	79.1016	86.4786	79.1016	86.4827	79.1016	86.484	79.1016	86.4903	79.1016	86.4797	79.1016	86.4871	79.1016	86.4692	79.1016	86.4766	79.1016	86.4564	79.1016	86.4627	79.1016	86.4449	79.1016	86.4494	79.1016	86.4373	79.1016	86.4396	79.1016	86.4354
82.0313	86.1182	82.0313	86.1314	82.0313	86.123	82.0313	86.1617	82.0313	86.1454	82.0313	86.2067	82.0313	86.1834	82.0313	86.263	82.0313	86.2337	82.0313	86.3259	82.0313	86.2922	82.0313	86.3904	82.0313	86.3539	82.0313	86.4511	82.0313	86.4135	82.0313	86.5032	82.0313	86.4662	82.0313	86.5426	82.0313	86.5077	82.0313	86.5667	82.0313	86.5349	82.0313	86.5745	82.0313	86.5468	82.0313	86.5672	82.0313	86.5438	82.0313	86.5477	82.0313	86.5287	82.0313	86.5207	82.0313	86.5058	82.0313	86.4915	82.0313	86.4805	82.0313	86.4655	82.0313	86.4582	82.0313	86.4472	82.0313	86.4436	82.0313	86.4396
84.9609	86.254	84.9609	86.2681	84.9609	86.2584	84.9609	86.2999	84.9609	86.281	84.9609	86.3467	84.9609	86.3196	84.9609	86.4049	84.9609	86.3711	84.9609	86.4696	84.9609	86.4308	84.9609	86.5353	84.9609	86.4936	84.9609	86.5965	84.9609	86.5539	84.9609	86.6477	84.9609	86.6063	84.9609	86.6844	84.9609	86.646	84.9609	86.7037	84.9609	86.6696	84.9609	86.7044	84.9609	86.6756	84.9609	86.6877	84.9609	86.6646	84.9609	86.657	84.9609	86.6395	84.9609	86.618	84.9609	86.6053	84.9609	86.5772	84.9609	86.5686	84.9609	86.5416	84.9609	86.5364	84.9609	86.5171	84.9609	86.5147	84.9609	86.5077
87.8906	86.3821	87.8906	86.3996	87.8906	86.382	87.8906	86.4336	87.8906	86.3992	87.8906	86.4813	87.8906	86.4318	87.8906	86.5388	87.8906	86.4765	87.8906	86.6013	87.8906	86.5289	87.8906	86.6629	87.8906	86.5838	87.8906	86.718	87.8906	86.6355	87.8906	86.7607	87.8906	86.6783	87.8906	86.7864	87.8906	86.7072	87.8906	86.7919	87.8906	86.7186	87.8906	86.7761	87.8906	86.7109	87.8906	86.7405	87.8906	86.6848	87.8906	86.6894	87.8906	86.6437	87.8906	86.6293	87.8906	86.5937	87.8906	86.5686	87.8906	86.5427	87.8906	86.516	87.8906	86.4993	87.8906	86.4794	87.8906	86.4712	87.8906	86.4639
90.8203	86.4585	90.8203	86.4742	90.8203	86.4606	90.8203	86.5064	90.8203	86.4799	90.8203	86.5528	90.8203	86.5144	90.8203	86.6093	90.8203	86.5608	90.8203	86.6709	90.8203	86.6146	90.8203	86.7319	90.8203	86.6701	90.8203	86.7859	90.8203	86.7215	90.8203	86.827	90.8203	86.7629	90.8203	86.8502	90.8203	86.7889	90.8203	86.8519	90.8203	86.7957	90.8203	86.8309	90.8203	86.7815	90.8203	86.7887	90.8203	86.7472	90.8203	86.7297	90.8203	86.6964	90.8203	86.6612	90.8203	86.636	90.8203	86.5924	90.8203	86.5746	90.8203	86.5333	90.8203	86.5221	90.8203	86.4927	90.8203	86.4873	90.8203	86.4767
95.2148	86.619	95.2148	86.6369	95.2148	86.6171	95.2148	86.6698	95.2148	86.6308	95.2148	86.7151	95.2148	86.6582	95.2148	86.7693	95.2148	86.6961	95.2148	86.8271	95.2148	86.7401	95.2148	86.8829	95.2148	86.7848	95.2148	86.9301	95.2148	86.8243	95.2148	86.9624	95.2148	86.8527	95.2148	86.9745	95.2148	86.8645	95.2148	86.9623	95.2148	86.8558	95.2148	86.9243	95.2148	86.8247	95.2148	86.8621	95.2148	86.7725	95.2148	86.7806	95.2148	86.7034	95.2148	86.6881	95.2148	86.6251	95.2148	86.5959	95.2148	86.5481	95.2148	86.516	95.2148	86.484	95.2148	86.4596	95.2148	86.4436	95.2148	86.4345
98.1445	86.7022	98.1445	86.7158	98.1445	86.704	98.1445	86.7442	98.1445	86.7208	98.1445	86.785	98.1445	86.7504	98.1445	86.8348	98.1445	86.7895	98.1445	86.8885	98.1445	86.8335	98.1445	86.9403	98.1445	86.8771	98.1445	86.9838	98.1445	86.9139	98.1445	87.0125	98.1445	86.9381	98.1445	87.0207	98.1445	86.9443	98.1445	87.0042	98.1445	86.9284	98.1445	86.9614	98.1445	86.8889	98.1445	86.8938	98.1445	86.8272	98.1445	86.8065	98.1445	86.748	98.1445	86.7082	98.1445	86.6597	98.1445	86.6105	98.1445	86.5734	98.1445	86.5265	98.1445	86.5014	98.1445	86.4678	98.1445	86.4552	98.1445	86.443
101.074	86.7402	101.074	86.7413	101.074	86.7541	101.074	86.7568	101.074	86.7823	101.074	86.7849	101.074	86.8226	101.074	86.8223	101.074	86.8716	101.074	86.8646	101.074	86.9247	101.074	86.9062	101.074	86.976	101.074	86.9408	101.074	87.0194	101.074	86.9622	101.074	87.048	101.074	86.9648	101.074	87.0562	101.074	86.9442	101.074	87.0393	101.074	86.8989	101.074	86.9952	101.074	86.8303	101.074	86.925	101.074	86.7439	101.074	86.8333	101.074	86.6488	101.074	86.7287	101.074	86.5572	101.074	86.623	101.074	86.4828	101.074	86.5298	101.074	86.4376	101.074	86.4622	101.074	86.43
105.469	86.9229	105.469	86.9353	105.469	86.9235	105.469	86.9597	105.469	86.937	105.469	86.9938	105.469	86.9619	105.469	87.0344	105.469	86.9957	105.469	87.0769	105.469	87.0345	105.469	87.1157	105.469	87.0732	105.469	87.1448	105.469	87.1058	105.469	87.1579	105.469	87.1262	105.469	87.1495	105.469	87.1282	105.469	87.1158	105.469	87.1073	105.469	87.0556	105.469	87.0607	105.469	86.9711	105.469	86.9892	105.469	86.8685	105.469	86.8969	105.469	86.758	105.469	86.7921	105.469	86.6527	105.469	86.6865	105.469	86.5668	105.469	86.594	105.469	86.5129	105.469	86.5281	105.469	86.4994
108.398	87.059	108.398	87.0753	108.398	87.0562	108.398	87.1041	108.398	87.0668	108.398	87.1432	108.398	87.0894	108.398	87.189	108.398	87.1213	108.398	87.237	108.398	87.1587	108.398	87.2812	108.398	87.1963	108.398	87.3154	108.398	87.2283	108.398	87.3329	108.398	87.2481	108.398	87.328	108.398	87.2497	108.398	87.2963	108.398	87.2283	108.398	87.2363	108.398	87.1814	108.398	87.1501	108.398	87.1095	108.398	87.0438	108.398	87.0172	108.398	86.9275	108.398	86.913	108.398	86.8148	108.398	86.8091	108.398	86.7204	108.398	86.7196	108.398	86.6579	108.398	86.6586	108.398	86.6365
112.793	87.2921	112.793	87.2995	112.793	87.296	112.793	87.3174	112.793	87.3107	112.793	87.3441	112.793	87.3348	112.793	87.3767	112.793	87.3659	112.793	87.4112	112.793	87.4001	112.793	87.442	112.793	87.4323	112.793	87.463	112.793	87.4565	112.793	87.4675	112.793	87.4661	112.793	87.4493	112.793	87.4548	112.793	87.4041	112.793	87.4176	112.793	87.3299	112.793	87.3519	112.793	87.2287	112.793	87.2584	112.793	87.1069	112.793	87.1422	112.793	86.9757	112.793	87.013	112.793	86.85	112.793	86.8846	112.793	86.7465	112.793	86.7733	112.793	86.6805	112.793	86.6951	112.793	86.6624
117.188	87.4174	117.188	87.4236	117.188	87.4196	117.188	87.4374	117.188	87.4306	117.188	87.4572	117.188	87.4496	117.188	87.4803	117.188	87.475	117.188	87.5032	117.188	87.5037	117.188	87.5213	117.188	87.5312	117.188	87.5292	117.188	87.5517	117.188	87.5211	117.188	87.5586	117.188	87.4916	117.188	87.5452	117.188	87.4366	117.188	87.5061	117.188	87.3549	117.188	87.4379	117.188	87.2487	117.188	87.3409	117.188	87.1245	117.188	87.2199	117.188	86.9935	117.188	87.0845	117.188	86.8704	117.188	86.9488	117.188	86.7717	117.188	86.8294	117.188	86.7121	117.188	86.7428	117.188	86.7017
120.117	87.5222	120.117	87.5316	120.117	87.52	120.117	87.5476	120.117	87.525	120.117	87.569	120.117	87.5366	120.117	87.5936	120.117	87.5534	120.117	87.6182	120.117	87.5727	120.117	87.6382	120.117	87.5907	120.117	87.6482	120.117	87.6023	120.117	87.6422	120.117	87.6016	120.117	87.6147	120.117	87.5827	120.117	87.5612	120.117	87.5405	120.117	87.4803	120.117	87.472	120.117	87.374	120.117	87.3779	120.117	87.2485	120.117	87.2626	120.117	87.115	120.117	87.1356	120.117	86.9879	120.117	87.0101	120.117	86.8834	120.117	86.902	120.117	86.8163	120.117	86.8269	120.117	86.7965
124.512	87.6549	124.512	87.6562	124.512	87.6597	124.512	87.6632	124.512	87.6703	124.512	87.6751	124.512	87.6863	124.512	87.6905	124.512	87.7062	124.512	87.7065	124.512	87.7276	124.512	87.7192	124.512	87.7466	124.512	87.7234	124.512	87.7581	124.512	87.7134	124.512	87.7561	124.512	87.6831	124.512	87.7345	124.512	87.6281	124.512	87.688	124.512	87.5464	124.512	87.6137	124.512	87.4397	124.512	87.512	124.512	87.3142	124.512	87.3879	124.512	87.1809	124.512	87.251	124.512	87.0549	124.512	87.1153	124.512	86.9526	124.512	86.9972	124.512	86.8893	124.512	86.913	124.512	86.8752
128.906	87.7183	128.906	87.7268	128.906	87.7129	128.906	87.7377	128.906	87.7109	128.906	87.7498	128.906	87.7125	128.906	87.7615	128.906	87.717	128.906	87.7702	128.906	87.7226	128.906	87.7723	128.906	87.726	128.906	87.7628	128.906	87.7225	128.906	87.7364	128.906	87.7063	128.906	87.6877	128.906	87.6711	128.906	87.6126	128.906	87.6115	128.906	87.5098	128.906	87.5245	128.906	87.3814	128.906	87.4105	128.906	87.2348	128.906	87.2745	128.906	87.0819	128.906	87.1266	128.906	86.9387	128.906	86.9814	128.906	86.8227	128.906	86.8563	128.906	86.7498	128.906	86.7684	128.906	86.7309
133.301	87.7723	133.301	87.7871	133.301	87.7602	133.301	87.8038	133.301	87.7512	133.301	87.8216	133.301	87.7457	133.301	87.8389	133.301	87.7432	133.301	87.8533	133.301	87.7423	133.301	87.861	133.301	87.7402	133.301	87.8569	133.301	87.7324	133.301	87.8354	133.301	87.7134	133.301	87.7908	133.301	87.6771	133.301	87.7186	133.301	87.6181	133.301	87.6172	133.301	87.5334	133.301	87.4885	133.301	87.4233	133.301	87.3397	133.301	87.2929	133.301	87.1827	133.301	87.1523	133.301	87.0333	133.301	87.016	133.301	86.9094	133.301	86.9011	133.301	86.8272	133.301	86.8241	133.301	86.7977
139.16	87.8009	139.16	87.8152	139.16	87.7869	139.16	87.8297	139.16	87.7736	139.16	87.8439	139.16	87.7615	139.16	87.8571	139.16	87.7505	139.16	87.8673	139.16	87.74	139.16	87.8712	139.16	87.7276	139.16	87.864	139.16	87.7099	139.16	87.8399	139.16	87.6816	139.16	87.793	139.16	87.6374	139.16	87.7186	139.16	87.5722	139.16	87.6147	139.16	87.4832	139.16	87.4835	139.16	87.371	139.16	87.3319	139.16	87.2407	139.16	87.1718	139.16	87.1025	139.16	87.0192	139.16	86.9705	139.16	86.8917	139.16	86.8613	139.16	86.8051	139.16	86.7906	139.16	86.7702
143.555	87.7987	143.555	87.8062	143.555	87.788	143.555	87.8106	143.555	87.7743	143.555	87.8122	143.555	87.7582	143.555	87.8112	143.555	87.7404	143.555	87.8065	143.555	87.7206	143.555	87.7959	143.555	87.6973	143.555	87.7751	143.555	87.6674	143.555	87.7389	143.555	87.6263	143.555	87.6815	143.555	87.569	143.555	87.5983	143.555	87.4907	143.555	87.4871	143.555	87.3889	143.555	87.3498	143.555	87.2646	143.555	87.1934	143.555	87.1234	143.555	87.0298	143.555	86.9758	143.555	86.8749	143.555	86.8364	143.555	86.7461	143.555	86.7218	143.555	86.6592	143.555	86.6476	143.555	86.6252
147.949	87.8409	147.949	87.8431	147.949	87.8308	147.949	87.8379	147.949	87.8133	147.949	87.8258	147.949	87.7894	147.949	87.8077	147.949	87.7601	147.949	87.7835	147.949	87.7261	147.949	87.7515	147.949	87.6864	147.949	87.7088	147.949	87.6388	147.949	87.6506	147.949	87.5792	147.949	87.572	147.949	87.5029	147.949	87.4688	147.949	87.4055	147.949	87.3394	147.949	87.2847	147.949	87.1861	147.949	87.1418	147.949	87.0162	147.949	86.9829	147.949	86.8421	147.949	86.8191	147.949	86.6799	147.949	86.6655	147.949	86.5472	147.949	86.5393	147.949	86.4598	147.949	86.4565	147.949	86.4284
153.809	87.8224	153.809	87.826	153.809	87.8093	153.809	87.8208	153.809	87.7872	153.809	87.8075	153.809	87.7568	153.809	87.7871	153.809	87.7193	153.809	87.7595	153.809	87.6753	153.809	87.7229	153.809	87.6244	153.809	87.6742	153.809	87.5644	153.809	87.6085	153.809	87.4918	153.809	87.5207	153.809	87.4023	153.809	87.4065	153.809	87.2919	153.809	87.2644	153.809	87.1587	153.809	87.0972	153.809	87.0047	153.809	86.9131	153.809	86.8363	153.809	86.7251	153.809	86.6652	153.809	86.5503	153.809	86.5071	153.809	86.4068	153.809	86.3792	153.809	86.3109	153.809	86.2975	153.809	86.2732
159.668	87.9699	159.668	87.9663	159.668	87.9613	159.668	87.9516	159.668	87.9408	159.668	87.9275	159.668	87.9095	159.668	87.8959	159.668	87.8691	159.668	87.858	159.668	87.8209	159.668	87.8132	159.668	87.7649	159.668	87.7589	159.668	87.6994	159.668	87.6907	159.668	87.6214	159.668	87.6032	159.668	87.5264	159.668	87.4917	159.668	87.4109	159.668	87.3542	159.668	87.2731	159.668	87.1928	159.668	87.1154	159.668	87.0148	159.668	86.9448	159.668	86.8329	159.668	86.7733	159.668	86.6634	159.668	86.6165	159.668	86.5236	159.668	86.4913	159.668	86.4292	159.668	86.4128	159.668	86.3909
165.527	88.1255	165.527	88.1152	165.527	88.1218	165.527	88.092	165.527	88.1042	165.527	88.058	165.527	88.0742	165.527	88.0159	165.527	88.0336	165.527	87.9677	165.527	87.9843	165.527	87.9136	165.527	87.9267	165.527	87.852	165.527	87.8599	165.527	87.7792	165.527	87.7809	165.527	87.6905	165.527	87.6861	165.527	87.5815	165.527	87.5719	165.527	87.4503	165.527	87.4371	165.527	87.2991	165.527	87.2839	165.527	87.1349	165.527	87.1193	165.527	86.9695	165.527	86.9548	165.527	86.8176	165.527	86.805	165.527	86.6946	165.527	86.6852	165.527	86.6137	165.527	86.6087	165.527	86.5839
171.387	88.102	171.387	88.0867	171.387	88.0991	171.387	88.054	171.387	88.0787	171.387	88.0065	171.387	88.0428	171.387	87.9476	171.387	87.9945	171.387	87.8803	171.387	87.9363	171.387	87.8067	171.387	87.8698	171.387	87.7269	171.387	87.7945	171.387	87.6386	171.387	87.7083	171.387	87.5385	171.387	87.6077	171.387	87.4232	171.387	87.4898	171.387	87.2915	171.387	87.3536	171.387	87.1458	171.387	87.2018	171.387	86.9931	171.387	87.0416	171.387	86.8442	171.387	86.8838	171.387	86.7119	171.387	86.7419	171.387	86.6087	171.387	86.6286	171.387	86.5446	171.387	86.5545	171.387	86.5258
177.246	88.0687	177.246	88.061	177.246	88.055	177.246	88.0317	177.246	88.0221	177.246	87.9823	177.246	87.9739	177.246	87.9156	177.246	87.9149	177.246	87.8348	177.246	87.849	177.246	87.7427	177.246	87.7786	177.246	87.6403	177.246	87.7032	177.246	87.5273	177.246	87.62	177.246	87.4021	177.246	87.5243	177.246	87.2634	177.246	87.4113	177.246	87.1121	177.246	87.2785	177.246	86.9523	177.246	87.1271	177.246	86.7923	177.246	86.9636	177.246	86.6436	177.246	86.7987	177.246	86.5186	177.246	86.6459	177.246	86.4286	177.246	86.5187	177.246	86.3815	177.246	86.4281	177.246	86.3812
183.105	87.8811	183.105	87.8864	183.105	87.8477	183.105	87.8639	183.105	87.7888	183.105	87.8156	183.105	87.7086	183.105	87.745	183.105	87.6131	183.105	87.656	183.105	87.5088	183.105	87.5518	183.105	87.4008	183.105	87.4343	183.105	87.2925	183.105	87.304	183.105	87.184	183.105	87.1605	183.105	87.0731	183.105	87.0039	183.105	86.9564	183.105	86.8369	183.105	86.8316	183.105	86.6653	183.105	86.6988	183.105	86.4988	183.105	86.5622	183.105	86.3496	183.105	86.4291	183.105	86.2291	183.105	86.3085	183.105	86.1459	183.105	86.2094	183.105	86.1036	183.105	86.1388	183.105	86.1022
188.965	87.9124	188.965	87.9215	188.965	87.8703	188.965	87.8984	188.965	87.7959	188.965	87.8458	188.965	87.6922	188.965	87.7671	188.965	87.5634	188.965	87.6655	188.965	87.4145	188.965	87.5436	188.965	87.2505	188.965	87.4026	188.965	87.0754	188.965	87.2425	188.965	86.8916	188.965	87.0624	188.965	86.7007	188.965	86.863	188.965	86.5043	188.965	86.6473	188.965	86.3057	188.965	86.4227	188.965	86.1113	188.965	86.2005	188.965	85.9303	188.965	85.9946	188.965	85.7738	188.965	85.8184	188.965	85.6516	188.965	85.6812	188.965	85.5702	188.965	85.5875	188.965	85.5323	188.965	85.538
196.289	87.897	196.289	87.884	196.289	87.8776	196.289	87.8407	196.289	87.8261	196.289	87.7704	196.289	87.7448	196.289	87.6776	196.289	87.6375	196.289	87.566	196.289	87.5088	196.289	87.4385	196.289	87.3627	196.289	87.2957	196.289	87.2019	196.289	87.1371	196.289	87.0272	196.289	86.9613	196.289	86.8383	196.289	86.7683	196.289	86.6352	196.289	86.5612	196.289	86.4207	196.289	86.3466	196.289	86.2017	196.289	86.1353	196.289	85.9901	196.289	85.9395	196.289	85.8012	196.289	85.7707	196.289	85.6497	196.289	85.6374	196.289	85.5465	196.289	85.5448	196.289	85.4958	196.289	85.4964
203.613	87.8383	203.613	87.8079	203.613	87.8294	203.613	87.7402	203.613	87.7817	203.613	87.6396	203.613	87.6985	203.613	87.5121	203.613	87.5842	203.613	87.3643	203.613	87.4443	203.613	87.2019	203.613	87.2838	203.613	87.0284	203.613	87.1064	203.613	86.8454	203.613	86.9143	203.613	86.6529	203.613	86.7091	203.613	86.4516	203.613	86.4927	203.613	86.2449	203.613	86.2697	203.613	86.04	203.613	86.048	203.613	85.8474	203.613	85.8396	203.613	85.6785	203.613	85.658	203.613	85.542	203.613	85.5148	203.613	85.4421	203.613	85.4167	203.613	85.3792	203.613	85.3638	203.613	85.3526
210.938	87.8541	210.938	87.8245	210.938	87.8409	210.938	87.7529	210.938	87.7866	210.938	87.6423	210.938	87.6947	210.938	87.497	210.938	87.5704	210.938	87.3222	210.938	87.4188	210.938	87.1227	210.938	87.2448	210.938	86.9026	210.938	87.0518	210.938	86.6653	210.938	86.8416	210.938	86.4147	210.938	86.616	210.938	86.1568	210.938	86.3778	210.938	85.9015	210.938	86.1335	210.938	85.6628	210.938	85.8935	210.938	85.4566	210.938	85.6716	210.938	85.2961	210.938	85.4815	210.938	85.1875	210.938	85.3324	210.938	85.1277	210.938	85.2258	210.938	85.1076	210.938	85.1568	210.938	85.1185
218.262	87.7786	218.262	87.7625	218.262	87.7501	218.262	87.7024	218.262	87.6793	218.262	87.601	218.262	87.571	218.262	87.4626	218.262	87.4317	218.262	87.2924	218.262	87.2683	218.262	87.0946	218.262	87.0867	218.262	86.8724	218.262	86.8906	218.262	86.628	218.262	86.6811	218.262	86.364	218.262	86.4575	218.262	86.0855	218.262	86.2199	218.262	85.8025	218.262	85.9717	218.262	85.531	218.262	85.7217	218.262	85.29	218.262	85.4839	218.262	85.0972	218.262	85.2744	218.262	84.962	218.262	85.1059	218.262	84.8835	218.262	84.9832	218.262	84.8531	218.262	84.9037	218.262	84.8612
225.586	87.7603	225.586	87.7677	225.586	87.703	225.586	87.7254	225.586	87.5985	225.586	87.6363	225.586	87.4527	225.586	87.5051	225.586	87.2739	225.586	87.337	225.586	87.0722	225.586	87.1373	225.586	86.8576	225.586	86.9104	225.586	86.6392	225.586	86.6597	225.586	86.4233	225.586	86.3896	225.586	86.2138	225.586	86.1075	225.586	86.013	225.586	85.8263	225.586	85.8237	225.586	85.5646	225.586	85.6501	225.586	85.344	225.586	85.4978	225.586	85.1824	225.586	85.3713	225.586	85.0869	225.586	85.272	225.586	85.0507	225.586	85.196	225.586	85.0576	225.586	85.1369	225.586	85.0901
232.91	87.8857	232.91	87.8883	232.91	87.8254	232.91	87.8363	232.91	87.7069	232.91	87.7347	232.91	87.5321	232.91	87.5895	232.91	87.3054	232.91	87.4069	232.91	87.0333	232.91	87.1915	232.91	86.7236	232.91	86.9468	232.91	86.3853	232.91	86.6749	232.91	86.029	232.91	86.3789	232.91	85.6679	232.91	86.0656	232.91	85.3194	232.91	85.7486	232.91	85.0056	232.91	85.4486	232.91	84.7515	232.91	85.1898	232.91	84.5779	232.91	84.9909	232.91	84.4926	232.91	84.856	232.91	84.485	232.91	84.7716	232.91	84.5291	232.91	84.7134	232.91	84.5943	232.91	84.658
241.699	87.8184	241.699	87.7704	241.699	87.8122	241.699	87.6711	241.699	87.7512	241.699	87.5258	241.699	87.637	241.699	87.341	241.699	87.4731	241.699	87.1234	241.699	87.2632	241.699	86.8783	241.699	87.0104	241.699	86.6088	241.699	86.7165	241.699	86.3161	241.699	86.3825	241.699	86.0009	241.699	86.0104	241.699	85.6674	241.699	85.6077	241.699	85.3264	241.699	85.1913	241.699	84.9976	241.699	84.7901	241.699	84.7056	241.699	84.442	241.699	84.4716	241.699	84.183	241.699	84.303	241.699	84.0313	241.699	84.189	241.699	83.978	241.699	84.1083	241.699	83.9932	241.699	84.0433
250.488	87.594	250.488	87.5578	250.488	87.569	250.488	87.4618	250.488	87.4845	250.488	87.3096	250.488	87.3447	250.488	87.1068	250.488	87.1563	250.488	86.8599	250.488	86.9267	250.488	86.5752	250.488	86.6633	250.488	86.2586	250.488	86.3716	250.488	85.915	250.488	86.0551	250.488	85.5505	250.488	85.7164	250.488	85.1749	250.488	85.3604	250.488	84.8052	250.488	84.9988	250.488	84.4662	250.488	84.6521	250.488	84.1867	250.488	84.3482	250.488	83.9888	250.488	84.1133	250.488	83.8762	250.488	83.9598	250.488	83.8312	250.488	83.8788	250.488	83.8245	250.488	83.845	250.488	83.8315
259.277	87.975	259.277	87.9548	259.277	87.9367	259.277	87.8784	259.277	87.8404	259.277	87.7492	259.277	87.6881	259.277	87.5716	259.277	87.4841	259.277	87.3497	259.277	87.2335	259.277	87.0861	259.277	86.9415	259.277	86.7821	259.277	86.6126	259.277	86.4378	259.277	86.2507	259.277	86.0552	259.277	85.8604	259.277	85.6419	259.277	85.4501	259.277	85.2145	259.277	85.0361	259.277	84.8013	259.277	84.6446	259.277	84.4377	259.277	84.3088	259.277	84.1558	259.277	84.0575	259.277	83.9699	259.277	83.9013	259.277	83.8691	259.277	83.827	259.277	83.8246	259.277	83.8048	259.277	83.8074
268.066	87.468	268.066	87.425	268.066	87.4491	268.066	87.3244	268.066	87.3675	268.066	87.1737	268.066	87.2261	268.066	86.9825	268.066	87.0309	268.066	86.7604	268.066	86.7896	268.066	86.5149	268.066	86.5106	268.066	86.2508	268.066	86.201	268.066	85.9698	268.066	85.867	268.066	85.6729	268.066	85.5151	268.066	85.3651	268.066	85.1555	268.066	85.0596	268.066	84.8068	268.066	84.7787	268.066	84.4974	268.066	84.5488	268.066	84.2601	268.066	84.3892	268.066	84.119	268.066	84.3004	268.066	84.0744	268.066	84.2613	268.066	84.1002	268.066	84.2396	268.066	84.1563	268.066	84.2077
276.855	87.5939	276.855	87.5387	276.855	87.5796	276.855	87.4134	276.855	87.4982	276.855	87.2193	276.855	87.3524	276.855	86.9596	276.855	87.1455	276.855	86.6395	276.855	86.8806	276.855	86.2647	276.855	86.561	276.855	85.8423	276.855	86.1904	276.855	85.3806	276.855	85.7737	276.855	84.8923	276.855	85.3184	276.855	84.3981	276.855	84.8362	276.855	83.9304	276.855	84.3476	276.855	83.5313	276.855	83.8852	276.855	83.2406	276.855	83.4921	276.855	83.0765	276.855	83.2101	276.855	83.0221	276.855	83.057	276.855	83.0317	276.855	83.0131	276.855	83.0534	276.855	83.0294	276.855	83.0533
287.109	87.5674	287.109	87.5706	287.109	87.4988	287.109	87.5087	287.109	87.3687	287.109	87.3854	287.109	87.1852	287.109	87.205	287.109	86.959	287.109	86.9709	287.109	86.6989	287.109	86.6833	287.109	86.4083	287.109	86.3392	287.109	86.0837	287.109	85.9343	287.109	85.7164	287.109	85.4672	287.109	85.3	287.109	84.947	287.109	84.839	287.109	84.4018	287.109	84.3572	287.109	83.8828	287.109	83.8993	287.109	83.4563	287.109	83.5212	287.109	83.1762	287.109	83.2658	287.109	83.0516	287.109	83.1391	287.109	83.0405	287.109	83.1059	287.109	83.0769	287.109	83.1108	287.109	83.107
297.363	87.5146	297.363	87.4688	297.363	87.4766	297.363	87.3471	297.363	87.3513	297.363	87.1617	297.363	87.1411	297.363	86.9264	297.363	86.8539	297.363	86.6539	297.363	86.5023	297.363	86.3529	297.363	86.1017	297.363	86.0257	297.363	85.6673	297.363	85.6686	297.363	85.2109	297.363	85.2767	297.363	84.7418	297.363	84.8503	297.363	84.272	297.363	84.404	297.363	83.8242	297.363	83.9725	297.363	83.4374	297.363	83.6064	297.363	83.1588	297.363	83.3538	297.363	83.0204	297.363	83.2314	297.363	83.0132	297.363	83.209	297.363	83.0862	297.363	83.2259	297.363	83.1727	297.363	83.2234
307.617	87.7901	307.617	87.7415	307.617	87.7741	307.617	87.6284	307.617	87.6939	307.617	87.4519	307.617	87.5494	307.617	87.2152	307.617	87.3401	307.617	86.9234	307.617	87.0654	307.617	86.5833	307.617	86.7242	307.617	86.2019	307.617	86.3153	307.617	85.7868	307.617	85.838	307.617	85.3468	307.617	85.2942	307.617	84.8961	307.617	84.6947	307.617	84.4576	307.617	84.0688	307.617	84.0635	307.617	83.4747	307.617	83.7476	307.617	82.9973	307.617	83.53	307.617	82.7176	307.617	83.4021	307.617	82.6611	307.617	83.3259	307.617	82.7738	307.617	83.2489	307.617	82.9579	307.617	83.1292
319.336	87.1506	319.336	87.1138	319.336	87.1198	319.336	87.0104	319.336	87.0239	319.336	86.8438	319.336	86.8683	319.336	86.6178	319.336	86.6604	319.336	86.3351	319.336	86.4072	319.336	85.9959	319.336	86.1125	319.336	85.5994	319.336	85.7761	319.336	85.1465	319.336	85.3951	319.336	84.6463	319.336	84.968	319.336	84.1247	319.336	84.5024	319.336	83.6318	319.336	84.0234	319.336	83.2382	319.336	83.579	319.336	83.0079	319.336	83.2332	319.336	82.9583	319.336	83.0393	319.336	83.0413	319.336	83.0062	319.336	83.1696	319.336	83.0861	319.336	83.2616	319.336	83.1993	319.336	83.2718
329.59	87.2764	329.59	87.2459	329.59	87.2387	329.59	87.15	329.59	87.1324	329.59	86.9933	329.59	86.9594	329.59	86.7793	329.59	86.7228	329.59	86.5079	329.59	86.4243	329.59	86.1731	329.59	86.0621	329.59	85.7635	329.59	85.6303	329.59	85.2655	329.59	85.1216	329.59	84.6722	329.59	84.5331	329.59	83.9967	329.59	83.878	329.59	83.2895	329.59	83.1997	329.59	82.6479	329.59	82.581	329.59	82.1947	329.59	82.1297	329.59	82.0073	329.59	81.9245	329.59	82.0529	329.59	81.9537	329.59	82.2095	329.59	82.1178	329.59	82.3463	329.59	82.2913	329.59	82.3806
341.309	87.0154	341.309	86.9582	341.309	86.9932	341.309	86.8257	341.309	86.8969	341.309	86.6304	341.309	86.7395	341.309	86.3895	341.309	86.5379	341.309	86.119	341.309	86.3068	341.309	85.8262	341.309	86.052	341.309	85.5048	341.309	85.7663	341.309	85.1361	341.309	85.4309	341.309	84.6974	341.309	85.0226	341.309	84.1777	341.309	84.5277	341.309	83.5971	341.309	83.9576	341.309	83.0225	341.309	83.3645	341.309	82.5616	341.309	82.8429	341.309	82.3117	341.309	82.4961	341.309	82.2852	341.309	82.3698	341.309	82.3941	341.309	82.4122	341.309	82.515	341.309	82.5102	341.309	82.5607
353.027	86.7574	353.027	86.7194	353.027	86.6919	353.027	86.5839	353.027	86.5224	353.027	86.3608	353.027	86.2539	353.027	86.063	353.027	85.8979	353.027	85.7048	353.027	85.4715	353.027	85.2981	353.027	84.9952	353.027	84.8498	353.027	84.4876	353.027	84.3604	353.027	83.9612	353.027	83.8279	353.027	83.4221	353.027	83.2598	353.027	82.8797	353.027	82.6901	353.027	82.3652	353.027	82.1945	353.027	81.9464	353.027	81.876	353.027	81.7129	353.027	81.8053	353.027	81.7178	353.027	81.9546	353.027	81.9192	353.027	82.2049	353.027	82.1964	353.027	82.4194	353.027	82.4194	353.027	82.5026
366.211	87.0595	366.211	86.9533	366.211	87.078	366.211	86.7663	366.211	87.0074	366.211	86.5102	366.211	86.8501	366.211	86.2	366.211	86.6105	366.211	85.8492	366.211	86.2913	366.211	85.4638	366.211	85.8896	366.211	85.0365	366.211	85.393	366.211	84.5462	366.211	84.7795	366.211	83.9659	366.211	84.0226	366.211	83.2788	366.211	83.1064	366.211	82.5041	366.211	82.0553	366.211	81.7243	366.211	80.9827	366.211	81.0892	366.211	80.1255	366.211	80.7469	366.211	79.7472	366.211	80.7171	366.211	79.8865	366.211	80.8594	366.211	80.3017	366.211	80.9833	366.211	80.7107	366.211	80.9515
379.395	87.338	379.395	87.2916	379.395	87.3036	379.395	87.1622	379.395	87.1949	379.395	86.9522	379.395	87.0214	379.395	86.6669	379.395	86.7932	379.395	86.3129	379.395	86.5177	379.395	85.894	379.395	86.1964	379.395	85.4082	379.395	85.8217	379.395	84.8444	379.395	85.3759	379.395	84.1858	379.395	84.8327	379.395	83.4206	379.395	84.1641	379.395	82.5662	379.395	83.3529	379.395	81.6999	379.395	82.418	379.395	80.9721	379.395	81.4515	379.395	80.5442	379.395	80.6416	379.395	80.4491	379.395	80.1989	379.395	80.5424	379.395	80.1693	379.395	80.6242	379.395	80.3711	379.395	80.5677
392.578	86.667	392.578	86.647	392.578	86.6076	392.578	86.5494	392.578	86.4773	392.578	86.3854	392.578	86.2941	392.578	86.1699	392.578	86.0805	392.578	85.9156	392.578	85.8557	392.578	85.6246	392.578	85.6256	392.578	85.2844	392.578	85.3761	392.578	84.8696	392.578	85.075	392.578	84.3504	392.578	84.6818	392.578	83.7067	392.578	84.1639	392.578	82.9497	392.578	83.5158	392.578	82.1493	392.578	82.7822	392.578	81.45	392.578	82.0737	392.578	81.0242	392.578	81.5437	392.578	80.9409	392.578	81.2946	392.578	81.0915	392.578	81.2862	392.578	81.2869	392.578	81.3671	392.578	81.3902
405.762	86.2917	405.762	86.2311	405.762	86.2229	405.762	86.0503	405.762	86.0301	405.762	85.7722	405.762	85.7343	405.762	85.4315	405.762	85.3708	405.762	85.068	405.762	84.9845	405.762	84.7138	405.762	84.6165	405.762	84.3781	405.762	84.2854	405.762	84.0393	405.762	83.9747	405.762	83.6533	405.762	83.6386	405.762	83.1775	405.762	83.2253	405.762	82.5998	405.762	82.7085	405.762	81.9689	405.762	82.1181	405.762	81.4071	405.762	81.5584	405.762	81.0679	405.762	81.1798	405.762	81.0201	405.762	81.0754	405.762	81.1742	405.762	81.1878	405.762	81.3568	405.762	81.3551	405.762	81.4314
420.41	86.9102	420.41	86.8053	420.41	86.8713	420.41	86.567	420.41	86.6846	420.41	86.2118	420.41	86.3541	420.41	85.7628	420.41	85.8938	420.41	85.2494	420.41	85.3298	420.41	84.7036	420.41	84.6999	420.41	84.1503	420.41	84.0472	420.41	83.5946	420.41	83.4041	420.41	83.0174	420.41	82.7754	420.41	82.3916	420.41	82.1372	420.41	81.7178	420.41	81.4653	420.41	81.0652	420.41	80.7866	420.41	80.578	420.41	80.218	420.41	80.3915	420.41	79.9307	420.41	80.4967	420.41	80.0038	420.41	80.7294	420.41	80.3225	420.41	80.8997	420.41	80.6734	420.41	80.8893
435.059	87.1036	435.059	87.0017	435.059	87.0852	435.059	86.7839	435.059	86.9473	435.059	86.4604	435.059	86.6962	435.059	86.0475	435.059	86.3434	435.059	85.5667	435.059	85.9048	435.059	85.0436	435.059	85.3978	435.059	84.5019	435.059	84.8378	435.059	83.9548	435.059	84.2335	435.059	83.3973	435.059	83.5858	435.059	82.8095	435.059	82.8919	435.059	82.1778	435.059	82.1606	435.059	81.5305	435.059	81.4385	435.059	80.9648	435.059	80.8325	435.059	80.6191	435.059	80.4816	435.059	80.5646	435.059	80.4485	435.059	80.7175	435.059	80.6368	435.059	80.9004	435.059	80.8597	435.059	80.9656
451.172	87.7932	451.172	87.7525	451.172	87.7	451.172	87.5773	451.172	87.4796	451.172	87.2727	451.172	87.1434	451.172	86.8485	451.172	86.7056	451.172	86.3163	451.172	86.1803	451.172	85.6869	451.172	85.5798	451.172	84.9694	451.172	84.9127	451.172	84.1741	451.172	84.1847	451.172	83.3207	451.172	83.4028	451.172	82.4537	451.172	82.586	451.172	81.6641	451.172	81.7857	451.172	81.0967	451.172	81.1107	451.172	80.893	451.172	80.7224	451.172	81.071	451.172	80.7396	451.172	81.483	451.172	81.1074	451.172	81.9172	451.172	81.6149	451.172	82.206	451.172	82.043	451.172	82.256
465.82	87.9571	465.82	87.8447	465.82	87.9502	465.82	87.6198	465.82	87.8233	465.82	87.2952	465.82	87.5827	465.82	86.8879	465.82	87.2403	465.82	86.4147	465.82	86.8097	465.82	85.8856	465.82	86.2996	465.82	85.295	465.82	85.7066	465.82	84.6186	465.82	85.011	465.82	83.8216	465.82	84.1807	465.82	82.8825	465.82	83.1867	465.82	81.8358	465.82	82.0366	465.82	80.8352	465.82	80.8359	465.82	80.1722	465.82	79.8587	465.82	80.0814	465.82	79.4652	465.82	80.4526	465.82	79.7381	465.82	80.9357	465.82	80.352	465.82	81.246	465.82	80.9277	465.82	81.2506
483.398	87.8219	483.398	87.7642	483.398	87.7622	483.398	87.5953	483.398	87.5899	483.398	87.3276	483.398	87.3225	483.398	86.9738	483.398	86.9864	483.398	86.54	483.398	86.6074	483.398	86.0205	483.398	86.1974	483.398	85.3947	483.398	85.7436	483.398	84.6297	483.398	85.2089	483.398	83.6917	483.398	84.5451	483.398	82.5773	483.398	83.7153	483.398	81.3819	483.398	82.7288	483.398	80.3909	483.398	81.6973	483.398	80.0155	483.398	80.8885	483.398	80.3721	483.398	80.6232	483.398	81.1051	483.398	80.9455	483.398	81.8011	483.398	81.5434	483.398	82.2348	483.398	82.0695	483.398	82.3249
499.512	87.7231	499.512	87.6488	499.512	87.6449	499.512	87.4361	499.512	87.417	499.512	87.1167	499.512	87.0595	499.512	86.7351	499.512	86.6088	499.512	86.3332	499.512	86.1132	499.512	85.9272	499.512	85.6165	499.512	85.4888	499.512	85.1312	499.512	84.9477	499.512	84.6189	499.512	84.2134	499.512	83.9979	499.512	83.2054	499.512	83.1801	499.512	81.9045	499.512	82.1284	499.512	80.4794	499.512	80.9488	499.512	79.4817	499.512	80.0088	499.512	79.5508	499.512	79.8086	499.512	80.4533	499.512	80.3848	499.512	81.4322	499.512	81.2364	499.512	82.0589	499.512	81.9169	499.512	82.2174
517.09	88.5681	517.09	88.4443	517.09	88.5126	517.09	88.1454	517.09	88.2849	517.09	87.6897	517.09	87.9035	517.09	87.1152	517.09	87.3995	517.09	86.4808	517.09	86.8153	517.09	85.8538	517.09	86.1957	517.09	85.2741	517.09	85.5701	517.09	84.7136	517.09	84.931	517.09	84.0688	517.09	84.2244	517.09	83.1991	517.09	83.3595	517.09	81.9836	517.09	82.2401	517.09	80.4063	517.09	80.8299	517.09	78.7604	517.09	79.3108	517.09	77.8831	517.09	78.3056	517.09	78.3445	517.09	78.4545	517.09	79.4148	517.09	79.3597	517.09	80.2489	517.09	80.1904	517.09	80.5245
536.133	88.5586	536.133	88.4637	536.133	88.47	536.133	88.1887	536.133	88.1982	536.133	87.7394	536.133	87.7489	536.133	87.126	536.133	87.1363	536.133	86.3677	536.133	86.387	536.133	85.4993	536.133	85.5461	536.133	84.5731	536.133	84.6787	536.133	83.6493	536.133	83.8577	536.133	82.7725	536.133	83.1306	536.133	81.9528	536.133	82.4913	536.133	81.1855	536.133	81.8977	536.133	80.5157	536.133	81.3387	536.133	80.0902	536.133	80.8973	536.133	80.0783	536.133	80.7231	536.133	80.4653	536.133	80.8798	536.133	81.014	536.133	81.2331	536.133	81.4605	536.133	81.5499	536.133	81.6505
555.176	88.8286	555.176	88.6988	555.176	88.817	555.176	88.4363	555.176	88.6617	555.176	88.0572	555.176	88.364	555.176	87.5832	555.176	87.9267	555.176	87.0332	555.176	87.352	555.176	86.4095	555.176	86.6378	555.176	85.685	555.176	85.7715	555.176	84.8002	555.176	84.7208	555.176	83.6734	555.176	83.4265	555.176	82.227	555.176	81.8094	555.176	80.4602	555.176	79.8351	555.176	78.6782	555.176	77.7828	555.176	77.805	555.176	76.7673	555.176	78.4841	555.176	77.6693	555.176	79.8732	555.176	79.3602	555.176	81.0774	555.176	80.782	555.176	81.8022	555.176	81.6661	555.176	82.0006
574.219	88.5011	574.219	88.4215	574.219	88.4579	574.219	88.2236	574.219	88.2974	574.219	87.9208	574.219	88.0335	574.219	87.5326	574.219	87.6867	574.219	87.0767	574.219	87.2759	574.219	86.5558	574.219	86.8058	574.219	85.9414	574.219	86.2524	574.219	85.1647	574.219	85.5562	574.219	84.1176	574.219	84.627	574.219	82.6657	574.219	83.3573	574.219	80.6947	574.219	81.6503	574.219	78.3512	574.219	79.5273	574.219	76.8383	574.219	77.5388	574.219	77.695	574.219	77.137	574.219	79.5819	574.219	78.5237	574.219	81.0613	574.219	80.1916	574.219	81.8407	574.219	81.378	574.219	81.9355
594.727	88.36	594.727	88.2771	594.727	88.2915	594.727	88.0536	594.727	88.0815	594.727	87.7216	594.727	87.7598	594.727	87.3336	594.727	87.3725	594.727	86.9476	594.727	86.97	594.727	86.5962	594.727	86.5806	594.727	86.2497	594.727	86.1814	594.727	85.807	594.727	85.6877	594.727	85.1186	594.727	84.9675	594.727	84.0145	594.727	83.8635	594.727	82.3159	594.727	82.2109	594.727	79.8707	594.727	79.9021	594.727	76.9089	594.727	77.3037	594.727	75.4724	594.727	76.3256	594.727	77.1328	594.727	77.8571	594.727	79.2465	594.727	79.6849	594.727	80.5911	594.727	80.7972	594.727	81.0962
615.234	88.4069	615.234	88.2525	615.234	88.3583	615.234	87.913	615.234	88.1094	615.234	87.4275	615.234	87.6856	615.234	86.8588	615.234	87.1396	615.234	86.2864	615.234	86.549	615.234	85.7775	615.234	85.9937	615.234	85.3367	615.234	85.5086	615.234	84.8757	615.234	85.0409	615.234	84.2334	615.234	84.4526	615.234	83.2227	615.234	83.559	615.234	81.6695	615.234	82.1648	615.234	79.5036	615.234	80.1151	615.234	77.2417	615.234	77.6101	615.234	76.7958	615.234	76.3297	615.234	78.517	615.234	77.8004	615.234	80.3555	615.234	79.887	615.234	81.4805	615.234	81.2685	615.234	81.7898
637.207	88.23	637.207	88.1288	637.207	88.1258	637.207	87.8338	637.207	87.8257	637.207	87.3827	637.207	87.3644	637.207	86.8477	637.207	86.8121	637.207	86.3311	637.207	86.2752	637.207	85.9238	637.207	85.8574	637.207	85.6307	637.207	85.5769	637.207	85.3304	637.207	85.3203	637.207	84.8131	637.207	84.8894	637.207	83.8412	637.207	84.0723	637.207	82.1733	637.207	82.6649	637.207	79.6178	637.207	80.4683	637.207	76.6329	637.207	77.4935	637.207	76.1355	637.207	75.427	637.207	78.4718	637.207	77.0079	637.207	80.5397	637.207	79.5182	637.207	81.6521	637.207	81.1662	637.207	81.855
659.18	88.8923	659.18	88.7611	659.18	88.7774	659.18	88.3794	659.18	88.4233	659.18	87.7558	659.18	87.8406	659.18	86.9346	659.18	87.0578	659.18	86.0266	659.18	86.1518	659.18	85.2137	659.18	85.2762	659.18	84.655	659.18	84.619	659.18	84.3194	659.18	84.2348	659.18	83.9605	659.18	83.9216	659.18	83.2556	659.18	83.3252	659.18	81.8839	659.18	82.0792	659.18	79.4855	659.18	79.8065	659.18	75.7926	659.18	76.1952	659.18	73.4775	659.18	73.3866	659.18	76.6478	659.18	76.2159	659.18	79.7076	659.18	79.3968	659.18	81.3452	659.18	81.1866	659.18	81.8013
682.617	88.4939	682.617	88.3544	682.617	88.4016	682.617	87.9936	682.617	88.0765	682.617	87.4335	682.617	87.5356	682.617	86.7237	682.617	86.8302	682.617	85.9696	682.617	86.066	682.617	85.3379	682.617	85.4003	682.617	84.9634	682.617	84.9642	682.617	84.7901	682.617	84.7315	682.617	84.5536	682.617	84.4897	682.617	83.9204	682.617	83.9428	682.617	82.56	682.617	82.7839	682.617	80.078	682.617	80.6567	682.617	75.9159	682.617	77.0437	682.617	71.5947	682.617	72.0657	682.617	74.8234	682.617	73.2335	682.617	78.3672	682.617	77.3408	682.617	80.1174	682.617	79.6475	682.617	80.5021
707.52	88.8656	707.52	88.739	707.52	88.7621	707.52	88.3724	707.52	88.4309	707.52	87.758	707.52	87.8688	707.52	86.9129	707.52	87.084	707.52	85.9209	707.52	86.1332	707.52	84.9778	707.52	85.1746	707.52	84.3439	707.52	84.4683	707.52	84.1082	707.52	84.1826	707.52	84.0221	707.52	84.1421	707.52	83.6671	707.52	83.9249	707.52	82.6347	707.52	83.1103	707.52	80.4785	707.52	81.2956	707.52	76.5119	707.52	77.9009	707.52	71.2918	707.52	72.3224	707.52	74.6329	707.52	72.683	707.52	78.757	707.52	77.6213	707.52	80.7482	707.52	80.2571	707.52	81.1995
732.422	89.3942	732.422	89.2462	732.422	89.3162	732.422	88.8693	732.422	89.012	732.422	88.258	732.422	88.475	732.422	87.4092	732.422	87.6947	732.422	86.3477	732.422	86.6768	732.422	85.1908	732.422	85.499	732.422	84.2109	732.422	84.3836	732.422	83.688	732.422	83.6459	732.422	83.5223	732.422	83.3631	732.422	83.2339	732.422	83.179	732.422	82.3214	732.422	82.5782	732.422	80.3292	732.422	81.0752	732.422	76.6127	732.422	78.0758	732.422	70.8472	732.422	72.8165	732.422	72.7844	732.422	71.6541	732.422	77.4336	732.422	76.6982	732.422	79.7456	732.422	79.4615	732.422	80.3657
757.324	89.5283	757.324	89.4099	757.324	89.4373	757.324	89.0763	757.324	89.1316	757.324	88.5154	757.324	88.6011	757.324	87.7248	757.324	87.8477	757.324	86.743	757.324	86.914	757.324	85.6976	757.324	85.9201	757.324	84.8304	757.324	85.0751	757.324	84.3639	757.324	84.5745	757.324	84.2233	757.324	84.3874	757.324	84.0205	757.324	84.214	757.324	83.3066	757.324	83.6689	757.324	81.6619	757.324	82.3842	757.324	78.549	757.324	79.9298	757.324	73.1824	757.324	75.6474	757.324	70.8047	757.324	70.8583	757.324	75.6227	757.324	74.2716	757.324	78.2507	757.324	77.6454	757.324	78.8519
785.156	90.0062	785.156	89.9078	785.156	89.8932	785.156	89.5867	785.156	89.5739	785.156	89.0235	785.156	89.0431	785.156	88.1942	785.156	88.2796	785.156	87.0992	785.156	87.2604	785.156	85.8406	785.156	86.0238	785.156	84.7307	785.156	84.7905	785.156	84.1908	785.156	84.0061	785.156	84.2301	785.156	83.9083	785.156	84.3126	785.156	84.0756	785.156	83.8502	785.156	83.8461	785.156	82.3591	785.156	82.6888	785.156	79.1907	785.156	80.0269	785.156	72.9259	785.156	74.7296	785.156	70.9248	785.156	70.0921	785.156	77.3203	785.156	76.4444	785.156	80.2248	785.156	79.8658	785.156	80.958
811.523	89.6274	811.523	89.5054	811.523	89.5263	811.523	89.1637	811.523	89.1927	811.523	88.5904	811.523	88.6198	811.523	87.7651	811.523	87.8048	811.523	86.6864	811.523	86.755	811.523	85.4287	811.523	85.5262	811.523	84.2376	811.523	84.3132	811.523	83.5425	811.523	83.4979	811.523	83.5371	811.523	83.3361	811.523	83.7726	811.523	83.509	811.523	83.5778	811.523	83.3881	811.523	82.4288	811.523	82.4484	811.523	79.8188	811.523	80.2373	811.523	75.0257	811.523	76.2247	811.523	71.1385	811.523	71.9838	811.523	75.4825	811.523	74.8419	811.523	78.3231	811.523	77.9353	811.523	79.0343
840.82	89.7916	840.82	89.7001	840.82	89.6557	840.82	89.3653	840.82	89.3082	840.82	88.7766	840.82	88.747	840.82	87.9188	840.82	87.9427	840.82	86.7731	840.82	86.8599	840.82	85.3711	840.82	85.5217	840.82	83.9335	840.82	84.1248	840.82	82.9643	840.82	83.1221	840.82	82.8084	840.82	82.8816	840.82	83.0515	840.82	83.0904	840.82	82.9629	840.82	83.0394	840.82	81.9497	840.82	82.1326	840.82	79.3731	840.82	79.8207	840.82	74.073	840.82	75.2662	840.82	70.0114	840.82	70.1805	840.82	75.9674	840.82	74.8904	840.82	78.9609	840.82	78.4063	840.82	79.6265
870.117	89.2475	870.117	89.1031	870.117	89.2033	870.117	88.7792	870.117	88.9518	870.117	88.2587	870.117	88.4721	870.117	87.4937	870.117	87.731	870.117	86.4292	870.117	86.6778	870.117	85.059	870.117	85.2786	870.117	83.5511	870.117	83.6346	870.117	82.4174	870.117	82.2119	870.117	82.1831	870.117	81.7317	870.117	82.4966	870.117	82.0949	870.117	82.5	870.117	82.3726	870.117	81.5743	870.117	81.8367	870.117	79.204	870.117	79.9672	870.117	74.4595	870.117	75.9669	870.117	68.4314	870.117	69.6465	870.117	74.0293	870.117	73.4637	870.117	77.7531	870.117	77.5509	870.117	78.7841
900.879	89.2095	900.879	89.0855	900.879	89.1125	900.879	88.7393	900.879	88.7997	900.879	88.1697	900.879	88.2705	900.879	87.3585	900.879	87.5095	900.879	86.2605	900.879	86.4864	900.879	84.8366	900.879	85.1767	900.879	83.1739	900.879	83.6316	900.879	81.7326	900.879	82.1393	900.879	81.2525	900.879	81.2942	900.879	81.6176	900.879	81.3248	900.879	81.8309	900.879	81.5305	900.879	81.0966	900.879	81.0447	900.879	78.7935	900.879	79.1746	900.879	73.9034	900.879	74.9027	900.879	68.8985	900.879	68.1727	900.879	74.7218	900.879	73.6901	900.879	78.0851	900.879	77.7461	900.879	78.9718
933.105	89.1595	933.105	88.9934	933.105	89.1034	933.105	88.629	933.105	88.8192	933.105	88.0911	933.105	88.3152	933.105	87.3741	933.105	87.5935	933.105	86.4251	933.105	86.627	933.105	85.1811	933.105	85.3614	933.105	83.673	933.105	83.7829	933.105	82.1983	933.105	82.1191	933.105	81.3241	933.105	81.0455	933.105	81.1833	933.105	80.9737	933.105	81.0675	933.105	81.1385	933.105	80.1434	933.105	80.5404	933.105	77.6439	933.105	78.4139	933.105	72.2275	933.105	73.5359	933.105	68	933.105	66.3706	933.105	74.9	933.105	73.765	933.105	78.2011	933.105	77.7743	933.105	79.0227
965.332	88.9041	965.332	88.7396	965.332	88.8213	965.332	88.3511	965.332	88.4929	965.332	87.761	965.332	87.9518	965.332	86.9646	965.332	87.2287	965.332	85.9152	965.332	86.2931	965.332	84.524	965.332	85.0412	965.332	82.7123	965.332	83.4014	965.332	80.6873	965.332	81.6033	965.332	79.5258	965.332	80.5039	965.332	80.0644	965.332	80.7144	965.332	80.952	965.332	81.3074	965.332	80.8628	965.332	81.178	965.332	79.0998	965.332	79.6677	965.332	74.5671	965.332	75.8971	965.332	66.5389	965.332	67.6015	965.332	73.5785	965.332	71.0387	965.332	77.5333	965.332	76.5337	965.332	78.3062
1,000.49	89.0735	1,000.49	88.9045	1,000.49	88.9705	1,000.49	88.4855	1,000.49	88.6117	1,000.49	87.8609	1,000.49	88.0444	1,000.49	87.0606	1,000.49	87.3108	1,000.49	86.0544	1,000.49	86.4043	1,000.49	84.7452	1,000.49	85.2645	1,000.49	83.0622	1,000.49	83.8256	1,000.49	81.2121	1,000.49	82.1237	1,000.49	80.0016	1,000.49	80.5519	1,000.49	80.053	1,000.49	79.9281	1,000.49	80.5132	1,000.49	80.2454	1,000.49	80.2608	1,000.49	80.3113	1,000.49	78.5219	1,000.49	79.0927	1,000.49	74.0844	1,000.49	75.593	1,000.49	64.6708	1,000.49	67.5179	1,000.49	72.5499	1,000.49	70.686	1,000.49	76.98	1,000.49	76.2841	1,000.49	77.973
1,035.64	88.8855	1,035.64	88.6949	1,035.64	88.7785	1,035.64	88.2347	1,035.64	88.372	1,035.64	87.5439	1,035.64	87.7083	1,035.64	86.6536	1,035.64	86.8737	1,035.64	85.5702	1,035.64	85.9287	1,035.64	84.2644	1,035.64	84.808	1,035.64	82.6685	1,035.64	83.3371	1,035.64	80.7986	1,035.64	81.4474	1,035.64	79.2595	1,035.64	79.6757	1,035.64	79.2191	1,035.64	79.2872	1,035.64	80.0982	1,035.64	80.0692	1,035.64	80.333	1,035.64	80.5129	1,035.64	79.1162	1,035.64	79.7678	1,035.64	75.725	1,035.64	77.1746	1,035.64	68.7275	1,035.64	71.3494	1,035.64	70.5588	1,035.64	69.1906	1,035.64	75.7067	1,035.64	75.1391	1,035.64	77.0236
1,072.27	89.1573	1,072.27	88.9766	1,072.27	89.0069	1,072.27	88.4916	1,072.27	88.5384	1,072.27	87.7532	1,072.27	87.8157	1,072.27	86.8251	1,072.27	86.9291	1,072.27	85.7639	1,072.27	85.92	1,072.27	84.5485	1,072.27	84.7176	1,072.27	83.0052	1,072.27	83.1739	1,072.27	80.9395	1,072.27	81.1969	1,072.27	78.7666	1,072.27	79.0877	1,072.27	78.1262	1,072.27	78.0807	1,072.27	78.9878	1,072.27	78.7511	1,072.27	79.3893	1,072.27	79.4325	1,072.27	78.3081	1,072.27	78.736	1,072.27	74.918	1,072.27	75.6634	1,072.27	69.1955	1,072.27	69.0893	1,072.27	73.246	1,072.27	72.1179	1,072.27	77.2691	1,072.27	76.861	1,072.27	78.3162
1,108.89	88.9662	1,108.89	88.7868	1,108.89	88.7887	1,108.89	88.2634	1,108.89	88.2896	1,108.89	87.4777	1,108.89	87.5184	1,108.89	86.5457	1,108.89	86.5265	1,108.89	85.5245	1,108.89	85.369	1,108.89	84.3375	1,108.89	84.0814	1,108.89	82.8112	1,108.89	82.6041	1,108.89	80.8366	1,108.89	80.7612	1,108.89	78.7473	1,108.89	78.5815	1,108.89	77.8459	1,108.89	77.2551	1,108.89	78.6265	1,108.89	77.9678	1,108.89	79.3348	1,108.89	78.8532	1,108.89	78.5873	1,108.89	78.2726	1,108.89	75.3674	1,108.89	75.2385	1,108.89	68.7139	1,108.89	67.1243	1,108.89	72.3773	1,108.89	69.5566	1,108.89	76.7361	1,108.89	75.8122	1,108.89	77.6921
1,148.44	88.5599	1,148.44	88.3742	1,148.44	88.4007	1,148.44	87.8651	1,148.44	87.8915	1,148.44	87.0643	1,148.44	87.0667	1,148.44	86.0452	1,148.44	86.0081	1,148.44	84.9255	1,148.44	84.8193	1,148.44	83.748	1,148.44	83.5748	1,148.44	82.3628	1,148.44	82.2588	1,148.44	80.5366	1,148.44	80.728	1,148.44	78.28	1,148.44	78.8362	1,148.44	76.5076	1,148.44	77.0352	1,148.44	76.6354	1,148.44	76.6343	1,148.44	77.4615	1,148.44	77.1124	1,148.44	77.0204	1,148.44	76.6237	1,148.44	74.1398	1,148.44	74.0099	1,148.44	68.7781	1,148.44	67.5603	1,148.44	72.0768	1,148.44	67.752	1,148.44	75.8562	1,148.44	74.194	1,148.44	76.4837
1,189.45	88.5039	1,189.45	88.3017	1,189.45	88.3669	1,189.45	87.7699	1,189.45	87.8876	1,189.45	86.9305	1,189.45	87.0804	1,189.45	85.8436	1,189.45	86.0072	1,189.45	84.6161	1,189.45	84.7802	1,189.45	83.3097	1,189.45	83.4883	1,189.45	81.8443	1,189.45	82.1078	1,189.45	80.1228	1,189.45	80.4988	1,189.45	78.3003	1,189.45	78.5681	1,189.45	77.0252	1,189.45	76.8168	1,189.45	76.9478	1,189.45	76.4972	1,189.45	77.2108	1,189.45	77.1692	1,189.45	76.2497	1,189.45	77.0474	1,189.45	72.6943	1,189.45	74.7738	1,189.45	67.1124	1,189.45	67.7944	1,189.45	72.8763	1,189.45	68.7786	1,189.45	76.861	1,189.45	75.6816	1,189.45	77.7436
1,230.47	88.6655	1,230.47	88.4526	1,230.47	88.5227	1,230.47	87.9104	1,230.47	88.0452	1,230.47	87.0986	1,230.47	87.2748	1,230.47	86.0754	1,230.47	86.2486	1,230.47	84.8829	1,230.47	85.0251	1,230.47	83.5738	1,230.47	83.6956	1,230.47	82.1805	1,230.47	82.2859	1,230.47	80.5469	1,230.47	80.7058	1,230.47	78.3997	1,230.47	78.9586	1,230.47	76.378	1,230.47	77.502	1,230.47	76.4731	1,230.47	77.158	1,230.47	77.3625	1,230.47	77.6107	1,230.47	76.6462	1,230.47	77.3421	1,230.47	72.8826	1,230.47	75.0011	1,230.47	62.2188	1,230.47	68.3624	1,230.47	71.1157	1,230.47	66.5576	1,230.47	75.8859	1,230.47	74.1972	1,230.47	76.6389
1,274.41	88.7274	1,274.41	88.6098	1,274.41	88.5219	1,274.41	88.1691	1,274.41	87.99	1,274.41	87.4239	1,274.41	87.158	1,274.41	86.4108	1,274.41	86.1208	1,274.41	85.1734	1,274.41	84.9491	1,274.41	83.7716	1,274.41	83.6063	1,274.41	82.2233	1,274.41	82.0656	1,274.41	80.3931	1,274.41	80.3608	1,274.41	78.1035	1,274.41	78.4449	1,274.41	75.9817	1,274.41	76.6579	1,274.41	76.239	1,274.41	76.5021	1,274.41	77.8108	1,274.41	77.6651	1,274.41	77.8943	1,274.41	78.0098	1,274.41	75.0639	1,274.41	76.2782	1,274.41	66.2444	1,274.41	70.4517	1,274.41	70.657	1,274.41	65.2908	1,274.41	76.1839	1,274.41	74.5143	1,274.41	77.1503
1,319.82	88.5499	1,319.82	88.4	1,319.82	88.3434	1,319.82	87.8895	1,319.82	87.7687	1,319.82	87.042	1,319.82	86.8337	1,319.82	85.9839	1,319.82	85.651	1,319.82	84.876	1,319.82	84.4772	1,319.82	83.7384	1,319.82	83.5017	1,319.82	82.4489	1,319.82	82.4933	1,319.82	80.7999	1,319.82	80.9588	1,319.82	78.5927	1,319.82	78.7465	1,319.82	76.1287	1,319.82	76.5481	1,319.82	74.9575	1,319.82	75.8385	1,319.82	75.9145	1,319.82	76.787	1,319.82	76.6047	1,319.82	77.3811	1,319.82	74.7744	1,319.82	75.7979	1,319.82	67.7056	1,319.82	69.8766	1,319.82	70.0985	1,319.82	66.8172	1,319.82	75.9675	1,319.82	74.677	1,319.82	77.0911
1,366.7	88.3537	1,366.7	88.176	1,366.7	88.0986	1,366.7	87.5453	1,366.7	87.4858	1,366.7	86.5369	1,366.7	86.5933	1,366.7	85.3496	1,366.7	85.4401	1,366.7	84.201	1,366.7	84.0654	1,366.7	83.1269	1,366.7	82.7147	1,366.7	81.9698	1,366.7	81.6229	1,366.7	80.5434	1,366.7	80.4533	1,366.7	78.7891	1,366.7	78.7144	1,366.7	76.8012	1,366.7	76.6366	1,366.7	75.0824	1,366.7	75.2929	1,366.7	75.1821	1,366.7	75.4361	1,366.7	75.7651	1,366.7	75.9634	1,366.7	73.3876	1,366.7	74.5447	1,366.7	61.899	1,366.7	67.5077	1,366.7	70.7521	1,366.7	65.9452	1,366.7	76.2931	1,366.7	74.9237	1,366.7	77.3025
1,413.57	88.0135	1,413.57	87.829	1,413.57	87.7804	1,413.57	87.2163	1,413.57	87.1064	1,413.57	86.1859	1,413.57	86.0593	1,413.57	84.8906	1,413.57	84.858	1,413.57	83.5665	1,413.57	83.6849	1,413.57	82.3329	1,413.57	82.4967	1,413.57	81.0204	1,413.57	81.1779	1,413.57	79.4309	1,413.57	79.7664	1,413.57	77.8058	1,413.57	78.3755	1,413.57	76.2417	1,413.57	77.0524	1,413.57	75.1099	1,413.57	75.9673	1,413.57	75.9852	1,413.57	76.1132	1,413.57	76.8491	1,413.57	77.0942	1,413.57	75.242	1,413.57	76.669	1,413.57	68.1257	1,413.57	73.2135	1,413.57	64.3303	1,413.57	63.4621	1,413.57	72.6703	1,413.57	67.6163	1,413.57	72.872
1,463.38	88.472	1,463.38	88.1663	1,463.38	88.2617	1,463.38	87.3626	1,463.38	87.5636	1,463.38	86.1607	1,463.38	86.4169	1,463.38	84.6714	1,463.38	84.997	1,463.38	83.0953	1,463.38	83.6363	1,463.38	81.7909	1,463.38	82.4016	1,463.38	80.6848	1,463.38	80.9717	1,463.38	79.1224	1,463.38	79.2107	1,463.38	77.0491	1,463.38	77.3993	1,463.38	75.2668	1,463.38	75.9779	1,463.38	73.8932	1,463.38	75.3012	1,463.38	74.2707	1,463.38	75.7922	1,463.38	75.7953	1,463.38	76.7559	1,463.38	75.0769	1,463.38	76.455	1,463.38	69.9823	1,463.38	73.3454	1,463.38	63.6459	1,463.38	67.5687	1,463.38	72.7832	1,463.38	71.8513	1,463.38	74.6218
1,516.11	88.9069	1,516.11	88.5879	1,516.11	88.667	1,516.11	87.7496	1,516.11	87.9717	1,516.11	86.5167	1,516.11	86.8799	1,516.11	85.0011	1,516.11	85.3706	1,516.11	83.4502	1,516.11	83.6199	1,516.11	82.2618	1,516.11	82.081	1,516.11	81.3617	1,516.11	80.9351	1,516.11	79.9413	1,516.11	79.6722	1,516.11	77.7598	1,516.11	77.5819	1,516.11	76.0656	1,516.11	75.1351	1,516.11	74.9201	1,516.11	74.1532	1,516.11	74.2336	1,516.11	74.7817	1,516.11	75.4484	1,516.11	75.8936	1,516.11	74.6117	1,516.11	75.5012	1,516.11	69.2939	1,516.11	72.2673	1,516.11	64.2484	1,516.11	68.5303	1,516.11	72.6338	1,516.11	72.6594	1,516.11	74.835
1,568.85	88.7292	1,568.85	88.4606	1,568.85	88.6291	1,568.85	87.8288	1,568.85	88.1974	1,568.85	86.856	1,568.85	87.3318	1,568.85	85.5152	1,568.85	85.9121	1,568.85	84.008	1,568.85	84.071	1,568.85	82.7906	1,568.85	82.2288	1,568.85	81.8866	1,568.85	81.0362	1,568.85	80.6993	1,568.85	80.4232	1,568.85	79.1682	1,568.85	78.8934	1,568.85	77.837	1,568.85	75.6877	1,568.85	76.2584	1,568.85	72.9917	1,568.85	74.696	1,568.85	73.2582	1,568.85	75.8052	1,568.85	75.2312	1,568.85	76.2571	1,568.85	75.8958	1,568.85	73.0028	1,568.85	72.6937	1,568.85	55.5001	1,568.85	62.9263	1,568.85	71.9896	1,568.85	73.0171	1,568.85	75.5487
1,624.51	87.6045	1,624.51	87.4051	1,624.51	87.3088	1,624.51	86.8883	1,624.51	86.8312	1,624.51	86.1674	1,624.51	86.316	1,624.51	84.9828	1,624.51	85.272	1,624.51	83.228	1,624.51	83.4273	1,624.51	81.2002	1,624.51	81.4281	1,624.51	79.982	1,624.51	80.1763	1,624.51	79.4523	1,624.51	79.4237	1,624.51	78.2288	1,624.51	77.7747	1,624.51	76.8727	1,624.51	74.9986	1,624.51	76.0931	1,624.51	73.7571	1,624.51	74.3748	1,624.51	73.0457	1,624.51	74.2556	1,624.51	73.5958	1,624.51	75.185	1,624.51	75.3821	1,624.51	74.0688	1,624.51	73.5323	1,624.51	67.9043	1,624.51	66.2247	1,624.51	69.7171	1,624.51	69.7441	1,624.51	73.1745
1,681.64	87.9412	1,681.64	87.7538	1,681.64	87.6504	1,681.64	87.2558	1,681.64	87.1245	1,681.64	86.4768	1,681.64	86.6653	1,681.64	85.336	1,681.64	85.8241	1,681.64	83.8391	1,681.64	84.2751	1,681.64	81.7167	1,681.64	82.7875	1,681.64	79.574	1,681.64	81.7995	1,681.64	79.0285	1,681.64	80.4293	1,681.64	78.0244	1,681.64	78.334	1,681.64	75.2278	1,681.64	75.5137	1,681.64	73.1282	1,681.64	72.6631	1,681.64	70.9256	1,681.64	72.0674	1,681.64	71.9449	1,681.64	71.3961	1,681.64	73.2386	1,681.64	71.4102	1,681.64	70.8647	1,681.64	71.0433	1,681.64	65.8348	1,681.64	67.1457	1,681.64	69.3447	1,681.64	68.5907	1,681.64	72.4148
1,741.7	88.8314	1,741.7	88.6481	1,741.7	88.7139	1,741.7	88.1075	1,741.7	88.1707	1,741.7	86.9898	1,741.7	87.4024	1,741.7	85.5858	1,741.7	86.5414	1,741.7	84.3163	1,741.7	85.3452	1,741.7	82.7974	1,741.7	84.0979	1,741.7	81.0808	1,741.7	83.0729	1,741.7	79.8215	1,741.7	81.4908	1,741.7	77.7871	1,741.7	79.4696	1,741.7	74.8902	1,741.7	77.8108	1,741.7	73.8959	1,741.7	76.0276	1,741.7	72.7624	1,741.7	74.1211	1,741.7	74.094	1,741.7	72.2296	1,741.7	75.6669	1,741.7	73.674	1,741.7	73.0111	1,741.7	73.2734	1,741.7	66.6822	1,741.7	68.5264	1,741.7	69.179	1,741.7	70.1649	1,741.7	72.3546
1,803.22	88.6724	1,803.22	88.5661	1,803.22	88.3154	1,803.22	87.939	1,803.22	87.5894	1,803.22	86.9247	1,803.22	86.5995	1,803.22	85.8319	1,803.22	85.4225	1,803.22	84.4211	1,803.22	84.0676	1,803.22	82.4079	1,803.22	82.4608	1,803.22	80.9108	1,803.22	81.0957	1,803.22	80.3306	1,803.22	80.4098	1,803.22	78.668	1,803.22	79.3482	1,803.22	75.5546	1,803.22	77.576	1,803.22	74.2746	1,803.22	76.1263	1,803.22	73.8363	1,803.22	74.7851	1,803.22	72.9891	1,803.22	70.3929	1,803.22	75.0858	1,803.22	70.9734	1,803.22	73.6898	1,803.22	72.9922	1,803.22	69.2335	1,803.22	69.9452	1,803.22	70.4513	1,803.22	69.6493	1,803.22	72.526
1,866.21	88.7071	1,866.21	88.4082	1,866.21	88.4259	1,866.21	87.6509	1,866.21	87.6036	1,866.21	86.5347	1,866.21	86.5658	1,866.21	85.4156	1,866.21	85.5384	1,866.21	84.468	1,866.21	84.6909	1,866.21	83.3672	1,866.21	83.2748	1,866.21	81.8507	1,866.21	80.3568	1,866.21	80.5034	1,866.21	78.8814	1,866.21	79.0528	1,866.21	79.6605	1,866.21	76.6151	1,866.21	77.971	1,866.21	75.2607	1,866.21	75.1844	1,866.21	76.2092	1,866.21	74.9861	1,866.21	75.0267	1,866.21	73.7229	1,866.21	74.3471	1,866.21	71.6136	1,866.21	73.3485	1,866.21	71.7703	1,866.21	70.9846	1,866.21	71.6915	1,866.21	74.7053	1,866.21	72.6536	1,866.21	75.0473
1,932.13	88.2504	1,932.13	87.7952	1,932.13	88.5934	1,932.13	87.5284	1,932.13	88.1147	1,932.13	86.6441	1,932.13	87.0391	1,932.13	85.1799	1,932.13	86.2603	1,932.13	84.3116	1,932.13	85.561	1,932.13	83.6751	1,932.13	84.1341	1,932.13	81.8692	1,932.13	81.965	1,932.13	79.7234	1,932.13	80.0488	1,932.13	78.4185	1,932.13	79.8505	1,932.13	76.5817	1,932.13	78.0372	1,932.13	73.8357	1,932.13	73.7298	1,932.13	73.7008	1,932.13	73.3346	1,932.13	74.5832	1,932.13	74.3824	1,932.13	74.1533	1,932.13	74.9025	1,932.13	71.4638	1,932.13	74.2406	1,932.13	68.3083	1,932.13	68.7724	1,932.13	74.5064	1,932.13	71.5838	1,932.13	74.6476
1,999.51	88.6449	1,999.51	88.4524	1,999.51	88.7935	1,999.51	87.9938	1,999.51	88.3768	1,999.51	87.1894	1,999.51	87.2643	1,999.51	86.1346	1,999.51	86.3335	1,999.51	84.871	1,999.51	85.4021	1,999.51	83.6078	1,999.51	84.139	1,999.51	81.5344	1,999.51	83.0422	1,999.51	78.5126	1,999.51	81.1268	1,999.51	76.9406	1,999.51	78.3853	1,999.51	76.4643	1,999.51	76.4235	1,999.51	74.5865	1,999.51	74.8129	1,999.51	71.3583	1,999.51	73.7427	1,999.51	71.1641	1,999.51	73.8591	1,999.51	74.0544	1,999.51	74.5898	1,999.51	73.4636	1,999.51	74.0829	1,999.51	60.2467	1,999.51	67.5279	1,999.51	71.2114	1,999.51	69.1396	1,999.51	72.6135
2,069.82	87.8484	2,069.82	87.7293	2,069.82	87.6896	2,069.82	87.096	2,069.82	87.4629	2,069.82	86.5776	2,069.82	86.738	2,069.82	86.0636	2,069.82	85.634	2,069.82	84.9758	2,069.82	84.1812	2,069.82	83.3307	2,069.82	82.6342	2,069.82	81.6906	2,069.82	81.1619	2,069.82	80.3103	2,069.82	79.8492	2,069.82	79.3283	2,069.82	77.9407	2,069.82	78.3955	2,069.82	75.1694	2,069.82	76.523	2,069.82	74.3089	2,069.82	73.4244	2,069.82	73.9025	2,069.82	68.9455	2,069.82	72.8	2,069.82	71.5619	2,069.82	73.1086	2,069.82	72.6718	2,069.82	73.9514	2,069.82	63.966	2,069.82	70.9075	2,069.82	67.426	2,069.82	67.6961	2,069.82	73.1226
2,143.07	87.9597	2,143.07	88.1268	2,143.07	87.6329	2,143.07	87.8653	2,143.07	86.9354	2,143.07	86.7979	2,143.07	86.6552	2,143.07	85.89	2,143.07	85.7698	2,143.07	85.1312	2,143.07	84.3096	2,143.07	83.507	2,143.07	84.3694	2,143.07	81.661	2,143.07	82.5493	2,143.07	79.5961	2,143.07	78.585	2,143.07	77.957	2,143.07	78.6308	2,143.07	77.3655	2,143.07	78.6102	2,143.07	76.5069	2,143.07	75.7362	2,143.07	75.7952	2,143.07	73.8767	2,143.07	73.0271	2,143.07	72.6962	2,143.07	72.9551	2,143.07	71.9023	2,143.07	73.8082	2,143.07	73.2031	2,143.07	70.9377	2,143.07	64.9955	2,143.07	62.9777	2,143.07	66.1436	2,143.07	71.7485
2,219.24	88.5567	2,219.24	88.4113	2,219.24	88.4565	2,219.24	88.0555	2,219.24	87.9947	2,219.24	87.7051	2,219.24	87.3368	2,219.24	86.7777	2,219.24	86.2792	2,219.24	85.1024	2,219.24	85.1717	2,219.24	83.9634	2,219.24	84.5275	2,219.24	82.3796	2,219.24	83.0969	2,219.24	79.5368	2,219.24	80.5249	2,219.24	77.5089	2,219.24	79.794	2,219.24	76.2954	2,219.24	79.5774	2,219.24	72.4141	2,219.24	75.646	2,219.24	73.3116	2,219.24	73.04	2,219.24	72.5867	2,219.24	75.785	2,219.24	71.7411	2,219.24	75.7356	2,219.24	75.446	2,219.24	77.0729	2,219.24	73.1299	2,219.24	74.8247	2,219.24	66.5902	2,219.24	63.7434	2,219.24	66.6962
2,296.88	87.2501	2,296.88	87.585	2,296.88	86.8287	2,296.88	87.2321	2,296.88	86.779	2,296.88	86.5534	2,296.88	86.9705	2,296.88	86.1061	2,296.88	86.7672	2,296.88	85.0889	2,296.88	86.2232	2,296.88	84.0558	2,296.88	84.9018	2,296.88	82.2044	2,296.88	82.7242	2,296.88	78.9879	2,296.88	80.2646	2,296.88	78.0303	2,296.88	78.2724	2,296.88	78.3741	2,296.88	76.7071	2,296.88	75.6141	2,296.88	75.278	2,296.88	71.6582	2,296.88	74.4367	2,296.88	75.5068	2,296.88	72.7101	2,296.88	74.6301	2,296.88	71.3404	2,296.88	75.9933	2,296.88	75.1565	2,296.88	73.2319	2,296.88	74.0357	2,296.88	71.3547	2,296.88	68.2167	2,296.88	70.2817
2,378.91	87.5857	2,378.91	87.4374	2,378.91	87.4518	2,378.91	87.0074	2,378.91	87.4663	2,378.91	86.5331	2,378.91	86.9731	2,378.91	85.7409	2,378.91	86.2376	2,378.91	84.8077	2,378.91	85.7568	2,378.91	83.8574	2,378.91	84.2973	2,378.91	82.6147	2,378.91	82.4856	2,378.91	80.1039	2,378.91	80.7618	2,378.91	76.5625	2,378.91	78.2849	2,378.91	76.8816	2,378.91	78.1329	2,378.91	75.8965	2,378.91	76.9797	2,378.91	74.5393	2,378.91	74.1645	2,378.91	74.1729	2,378.91	74.0992	2,378.91	74.132	2,378.91	70.633	2,378.91	74.1556	2,378.91	73.2735	2,378.91	72.7279	2,378.91	72.8415	2,378.91	69.5742	2,378.91	72.2029	2,378.91	71.9616
2,462.4	87.1647	2,462.4	87.1264	2,462.4	87.4316	2,462.4	87.0009	2,462.4	87.2946	2,462.4	86.5838	2,462.4	86.8929	2,462.4	86.0921	2,462.4	86.6837	2,462.4	85.3868	2,462.4	85.9166	2,462.4	83.9108	2,462.4	84.5628	2,462.4	82.3995	2,462.4	83.409	2,462.4	81.0887	2,462.4	82.1946	2,462.4	78.8412	2,462.4	79.961	2,462.4	77.6009	2,462.4	78.0264	2,462.4	76.1295	2,462.4	76.6788	2,462.4	74.0653	2,462.4	74.679	2,462.4	75.001	2,462.4	74.8521	2,462.4	72.0219	2,462.4	73.6381	2,462.4	73.5499	2,462.4	73.5773	2,462.4	71.0259	2,462.4	74.0124	2,462.4	71.3647	2,462.4	67.2433	2,462.4	73.3925
2,548.83	86.7158	2,548.83	86.5156	2,548.83	86.6598	2,548.83	86.4425	2,548.83	86.3879	2,548.83	86.216	2,548.83	86.6079	2,548.83	85.934	2,548.83	85.9963	2,548.83	84.939	2,548.83	84.9628	2,548.83	83.6269	2,548.83	83.7222	2,548.83	82.1818	2,548.83	82.1384	2,548.83	80.1448	2,548.83	81.0086	2,548.83	77.854	2,548.83	79.0307	2,548.83	76.4523	2,548.83	77.3209	2,548.83	74.9213	2,548.83	76.7286	2,548.83	72.9015	2,548.83	73.5927	2,548.83	74.0217	2,548.83	74.7614	2,548.83	73.3495	2,548.83	72.9878	2,548.83	74.2859	2,548.83	72.4097	2,548.83	72.4566	2,548.83	70.8671	2,548.83	69.2812	2,548.83	70.7125	2,548.83	71.2276
2,639.65	86.5097	2,639.65	86.5706	2,639.65	86.5676	2,639.65	86.6761	2,639.65	86.8846	2,639.65	86.5785	2,639.65	87.0936	2,639.65	85.9163	2,639.65	86.6901	2,639.65	85.2355	2,639.65	85.9141	2,639.65	83.9028	2,639.65	84.8632	2,639.65	81.9793	2,639.65	83.1614	2,639.65	80.4613	2,639.65	81.0069	2,639.65	78.1057	2,639.65	79.2449	2,639.65	76.468	2,639.65	77.1106	2,639.65	75.3578	2,639.65	76.0441	2,639.65	71.8933	2,639.65	74.1734	2,639.65	72.8709	2,639.65	74.4349	2,639.65	70.4746	2,639.65	73.9406	2,639.65	72.6497	2,639.65	72.9526	2,639.65	69.8123	2,639.65	73.3582	2,639.65	69.6912	2,639.65	66.6204	2,639.65	73.0312
2,731.93	86.0213	2,731.93	86.3066	2,731.93	86.2303	2,731.93	86.7805	2,731.93	86.7063	2,731.93	86.924	2,731.93	87.141	2,731.93	86.6691	2,731.93	86.8686	2,731.93	86.0047	2,731.93	85.9868	2,731.93	84.7615	2,731.93	84.829	2,731.93	83.0995	2,731.93	83.3404	2,731.93	81.4097	2,731.93	81.51	2,731.93	79.4318	2,731.93	79.6774	2,731.93	78.0711	2,731.93	77.5039	2,731.93	76.0585	2,731.93	76.3846	2,731.93	73.0805	2,731.93	73.8149	2,731.93	74.8303	2,731.93	73.8367	2,731.93	73.3993	2,731.93	73.5586	2,731.93	73.7557	2,731.93	71.717	2,731.93	72.8128	2,731.93	72.6895	2,731.93	68.9447	2,731.93	69.1222	2,731.93	72.5635
2,828.61	85.4683	2,828.61	86.0093	2,828.61	85.8906	2,828.61	86.5645	2,828.61	86.4842	2,828.61	86.6365	2,828.61	86.6705	2,828.61	86.086	2,828.61	86.6086	2,828.61	85.232	2,828.61	85.9028	2,828.61	83.9758	2,828.61	84.7601	2,828.61	81.9356	2,828.61	82.9619	2,828.61	80.3681	2,828.61	81.0266	2,828.61	78.688	2,828.61	79.7284	2,828.61	76.1949	2,828.61	77.3914	2,828.61	76.5173	2,828.61	75.7371	2,828.61	73.0185	2,828.61	73.8081	2,828.61	72.5513	2,828.61	71.6275	2,828.61	72.047	2,828.61	73.3053	2,828.61	72.3512	2,828.61	70.893	2,828.61	72.2528	2,828.61	74.1318	2,828.61	72.7645	2,828.61	66.7951	2,828.61	73.8213
2,928.22	86.0609	2,928.22	86.3753	2,928.22	86.1833	2,928.22	86.8188	2,928.22	86.8626	2,928.22	87.251	2,928.22	87.5374	2,928.22	87.0557	2,928.22	87.4057	2,928.22	85.942	2,928.22	86.6942	2,928.22	84.6714	2,928.22	85.3162	2,928.22	82.8859	2,928.22	83.5399	2,928.22	80.6343	2,928.22	81.6386	2,928.22	79.0031	2,928.22	79.9756	2,928.22	76.216	2,928.22	78.0929	2,928.22	73.8748	2,928.22	76.3883	2,928.22	71.9543	2,928.22	73.8983	2,928.22	73.4435	2,928.22	72.7765	2,928.22	73.2714	2,928.22	74.7079	2,928.22	72.2016	2,928.22	73.4382	2,928.22	72.9765	2,928.22	72.9565	2,928.22	67.1068	2,928.22	71.9119	2,928.22	71.0362
3,030.76	85.8182	3,030.76	86.0956	3,030.76	86.1693	3,030.76	86.9473	3,030.76	86.9572	3,030.76	87.4959	3,030.76	87.6884	3,030.76	87.2151	3,030.76	87.6	3,030.76	85.9534	3,030.76	86.6274	3,030.76	84.344	3,030.76	85.128	3,030.76	82.9292	3,030.76	83.38	3,030.76	80.5781	3,030.76	81.4293	3,030.76	79.3076	3,030.76	79.5859	3,030.76	77.4632	3,030.76	77.6536	3,030.76	75.0289	3,030.76	75.8444	3,030.76	74.2448	3,030.76	75.036	3,030.76	72.5196	3,030.76	72.3627	3,030.76	73.7869	3,030.76	73.9708	3,030.76	73.0791	3,030.76	72.3865	3,030.76	73.7538	3,030.76	73.8726	3,030.76	71.5631	3,030.76	68.9902	3,030.76	72.5129
3,137.7	85.6872	3,137.7	86.284	3,137.7	86.2008	3,137.7	87.2094	3,137.7	87.2579	3,137.7	87.6312	3,137.7	87.7843	3,137.7	87.249	3,137.7	87.7409	3,137.7	85.9009	3,137.7	86.8037	3,137.7	84.2837	3,137.7	84.9458	3,137.7	82.6415	3,137.7	83.1706	3,137.7	80.5507	3,137.7	81.5155	3,137.7	78.3454	3,137.7	79.6354	3,137.7	76.8293	3,137.7	77.902	3,137.7	75.0451	3,137.7	75.7421	3,137.7	71.8928	3,137.7	74.6659	3,137.7	72.5695	3,137.7	69.6687	3,137.7	73.6851	3,137.7	73.5749	3,137.7	71.9241	3,137.7	71.7503	3,137.7	71.1348	3,137.7	73.8088	3,137.7	64.3985	3,137.7	69.8475	3,137.7	72.9487
3,249.02	85.7978	3,249.02	86.3578	3,249.02	86.1829	3,249.02	87.1921	3,249.02	87.6669	3,249.02	87.6946	3,249.02	88.1861	3,249.02	87.1719	3,249.02	87.9284	3,249.02	85.9935	3,249.02	86.9083	3,249.02	84.3575	3,249.02	85.0956	3,249.02	82.289	3,249.02	83.5507	3,249.02	80.1403	3,249.02	81.4043	3,249.02	77.6136	3,249.02	79.3269	3,249.02	76.1388	3,249.02	77.8482	3,249.02	74.1715	3,249.02	75.4865	3,249.02	72.8936	3,249.02	74.0939	3,249.02	70.0579	3,249.02	73.3676	3,249.02	72.0441	3,249.02	73.6478	3,249.02	70.916	3,249.02	71.9265	3,249.02	72.8123	3,249.02	73.611	3,249.02	68.771	3,249.02	68.2101	3,249.02	72.0398
3,363.28	85.999	3,363.28	86.4484	3,363.28	86.373	3,363.28	87.2811	3,363.28	87.4727	3,363.28	87.6743	3,363.28	87.9389	3,363.28	87.0198	3,363.28	87.77	3,363.28	85.7823	3,363.28	86.5606	3,363.28	84.26	3,363.28	84.8863	3,363.28	82.4044	3,363.28	82.9298	3,363.28	80.2249	3,363.28	81.3094	3,363.28	78.6133	3,363.28	79.8993	3,363.28	76.404	3,363.28	78.188	3,363.28	74.4831	3,363.28	76.069	3,363.28	73.3383	3,363.28	74.1482	3,363.28	67.5533	3,363.28	69.615	3,363.28	71.5911	3,363.28	72.2204	3,363.28	69.2195	3,363.28	70.9948	3,363.28	73.9853	3,363.28	73.2701	3,363.28	69.8685	3,363.28	69.9914	3,363.28	71.8446
3,481.93	86.451	3,481.93	86.4361	3,481.93	86.9555	3,481.93	87.3583	3,481.93	87.4647	3,481.93	87.3864	3,481.93	87.7426	3,481.93	87.1624	3,481.93	87.509	3,481.93	85.4866	3,481.93	86.2452	3,481.93	83.6393	3,481.93	84.4946	3,481.93	81.977	3,481.93	82.6736	3,481.93	79.8017	3,481.93	80.9414	3,481.93	78.3765	3,481.93	79.0336	3,481.93	76.7877	3,481.93	77.6555	3,481.93	74.0434	3,481.93	75.4192	3,481.93	73.1626	3,481.93	73.9898	3,481.93	72.1773	3,481.93	70.5021	3,481.93	72.8529	3,481.93	71.624	3,481.93	70.3485	3,481.93	72.1378	3,481.93	73.5755	3,481.93	72.0378	3,481.93	66.0982	3,481.93	70.2714	3,481.93	70.9598
3,604.98	87.0324	3,604.98	87.0338	3,604.98	86.7857	3,604.98	87.4971	3,604.98	87.4805	3,604.98	88.0054	3,604.98	87.9052	3,604.98	86.9289	3,604.98	87.4592	3,604.98	85.873	3,604.98	86.377	3,604.98	84.0628	3,604.98	84.6085	3,604.98	81.1312	3,604.98	82.894	3,604.98	79.4189	3,604.98	81.0767	3,604.98	77.3948	3,604.98	78.916	3,604.98	76.0646	3,604.98	77.1294	3,604.98	73.4826	3,604.98	75.1994	3,604.98	70.881	3,604.98	73.5194	3,604.98	71.0055	3,604.98	73.862	3,604.98	73.1209	3,604.98	72.8057	3,604.98	70.0842	3,604.98	72.5907	3,604.98	71.7182	3,604.98	71.3661	3,604.98	66.8174	3,604.98	70.2243	3,604.98	71.2961
3,732.42	87.0887	3,732.42	87.2376	3,732.42	86.9862	3,732.42	87.2907	3,732.42	87.4226	3,732.42	87.6708	3,732.42	87.3786	3,732.42	86.8737	3,732.42	86.8558	3,732.42	85.5045	3,732.42	85.2272	3,732.42	83.8683	3,732.42	83.6959	3,732.42	82.2855	3,732.42	82.3214	3,732.42	80.441	3,732.42	80.2185	3,732.42	78.0147	3,732.42	78.3322	3,732.42	75.0046	3,732.42	76.5138	3,732.42	74.1054	3,732.42	74.6414	3,732.42	72.0498	3,732.42	71.7871	3,732.42	68.7783	3,732.42	69.07	3,732.42	72.1528	3,732.42	70.5845	3,732.42	69.1114	3,732.42	72.1241	3,732.42	70.3683	3,732.42	70.6794	3,732.42	69.6276	3,732.42	67.7954	3,732.42	70.9505
3,864.26	87.4451	3,864.26	87.6094	3,864.26	87.7894	3,864.26	87.7194	3,864.26	87.7035	3,864.26	87.2831	3,864.26	87.2426	3,864.26	87.054	3,864.26	86.6755	3,864.26	85.2147	3,864.26	85.4558	3,864.26	83.7069	3,864.26	83.8717	3,864.26	82.6105	3,864.26	82.4559	3,864.26	80.5448	3,864.26	80.7731	3,864.26	78.2636	3,864.26	78.6801	3,864.26	75.4726	3,864.26	76.5769	3,864.26	74.2268	3,864.26	75.1415	3,864.26	72.274	3,864.26	73.3176	3,864.26	69.6466	3,864.26	71.8245	3,864.26	69.5753	3,864.26	67.3923	3,864.26	70.8817	3,864.26	72.8854	3,864.26	71.8786	3,864.26	72.3298	3,864.26	67.9382	3,864.26	70.3067	3,864.26	71.7538
4,000.49	87.1015	4,000.49	86.9082	4,000.49	86.8061	4,000.49	86.8906	4,000.49	86.3847	4,000.49	86.2177	4,000.49	86.0253	4,000.49	85.0873	4,000.49	85.5427	4,000.49	84.2887	4,000.49	84.7202	4,000.49	82.8696	4,000.49	83.3181	4,000.49	80.9599	4,000.49	81.6476	4,000.49	79.1398	4,000.49	79.2899	4,000.49	77.6684	4,000.49	77.8948	4,000.49	76.2927	4,000.49	75.9079	4,000.49	74.038	4,000.49	74.3375	4,000.49	71.1077	4,000.49	72.08	4,000.49	71.6607	4,000.49	71.7284	4,000.49	70.244	4,000.49	68.9961	4,000.49	71.2595	4,000.49	71.0032	4,000.49	71.7795	4,000.49	70.5476	4,000.49	67.6009	4,000.49	67.8063	4,000.49	70.472
4,141.11	87.5534	4,141.11	87.2808	4,141.11	86.5963	4,141.11	86.3762	4,141.11	86.6434	4,141.11	87.0027	4,141.11	85.9215	4,141.11	86.019	4,141.11	85.1403	4,141.11	85.1916	4,141.11	84.1748	4,141.11	83.9709	4,141.11	82.9942	4,141.11	82.3186	4,141.11	81.8107	4,141.11	79.9032	4,141.11	80.1984	4,141.11	77.8918	4,141.11	78.5459	4,141.11	75.1788	4,141.11	76.5186	4,141.11	73.4815	4,141.11	74.9602	4,141.11	71.3697	4,141.11	72.3789	4,141.11	68.6086	4,141.11	68.5881	4,141.11	69.6269	4,141.11	68.5957	4,141.11	68.9487	4,141.11	70.4119	4,141.11	70.3255	4,141.11	69.3614	4,141.11	64.5556	4,141.11	68.2155	4,141.11	68.5328
4,287.6	87.1668	4,287.6	86.3067	4,287.6	87.3053	4,287.6	85.8197	4,287.6	85.4993	4,287.6	84.2678	4,287.6	84.751	4,287.6	84.6865	4,287.6	85.0088	4,287.6	84.0004	4,287.6	84.9588	4,287.6	82.9797	4,287.6	83.7481	4,287.6	81.5328	4,287.6	82.1241	4,287.6	80.1777	4,287.6	80.1753	4,287.6	78.0819	4,287.6	77.927	4,287.6	75.9116	4,287.6	75.9517	4,287.6	73.355	4,287.6	74.3506	4,287.6	72.2064	4,287.6	71.7428	4,287.6	69.9382	4,287.6	69.1103	4,287.6	69.583	4,287.6	66.1466	4,287.6	70.9887	4,287.6	69.1936	4,287.6	70.6761	4,287.6	68.9731	4,287.6	69.9871	4,287.6	67.6199	4,287.6	67.7383
4,438.48	87.5257	4,438.48	87.2002	4,438.48	86.5764	4,438.48	85.6583	4,438.48	85.5269	4,438.48	85.4309	4,438.48	84.7566	4,438.48	84.8742	4,438.48	84.9352	4,438.48	85.373	4,438.48	85.0922	4,438.48	84.2832	4,438.48	84.1102	4,438.48	82.2514	4,438.48	82.3374	4,438.48	81.049	4,438.48	79.9837	4,438.48	78.9571	4,438.48	78.8607	4,438.48	77.2807	4,438.48	76.6061	4,438.48	75.1071	4,438.48	74.5806	4,438.48	73.0386	4,438.48	73.4278	4,438.48	69.5357	4,438.48	71.7972	4,438.48	66.3907	4,438.48	67.5282	4,438.48	69.9225	4,438.48	70.1714	4,438.48	71.5439	4,438.48	69.9379	4,438.48	65.6932	4,438.48	70.4477	4,438.48	70.391
4,595.21	87.3926	4,595.21	86.3721	4,595.21	86.3229	4,595.21	84.6408	4,595.21	85.155	4,595.21	85.0346	4,595.21	84.6085	4,595.21	86.092	4,595.21	84.7404	4,595.21	85.2343	4,595.21	84.5806	4,595.21	84.7721	4,595.21	84.4249	4,595.21	83.132	4,595.21	82.9862	4,595.21	79.7	4,595.21	80.6068	4,595.21	77.7019	4,595.21	78.2948	4,595.21	75.7757	4,595.21	76.2376	4,595.21	73.257	4,595.21	75.3652	4,595.21	71.02	4,595.21	71.4907	4,595.21	71.2721	4,595.21	70.6792	4,595.21	67.3816	4,595.21	68.2152	4,595.21	70.0209	4,595.21	68.9029	4,595.21	70.6357	4,595.21	68.7348	4,595.21	67.3399	4,595.21	69.768	4,595.21	64.8286
4,756.35	87.3528	4,756.35	86.0819	4,756.35	87.0435	4,756.35	84.5389	4,756.35	85.0017	4,756.35	84.1023	4,756.35	84.9134	4,756.35	84.6051	4,756.35	86.4406	4,756.35	86.1067	4,756.35	87.3446	4,756.35	84.5723	4,756.35	85.332	4,756.35	81.7843	4,756.35	83.1693	4,756.35	81.3299	4,756.35	81.282	4,756.35	78.284	4,756.35	79.3947	4,756.35	76.0373	4,756.35	77.2449	4,756.35	73.6178	4,756.35	74.5464	4,756.35	72.6238	4,756.35	73.5585	4,756.35	70.1452	4,756.35	69.9931	4,756.35	68.5451	4,756.35	66.3864	4,756.35	69.2864	4,756.35	70.0043	4,756.35	69.1479	4,756.35	69.142	4,756.35	68.9699	4,756.35	68.4757	4,756.35	69.0829
4,924.8	86.6516	4,924.8	85.9609	4,924.8	85.3683	4,924.8	84.2123	4,924.8	84.2736	4,924.8	85.2677	4,924.8	84.045	4,924.8	86.5052	4,924.8	85.3819	4,924.8	86.132	4,924.8	85.1444	4,924.8	84.857	4,924.8	84.8782	4,924.8	83.2461	4,924.8	83.1158	4,924.8	80.3536	4,924.8	80.3953	4,924.8	78.194	4,924.8	78.3326	4,924.8	76.0483	4,924.8	76.0151	4,924.8	74.3393	4,924.8	74.0224	4,924.8	72.3407	4,924.8	70.8959	4,924.8	69.8127	4,924.8	69.8016	4,924.8	66.1442	4,924.8	67.5949	4,924.8	70.6458	4,924.8	69.0344	4,924.8	69.7103	4,924.8	68.0472	4,924.8	66.1658	4,924.8	69.2797	4,924.8	65.7008
5,097.66	87.2929	5,097.66	86.3224	5,097.66	86.8459	5,097.66	85.2311	5,097.66	84.7894	5,097.66	84.9579	5,097.66	84.9724	5,097.66	86.037	5,097.66	85.9456	5,097.66	86.0954	5,097.66	86.6324	5,097.66	84.9784	5,097.66	84.8702	5,097.66	82.3797	5,097.66	82.4431	5,097.66	80.1047	5,097.66	80.2652	5,097.66	77.2993	5,097.66	77.7288	5,097.66	75.0415	5,097.66	75.4757	5,097.66	72.4388	5,097.66	73.3877	5,097.66	71.0417	5,097.66	72.0104	5,097.66	69.3118	5,097.66	69.371	5,097.66	63.9905	5,097.66	66.9012	5,097.66	69.8934	5,097.66	67.6811	5,097.66	68.7298	5,097.66	67.9281	5,097.66	66.5974	5,097.66	69.0579	5,097.66	63.1784
5,277.83	87.301	5,277.83	86.7207	5,277.83	86.1464	5,277.83	84.91	5,277.83	85.3963	5,277.83	84.9876	5,277.83	84.9896	5,277.83	85.5243	5,277.83	85.6692	5,277.83	85.5441	5,277.83	85.2	5,277.83	84.0433	5,277.83	84.0174	5,277.83	81.1948	5,277.83	81.9792	5,277.83	79.2492	5,277.83	79.8959	5,277.83	77.5946	5,277.83	77.7298	5,277.83	75.2777	5,277.83	74.9119	5,277.83	72.5489	5,277.83	73.7357	5,277.83	72.061	5,277.83	71.5893	5,277.83	67.5418	5,277.83	69.4136	5,277.83	64.2481	5,277.83	65.3786	5,277.83	67.2405	5,277.83	67.9513	5,277.83	68.5976	5,277.83	66.4708	5,277.83	66.7114	5,277.83	69.4951	5,277.83	65.8613
5,463.87	86.6013	5,463.87	85.8103	5,463.87	86.3111	5,463.87	85.0684	5,463.87	85.2319	5,463.87	84.2627	5,463.87	85.2308	5,463.87	84.8424	5,463.87	85.1999	5,463.87	84.5469	5,463.87	85.3131	5,463.87	83.3519	5,463.87	83.8291	5,463.87	81.3792	5,463.87	81.7594	5,463.87	79.4406	5,463.87	79.4209	5,463.87	76.5319	5,463.87	76.2908	5,463.87	74.6879	5,463.87	74.6861	5,463.87	72.8539	5,463.87	72.7312	5,463.87	71.3494	5,463.87	70.6511	5,463.87	67.9992	5,463.87	67.8682	5,463.87	63.4098	5,463.87	65.3893	5,463.87	68.8121	5,463.87	66.7766	5,463.87	68.0981	5,463.87	67.7431	5,463.87	66.7819	5,463.87	67.514	5,463.87	62.2188
5,657.23	86.8323	5,657.23	86.6339	5,657.23	86.5239	5,657.23	85.6968	5,657.23	86.1688	5,657.23	85.1316	5,657.23	85.3262	5,657.23	84.8687	5,657.23	85.1828	5,657.23	84.6676	5,657.23	84.8312	5,657.23	83.4511	5,657.23	83.7626	5,657.23	81.1465	5,657.23	81.6976	5,657.23	79.5375	5,657.23	79.2737	5,657.23	77.5149	5,657.23	77.6599	5,657.23	75.5911	5,657.23	75.3883	5,657.23	72.8805	5,657.23	73.2029	5,657.23	69.3753	5,657.23	71.0977	5,657.23	67.5448	5,657.23	70.5905	5,657.23	60.4778	5,657.23	64.2442	5,657.23	66.9482	5,657.23	65.7561	5,657.23	66.8281	5,657.23	66.465	5,657.23	67.6242	5,657.23	68.736	5,657.23	62.7969
5,856.45	86.6734	5,856.45	86.3558	5,856.45	87.0088	5,856.45	86.4938	5,856.45	86.3007	5,856.45	85.3375	5,856.45	85.5654	5,856.45	85.0159	5,856.45	84.949	5,856.45	84.7314	5,856.45	84.8674	5,856.45	83.8068	5,856.45	84.068	5,856.45	82.0434	5,856.45	82.0401	5,856.45	79.69	5,856.45	80.1605	5,856.45	77.1904	5,856.45	77.4439	5,856.45	74.3924	5,856.45	75.0999	5,856.45	72.036	5,856.45	73.7084	5,856.45	69.542	5,856.45	70.8124	5,856.45	66.815	5,856.45	69.0574	5,856.45	62.4074	5,856.45	66.2077	5,856.45	67.2906	5,856.45	64.3422	5,856.45	66.4482	5,856.45	65.5521	5,856.45	67.279	5,856.45	67.8946	5,856.45	62.1424
6,062.99	86.374	6,062.99	86.634	6,062.99	86.4793	6,062.99	86.1195	6,062.99	86.3745	6,062.99	84.7397	6,062.99	85.2286	6,062.99	84.2169	6,062.99	84.5483	6,062.99	84.6821	6,062.99	84.7964	6,062.99	83.6962	6,062.99	84.2159	6,062.99	81.8686	6,062.99	82.5622	6,062.99	79.9536	6,062.99	80.4217	6,062.99	77.3676	6,062.99	78.1477	6,062.99	74.7586	6,062.99	75.7169	6,062.99	71.5558	6,062.99	73.6694	6,062.99	68.9233	6,062.99	71.1646	6,062.99	66.2183	6,062.99	68.2956	6,062.99	63.36	6,062.99	67.342	6,062.99	66.5663	6,062.99	63.5807	6,062.99	65.6755	6,062.99	64.8987	6,062.99	65.5774	6,062.99	67.6844	6,062.99	61.999
6,276.86	85.766	6,276.86	86.3595	6,276.86	86.4653	6,276.86	86.3786	6,276.86	86.4594	6,276.86	84.5196	6,276.86	85.2785	6,276.86	84.1304	6,276.86	84.4802	6,276.86	84.3185	6,276.86	84.9831	6,276.86	83.5035	6,276.86	84.607	6,276.86	81.8885	6,276.86	82.4737	6,276.86	79.0707	6,276.86	80.3095	6,276.86	76.2068	6,276.86	77.4646	6,276.86	73.8017	6,276.86	74.9401	6,276.86	72.509	6,276.86	73.2124	6,276.86	69.23	6,276.86	70.5795	6,276.86	66.6158	6,276.86	68.3394	6,276.86	63.5213	6,276.86	67.2627	6,276.86	67.2888	6,276.86	64.421	6,276.86	65.0718	6,276.86	63.3647	6,276.86	63.5441	6,276.86	67.4788	6,276.86	55.9614
6,498.05	85.575	6,498.05	86.684	6,498.05	86.5118	6,498.05	86.2739	6,498.05	86.7589	6,498.05	84.4337	6,498.05	85.261	6,498.05	84.0546	6,498.05	84.7778	6,498.05	84.8162	6,498.05	85.256	6,498.05	83.5848	6,498.05	84.5444	6,498.05	81.2971	6,498.05	82.4312	6,498.05	78.0616	6,498.05	79.9581	6,498.05	75.6638	6,498.05	77.3646	6,498.05	73.165	6,498.05	74.8097	6,498.05	70.9203	6,498.05	71.9823	6,498.05	69.2322	6,498.05	70.6428	6,498.05	66.5044	6,498.05	67.7826	6,498.05	62.7646	6,498.05	64.5688	6,498.05	65.8298	6,498.05	65.6849	6,498.05	65.4364	6,498.05	64.3204	6,498.05	61.9805	6,498.05	65.616	6,498.05	52.1126
6,726.56	85.5781	6,726.56	86.5497	6,726.56	86.7569	6,726.56	86.5182	6,726.56	86.8352	6,726.56	84.5525	6,726.56	85.4585	6,726.56	84.1288	6,726.56	84.7485	6,726.56	84.1137	6,726.56	85.3809	6,726.56	83.3088	6,726.56	84.7133	6,726.56	80.7652	6,726.56	82.4312	6,726.56	77.6961	6,726.56	79.6765	6,726.56	74.7849	6,726.56	76.5389	6,726.56	72.1409	6,726.56	74.0294	6,726.56	70.9948	6,726.56	72.823	6,726.56	68.3736	6,726.56	69.7003	6,726.56	66.1596	6,726.56	69.4558	6,726.56	61.7594	6,726.56	64.8406	6,726.56	62.8151	6,726.56	63.6524	6,726.56	64.0762	6,726.56	64.9482	6,726.56	61.4307	6,726.56	66.1551	6,726.56	54.68
6,963.87	85.9455	6,963.87	86.6843	6,963.87	86.7711	6,963.87	86.3561	6,963.87	86.6375	6,963.87	84.4156	6,963.87	85.2785	6,963.87	84.0084	6,963.87	84.8193	6,963.87	84.3164	6,963.87	85.2897	6,963.87	83.0524	6,963.87	84.1031	6,963.87	80.6718	6,963.87	81.897	6,963.87	77.0199	6,963.87	79.3185	6,963.87	74.3037	6,963.87	76.6724	6,963.87	71.8246	6,963.87	73.7551	6,963.87	70.8825	6,963.87	72.0343	6,963.87	68.024	6,963.87	69.3961	6,963.87	66.9153	6,963.87	68.5958	6,963.87	62.9684	6,963.87	66.1212	6,963.87	62.262	6,963.87	61.6181	6,963.87	64.3456	6,963.87	63.8214	6,963.87	60.78	6,963.87	65.657	6,963.87	57.1401
7,209.96	86.0931	7,209.96	86.7235	7,209.96	86.3565	7,209.96	86.1817	7,209.96	86.6136	7,209.96	84.6491	7,209.96	85.3606	7,209.96	84.2416	7,209.96	84.7051	7,209.96	84.301	7,209.96	84.9545	7,209.96	82.411	7,209.96	83.8969	7,209.96	80.319	7,209.96	81.1551	7,209.96	76.9009	7,209.96	78.7112	7,209.96	74.4405	7,209.96	75.7329	7,209.96	70.4477	7,209.96	73.4392	7,209.96	70.048	7,209.96	71.2136	7,209.96	66.5899	7,209.96	68.8972	7,209.96	65.6114	7,209.96	67.6905	7,209.96	61.2554	7,209.96	65.3591	7,209.96	60.589	7,209.96	61.1063	7,209.96	62.3925	7,209.96	62.1367	7,209.96	61.5857	7,209.96	65.0534	7,209.96	56.0265
7,464.84	86.1626	7,464.84	86.4892	7,464.84	86.4398	7,464.84	86.1368	7,464.84	86.2462	7,464.84	84.9991	7,464.84	85.4078	7,464.84	84.4642	7,464.84	84.8431	7,464.84	84.282	7,464.84	84.4223	7,464.84	82.1989	7,464.84	83.2937	7,464.84	79.5964	7,464.84	80.4913	7,464.84	76.9986	7,464.84	78.3864	7,464.84	74.4045	7,464.84	75.4269	7,464.84	70.9138	7,464.84	73.3	7,464.84	69.2701	7,464.84	71.7671	7,464.84	65.8254	7,464.84	68.411	7,464.84	64.5081	7,464.84	66.4153	7,464.84	62.0245	7,464.84	64.9247	7,464.84	59.4963	7,464.84	60.6799	7,464.84	61.8591	7,464.84	60.6899	7,464.84	61.3979	7,464.84	64.3768	7,464.84	53.0226
7,727.05	86.7683	7,727.05	86.4708	7,727.05	86.7183	7,727.05	86.2443	7,727.05	86.1194	7,727.05	85.1919	7,727.05	85.713	7,727.05	84.0209	7,727.05	84.356	7,727.05	83.6227	7,727.05	83.9522	7,727.05	82.2472	7,727.05	83.1647	7,727.05	79.9328	7,727.05	80.9453	7,727.05	77.393	7,727.05	78.8617	7,727.05	74.8404	7,727.05	75.3376	7,727.05	71.0162	7,727.05	72.1927	7,727.05	69.4929	7,727.05	70.2401	7,727.05	65.953	7,727.05	67.7951	7,727.05	63.1389	7,727.05	67.0066	7,727.05	63.9318	7,727.05	64.3294	7,727.05	58.5378	7,727.05	60.0608	7,727.05	61.2878	7,727.05	59.9078	7,727.05	61.8257	7,727.05	63.6784	7,727.05	54.663
7,999.51	87.2548	7,999.51	86.5946	7,999.51	86.9331	7,999.51	85.9682	7,999.51	86.4738	7,999.51	85.0112	7,999.51	85.6657	7,999.51	83.6745	7,999.51	84.0944	7,999.51	83.5137	7,999.51	84.0401	7,999.51	82.2876	7,999.51	83.4653	7,999.51	80.2321	7,999.51	81.0285	7,999.51	77.0202	7,999.51	78.641	7,999.51	73.741	7,999.51	74.88	7,999.51	70.5747	7,999.51	72.0027	7,999.51	69.7588	7,999.51	69.7601	7,999.51	66.533	7,999.51	67.1824	7,999.51	64.3084	7,999.51	67.3193	7,999.51	63.9305	7,999.51	65.6222	7,999.51	58.1661	7,999.51	60.7667	7,999.51	59.7736	7,999.51	60.2305	7,999.51	60.1758	7,999.51	63.6708	7,999.51	54.4574
8,282.23	87.4581	8,282.23	86.5244	8,282.23	86.7856	8,282.23	86.4647	8,282.23	86.6742	8,282.23	85.3167	8,282.23	86.2241	8,282.23	83.6023	8,282.23	84.1385	8,282.23	83.5035	8,282.23	83.9824	8,282.23	82.0879	8,282.23	83.2311	8,282.23	79.9784	8,282.23	80.6047	8,282.23	76.6958	8,282.23	77.9916	8,282.23	73.1568	8,282.23	74.0668	8,282.23	70.2216	8,282.23	71.5859	8,282.23	69.4704	8,282.23	69.6596	8,282.23	66.4993	8,282.23	67.4969	8,282.23	65.1456	8,282.23	66.326	8,282.23	63.4627	8,282.23	64.4385	8,282.23	56.6587	8,282.23	60.1132	8,282.23	58.893	8,282.23	58.7411	8,282.23	59.3796	8,282.23	63.9795	8,282.23	52.4823
8,573.73	87.8287	8,573.73	86.9396	8,573.73	87.0631	8,573.73	86.9961	8,573.73	87.0178	8,573.73	85.5811	8,573.73	86.3627	8,573.73	83.3845	8,573.73	84.1776	8,573.73	83.5276	8,573.73	83.9927	8,573.73	82.0774	8,573.73	83.0055	8,573.73	78.9578	8,573.73	80.0158	8,573.73	76.1071	8,573.73	77.621	8,573.73	73.1926	8,573.73	73.9206	8,573.73	69.2964	8,573.73	71.4895	8,573.73	67.9071	8,573.73	69.0047	8,573.73	66.5306	8,573.73	66.5114	8,573.73	64.4889	8,573.73	65.3249	8,573.73	62.2415	8,573.73	62.615	8,573.73	53.8236	8,573.73	59.7108	8,573.73	60.0206	8,573.73	59.5566	8,573.73	59.5574	8,573.73	63.2426	8,573.73	54.1467
8,876.95	88.0111	8,876.95	87.1672	8,876.95	87.4234	8,876.95	87.1076	8,876.95	87.0066	8,876.95	85.5727	8,876.95	86.06	8,876.95	83.353	8,876.95	83.8956	8,876.95	83.3475	8,876.95	83.9154	8,876.95	82.1673	8,876.95	83.0608	8,876.95	78.7056	8,876.95	79.5525	8,876.95	75.2013	8,876.95	77.3804	8,876.95	71.9211	8,876.95	73.2231	8,876.95	68.9208	8,876.95	70.6231	8,876.95	66.7334	8,876.95	67.7341	8,876.95	65.142	8,876.95	65.1276	8,876.95	64.22	8,876.95	65.1941	8,876.95	62.3097	8,876.95	63.2688	8,876.95	49.0407	8,876.95	59.7439	8,876.95	58.21	8,876.95	60.1705	8,876.95	58.8937	8,876.95	62.6475	8,876.95	52.072
9,188.96	87.9117	9,188.96	87.1144	9,188.96	87.7147	9,188.96	87.3243	9,188.96	87.1264	9,188.96	85.5312	9,188.96	86.0632	9,188.96	83.6194	9,188.96	84.0425	9,188.96	83.349	9,188.96	83.7567	9,188.96	81.7595	9,188.96	82.6134	9,188.96	79.0254	9,188.96	79.6367	9,188.96	75.3541	9,188.96	77.4036	9,188.96	71.637	9,188.96	72.6223	9,188.96	69.185	9,188.96	71.0147	9,188.96	67.3389	9,188.96	68.4533	9,188.96	64.134	9,188.96	67.0055	9,188.96	64.5703	9,188.96	65.5507	9,188.96	60.9669	9,188.96	63.4587	9,188.96	44.7202	9,188.96	57.9192	9,188.96	56.8281	9,188.96	59.5767	9,188.96	58.6974	9,188.96	60.6328	9,188.96	54.1094
9,514.16	87.7667	9,514.16	87.4067	9,514.16	87.6145	9,514.16	87.209	9,514.16	87.294	9,514.16	85.4154	9,514.16	86.1239	9,514.16	83.861	9,514.16	84.3572	9,514.16	83.1346	9,514.16	83.3994	9,514.16	81.5145	9,514.16	82.5903	9,514.16	78.8922	9,514.16	79.8689	9,514.16	76.4759	9,514.16	77.5676	9,514.16	72.0361	9,514.16	73.6363	9,514.16	69.1858	9,514.16	71.5026	9,514.16	67.2681	9,514.16	68.4411	9,514.16	65.9795	9,514.16	67.4998	9,514.16	64.1511	9,514.16	65.5556	9,514.16	59.9172	9,514.16	62.4047	9,514.16	48.0399	9,514.16	56.752	9,514.16	53.7919	9,514.16	60.3517	9,514.16	55.4223	9,514.16	61.9683	9,514.16	55.431
9,849.61	87.7303	9,849.61	87.433	9,849.61	87.6082	9,849.61	86.8555	9,849.61	87.1579	9,849.61	85.1612	9,849.61	86.2714	9,849.61	83.5778	9,849.61	84.3459	9,849.61	82.4654	9,849.61	83.0066	9,849.61	81.3768	9,849.61	82.7189	9,849.61	78.2884	9,849.61	79.6278	9,849.61	75.5357	9,849.61	77.532	9,849.61	72.0521	9,849.61	73.6127	9,849.61	68.8556	9,849.61	71.0567	9,849.61	65.8242	9,849.61	67.8279	9,849.61	66.2133	9,849.61	66.1986	9,849.61	63.4428	9,849.61	65.2169	9,849.61	58.2393	9,849.61	62.3493	9,849.61	50.8315	9,849.61	57.6044	9,849.61	59.0696	9,849.61	60.6795	9,849.61	54.9272	9,849.61	62.3453	9,849.61	50.5443
10,196.8	87.4775	10,196.8	87.2375	10,196.8	87.8436	10,196.8	86.563	10,196.8	86.9799	10,196.8	85.1273	10,196.8	86.1084	10,196.8	82.8837	10,196.8	84.2069	10,196.8	81.6245	10,196.8	82.8325	10,196.8	81.0892	10,196.8	82.7825	10,196.8	78.3644	10,196.8	79.602	10,196.8	74.579	10,196.8	77.2369	10,196.8	71.0094	10,196.8	72.5811	10,196.8	67.9683	10,196.8	69.9283	10,196.8	64.7812	10,196.8	67.0472	10,196.8	64.4822	10,196.8	65.3462	10,196.8	62.0553	10,196.8	64.4511	10,196.8	55.7558	10,196.8	62.0769	10,196.8	54.1517	10,196.8	57.8125	10,196.8	61.1572	10,196.8	60.5995	10,196.8	55.1548	10,196.8	59.8902	10,196.8	52.1794
10,555.7	87.3937	10,555.7	87.3591	10,555.7	87.8061	10,555.7	86.3322	10,555.7	86.9401	10,555.7	84.7906	10,555.7	86.0128	10,555.7	82.4442	10,555.7	83.9675	10,555.7	81.1088	10,555.7	82.5092	10,555.7	80.3672	10,555.7	82.1443	10,555.7	77.5611	10,555.7	78.8729	10,555.7	74.8504	10,555.7	76.5673	10,555.7	70.7322	10,555.7	72.7097	10,555.7	67.2399	10,555.7	69.5551	10,555.7	64.4172	10,555.7	66.4833	10,555.7	63.8238	10,555.7	65.7745	10,555.7	61.1222	10,555.7	62.8666	10,555.7	52.8246	10,555.7	60.7732	10,555.7	54.9789	10,555.7	57.0591	10,555.7	60.5975	10,555.7	59.329	10,555.7	55.3207	10,555.7	61.3674	10,555.7	51.2117
10,927.7	87.5652	10,927.7	87.4963	10,927.7	87.8614	10,927.7	86.394	10,927.7	86.9317	10,927.7	84.9924	10,927.7	86.0661	10,927.7	82.5823	10,927.7	83.5601	10,927.7	80.8362	10,927.7	81.9006	10,927.7	79.6336	10,927.7	81.4231	10,927.7	76.265	10,927.7	78.4465	10,927.7	73.7839	10,927.7	76.0942	10,927.7	70.1855	10,927.7	73.0534	10,927.7	66.215	10,927.7	69.328	10,927.7	65.0755	10,927.7	66.4324	10,927.7	62.9319	10,927.7	64.5381	10,927.7	58.7576	10,927.7	61.0712	10,927.7	50.4692	10,927.7	59.943	10,927.7	57.2341	10,927.7	56.4758	10,927.7	60.9183	10,927.7	58.3589	10,927.7	54.334	10,927.7	61.5011	10,927.7	52.8341
11,313	88.1958	11,313	87.5763	11,313	88.1899	11,313	86.602	11,313	87.0989	11,313	85.168	11,313	86.147	11,313	82.4076	11,313	83.4778	11,313	80.3897	11,313	81.6481	11,313	79.3819	11,313	81.2278	11,313	77.1846	11,313	78.9909	11,313	74.1133	11,313	75.8818	11,313	70.0343	11,313	72.3391	11,313	66.5432	11,313	68.3581	11,313	64.829	11,313	66.2466	11,313	62.4793	11,313	63.2026	11,313	59.1811	11,313	60.5681	11,313	53.0559	11,313	59.0783	11,313	58.1123	11,313	55.0628	11,313	60.5297	11,313	56.9774	11,313	53.7385	11,313	61.146	11,313	50.2012
11,712.9	88.6527	11,712.9	87.8729	11,712.9	88.4168	11,712.9	86.838	11,712.9	87.412	11,712.9	85.0521	11,712.9	86.0009	11,712.9	82.5153	11,712.9	83.3793	11,712.9	80.1556	11,712.9	81.7064	11,712.9	79.5371	11,712.9	80.8889	11,712.9	77.2126	11,712.9	78.4518	11,712.9	74.5832	11,712.9	75.1515	11,712.9	70.3936	11,712.9	72.5009	11,712.9	67.2019	11,712.9	68.1976	11,712.9	65.9278	11,712.9	65.166	11,712.9	62.9684	11,712.9	63.4105	11,712.9	60.2432	11,712.9	60.8648	11,712.9	53.9746	11,712.9	59.4255	11,712.9	59.3715	11,712.9	55.0811	11,712.9	60.9899	11,712.9	55.0077	11,712.9	55.6978	11,712.9	59.6207	11,712.9	51.5692
12,126	88.8994	12,126	88.1622	12,126	88.822	12,126	87.2228	12,126	87.725	12,126	85.3695	12,126	86.0334	12,126	83.0923	12,126	83.9824	12,126	80.5077	12,126	81.4013	12,126	79.6041	12,126	80.1937	12,126	76.4147	12,126	77.4039	12,126	73.912	12,126	74.1548	12,126	69.9092	12,126	72.2821	12,126	67.1803	12,126	67.8599	12,126	65.3979	12,126	65.8544	12,126	63.8145	12,126	62.665	12,126	60.0116	12,126	59.6711	12,126	55.6368	12,126	59.0134	12,126	58.3634	12,126	56.8645	12,126	60.2937	12,126	56.9024	12,126	55.1259	12,126	59.8268	12,126	54.9159
12,553.7	88.9964	12,553.7	88.1529	12,553.7	88.9414	12,553.7	87.3603	12,553.7	87.7057	12,553.7	85.405	12,553.7	85.9766	12,553.7	82.9135	12,553.7	84.2055	12,553.7	80.1887	12,553.7	81.3829	12,553.7	79.684	12,553.7	80.3463	12,553.7	76.9062	12,553.7	77.6938	12,553.7	74.8907	12,553.7	75.0574	12,553.7	70.8003	12,553.7	72.2682	12,553.7	66.9078	12,553.7	67.802	12,553.7	64.9485	12,553.7	65.7871	12,553.7	63.5132	12,553.7	63.3536	12,553.7	58.3766	12,553.7	60.9737	12,553.7	54.8605	12,553.7	58.9998	12,553.7	58.5804	12,553.7	54.7789	12,553.7	59.5854	12,553.7	56.2731	12,553.7	54.4745	12,553.7	60.8419	12,553.7	55.874
12,996.1	89.0616	12,996.1	88.1239	12,996.1	88.8788	12,996.1	87.1116	12,996.1	87.5542	12,996.1	85.1164	12,996.1	85.9125	12,996.1	82.0604	12,996.1	84.2284	12,996.1	79.7511	12,996.1	81.37	12,996.1	79.8302	12,996.1	80.45	12,996.1	77.1419	12,996.1	77.6546	12,996.1	75.6266	12,996.1	75.7794	12,996.1	71.7264	12,996.1	72.599	12,996.1	67.2057	12,996.1	68.05	12,996.1	65.2472	12,996.1	65.9159	12,996.1	63.1042	12,996.1	62.8541	12,996.1	56.5353	12,996.1	59.8636	12,996.1	52.141	12,996.1	57.6689	12,996.1	57.4034	12,996.1	54.005	12,996.1	58.2249	12,996.1	54.5904	12,996.1	56.1503	12,996.1	61.8314	12,996.1	56.2179
13,454.6	89.0414	13,454.6	87.9903	13,454.6	88.8326	13,454.6	87.0013	13,454.6	87.4855	13,454.6	84.8553	13,454.6	86.0118	13,454.6	81.8839	13,454.6	84.1102	13,454.6	79.7975	13,454.6	81.0499	13,454.6	79.6357	13,454.6	80.1435	13,454.6	77.3353	13,454.6	78.1559	13,454.6	75.5152	13,454.6	76.0494	13,454.6	71.2817	13,454.6	71.9887	13,454.6	66.9414	13,454.6	67.6986	13,454.6	65.9639	13,454.6	65.0093	13,454.6	62.0589	13,454.6	60.8751	13,454.6	56.3521	13,454.6	60.46	13,454.6	50.2893	13,454.6	58.1734	13,454.6	57.6406	13,454.6	49.0283	13,454.6	55.2802	13,454.6	52.8774	13,454.6	55.4756	13,454.6	61.7152	13,454.6	55.2262
13,929.2	88.8211	13,929.2	87.8111	13,929.2	88.7491	13,929.2	86.9006	13,929.2	87.3773	13,929.2	84.4579	13,929.2	85.8108	13,929.2	81.9073	13,929.2	83.9577	13,929.2	79.3943	13,929.2	81.0198	13,929.2	79.3475	13,929.2	80.2713	13,929.2	77.4108	13,929.2	78.2154	13,929.2	74.9864	13,929.2	75.7876	13,929.2	69.6529	13,929.2	70.7448	13,929.2	66.937	13,929.2	66.7228	13,929.2	65.3671	13,929.2	64.5482	13,929.2	60.223	13,929.2	59.8524	13,929.2	55.8367	13,929.2	59.7951	13,929.2	49.2425	13,929.2	57.12	13,929.2	58.2318	13,929.2	51.016	13,929.2	54.8002	13,929.2	49.7284	13,929.2	55.9229	13,929.2	61.2503	13,929.2	53.285
14,419.9	88.8422	14,419.9	87.6504	14,419.9	88.6741	14,419.9	86.6765	14,419.9	87.5645	14,419.9	84.2476	14,419.9	85.8307	14,419.9	82.1205	14,419.9	83.7503	14,419.9	79.0541	14,419.9	81.1828	14,419.9	79.2629	14,419.9	80.4254	14,419.9	76.7617	14,419.9	77.671	14,419.9	74.3467	14,419.9	74.9697	14,419.9	68.4062	14,419.9	70.4159	14,419.9	66.1657	14,419.9	66.7085	14,419.9	63.2487	14,419.9	63.6173	14,419.9	58.465	14,419.9	60.4397	14,419.9	54.6672	14,419.9	60.2974	14,419.9	47.7526	14,419.9	56.2713	14,419.9	57.9444	14,419.9	53.6584	14,419.9	54.4225	14,419.9	43.8365	14,419.9	54.0998	14,419.9	60.4075	14,419.9	52.6624
14,928.2	89.0394	14,928.2	87.9095	14,928.2	88.9428	14,928.2	86.8967	14,928.2	87.8643	14,928.2	84.5256	14,928.2	85.947	14,928.2	82.3799	14,928.2	83.8036	14,928.2	79.3674	14,928.2	81.655	14,928.2	79.0319	14,928.2	80.4749	14,928.2	76.3615	14,928.2	77.3258	14,928.2	74.4402	14,928.2	74.9549	14,928.2	68.138	14,928.2	70.8014	14,928.2	65.7616	14,928.2	67.0088	14,928.2	62.0635	14,928.2	63.1883	14,928.2	58.3748	14,928.2	60.9926	14,928.2	55.2053	14,928.2	60.4292	14,928.2	48.3726	14,928.2	55.3003	14,928.2	57.2229	14,928.2	51.9031	14,928.2	49.2967	14,928.2	45.1282	14,928.2	52.0743	14,928.2	59.1735	14,928.2	52.0143
15,455.6	89.2421	15,455.6	88.3806	15,455.6	89.2515	15,455.6	87.4029	15,455.6	88.1002	15,455.6	85.0976	15,455.6	86.0216	15,455.6	82.7287	15,455.6	83.9199	15,455.6	79.9134	15,455.6	82.0283	15,455.6	78.9108	15,455.6	80.1744	15,455.6	76.957	15,455.6	77.2514	15,455.6	74.6834	15,455.6	74.6591	15,455.6	68.327	15,455.6	70.6762	15,455.6	65.2843	15,455.6	66.4494	15,455.6	62.3566	15,455.6	63.1616	15,455.6	57.6351	15,455.6	61.4486	15,455.6	54.3098	15,455.6	58.9766	15,455.6	43.9517	15,455.6	56.2652	15,455.6	56.2484	15,455.6	52.403	15,455.6	50.8406	15,455.6	44.8247	15,455.6	49.9368	15,455.6	59.9156	15,455.6	51.5386
16,000.5	89.2148	16,000.5	88.6073	16,000.5	89.2785	16,000.5	87.5589	16,000.5	88.1438	16,000.5	85.4223	16,000.5	86.0624	16,000.5	83.3619	16,000.5	84.149	16,000.5	80.5519	16,000.5	82.1068	16,000.5	79.2037	16,000.5	79.8191	16,000.5	76.8386	16,000.5	77.0684	16,000.5	74.6269	16,000.5	73.8886	16,000.5	67.6149	16,000.5	69.878	16,000.5	64.8338	16,000.5	65.4028	16,000.5	61.5196	16,000.5	62.2218	16,000.5	56.5148	16,000.5	60.4816	16,000.5	53.3483	16,000.5	58.1988	16,000.5	44.2764	16,000.5	54.3229	16,000.5	53.827	16,000.5	54.4202	16,000.5	52.6361	16,000.5	40.7381	16,000.5	46.9199	16,000.5	59.148	16,000.5	53.0297
16,564.5	89.0633	16,564.5	88.5164	16,564.5	89.1962	16,564.5	87.4935	16,564.5	88.1221	16,564.5	85.3709	16,564.5	85.9691	16,564.5	83.275	16,564.5	84.228	16,564.5	80.2631	16,564.5	81.8181	16,564.5	78.9208	16,564.5	79.2781	16,564.5	75.7183	16,564.5	76.5538	16,564.5	73.8901	16,564.5	73.4514	16,564.5	67.5102	16,564.5	69.8152	16,564.5	64.4114	16,564.5	64.7002	16,564.5	60.482	16,564.5	61.5643	16,564.5	57.7954	16,564.5	58.9614	16,564.5	53.5589	16,564.5	57.4718	16,564.5	45.9937	16,564.5	52.1471	16,564.5	52.5297	16,564.5	53.7924	16,564.5	54.0356	16,564.5	47.236	16,564.5	44.1328	16,564.5	56.331	16,564.5	49.7193
17,148.9	89.0041	17,148.9	88.385	17,148.9	89.1027	17,148.9	87.2821	17,148.9	88.082	17,148.9	85.1469	17,148.9	86.0703	17,148.9	82.8447	17,148.9	84.3313	17,148.9	79.4969	17,148.9	81.6588	17,148.9	77.6659	17,148.9	78.8066	17,148.9	74.3311	17,148.9	76.1939	17,148.9	72.7221	17,148.9	72.6944	17,148.9	67.3955	17,148.9	69.2792	17,148.9	62.6654	17,148.9	63.4712	17,148.9	59.2436	17,148.9	60.8567	17,148.9	57.7332	17,148.9	56.601	17,148.9	54.0225	17,148.9	55.8116	17,148.9	44.2972	17,148.9	51.5397	17,148.9	52.599	17,148.9	53.6408	17,148.9	53.288	17,148.9	49.1436	17,148.9	46.7727	17,148.9	53.1397	17,148.9	42.7766
17,752.4	89.1623	17,752.4	88.3874	17,752.4	89.2017	17,752.4	87.2889	17,752.4	88.1011	17,752.4	85.0696	17,752.4	86.2549	17,752.4	82.3438	17,752.4	84.1499	17,752.4	78.6394	17,752.4	81.3331	17,752.4	76.3045	17,752.4	78.1247	17,752.4	73.4289	17,752.4	75.7102	17,752.4	70.9037	17,752.4	71.6943	17,752.4	66.2267	17,752.4	67.8107	17,752.4	60.7789	17,752.4	62.2295	17,752.4	58.4961	17,752.4	59.8678	17,752.4	55.8263	17,752.4	55.5234	17,752.4	51.5946	17,752.4	53.9727	17,752.4	42.9199	17,752.4	50.1284	17,752.4	49.2315	17,752.4	54.6395	17,752.4	54.4195	17,752.4	46.6904	17,752.4	41.3193	17,752.4	53.1262	17,752.4	47.4246
18,379.4	89.4244	18,379.4	88.4361	18,379.4	89.3493	18,379.4	87.6224	18,379.4	88.2628	18,379.4	85.1975	18,379.4	86.5606	18,379.4	81.9915	18,379.4	83.8918	18,379.4	77.8968	18,379.4	81.1106	18,379.4	75.5765	18,379.4	77.8587	18,379.4	72.3804	18,379.4	74.3945	18,379.4	69.3872	18,379.4	69.8853	18,379.4	64.5802	18,379.4	66.1811	18,379.4	59.6031	18,379.4	61.1186	18,379.4	55.9082	18,379.4	57.8789	18,379.4	54.6513	18,379.4	53.367	18,379.4	47.9861	18,379.4	54.1651	18,379.4	46.1138	18,379.4	48.9304	18,379.4	43.7491	18,379.4	54.4158	18,379.4	54.527	18,379.4	46.899	18,379.4	43.2541	18,379.4	54.9627	18,379.4	50.4333
19,026.9	89.3024	19,026.9	88.121	19,026.9	89.1074	19,026.9	87.4085	19,026.9	88.0007	19,026.9	84.6436	19,026.9	86.1703	19,026.9	80.9296	19,026.9	82.9115	19,026.9	76.3327	19,026.9	80.0432	19,026.9	73.9827	19,026.9	76.1581	19,026.9	70.6914	19,026.9	72.6709	19,026.9	67.4576	19,026.9	68.0392	19,026.9	62.8975	19,026.9	64.3243	19,026.9	57.2601	19,026.9	58.3237	19,026.9	54.7557	19,026.9	55.8373	19,026.9	52.4751	19,026.9	51.8965	19,026.9	45.3275	19,026.9	52.7703	19,026.9	46.2433	19,026.9	46.526	19,026.9	47.7519	19,026.9	53.9586	19,026.9	53.1298	19,026.9	49.0552	19,026.9	49.2734	19,026.9	53.2304	19,026.9	48.7094
19,697.8	88.6797	19,697.8	87.4438	19,697.8	88.4353	19,697.8	86.7135	19,697.8	87.3347	19,697.8	83.6252	19,697.8	85.2649	19,697.8	79.4594	19,697.8	81.7614	19,697.8	74.8274	19,697.8	78.7898	19,697.8	72.6614	19,697.8	74.1952	19,697.8	70.6547	19,697.8	71.6892	19,697.8	67.3547	19,697.8	66.5732	19,697.8	62.1373	19,697.8	63.3672	19,697.8	55.6141	19,697.8	57.5587	19,697.8	53.3927	19,697.8	54.7812	19,697.8	51.2532	19,697.8	52.3935	19,697.8	43.9177	19,697.8	51.3578	19,697.8	45.2802	19,697.8	45.1111	19,697.8	50.4584	19,697.8	53.2407	19,697.8	50.8066	19,697.8	48.7341	19,697.8	50.4537	19,697.8	51.8587	19,697.8	47.0493
19,999.5	88.4683	19,999.5	87.0082	19,999.5	88.071	19,999.5	86.2527	19,999.5	87.027	19,999.5	83.1403	19,999.5	84.7868	19,999.5	78.9312	19,999.5	81.3484	19,999.5	74.2431	19,999.5	78.0481	19,999.5	72.5149	19,999.5	73.6113	19,999.5	70.6944	19,999.5	71.458	19,999.5	66.7592	19,999.5	67.1441	19,999.5	63.7178	19,999.5	62.1272	19,999.5	54.3447	19,999.5	52.5535	19,999.5	48.3994	19,999.5	57.6114	19,999.5	53.9331	19,999.5	56.5531	19,999.5	51.662	19,999.5	50.7155	19,999.5	49.6072	19,999.5	50.1968	19,999.5	54.215	19,999.5	41.4925	19,999.5	52.8609	19,999.5	43.8316	19,999.5	52.1052	19,999.5	55.3479	19,999.5	42.8369
