"SPL Horizontal"																																																																							
"On-Axis"		"10°"		"-10°"		"20°"		"-20°"		"30°"		"-30°"		"40°"		"-40°"		"50°"		"-50°"		"60°"		"-60°"		"70°"		"-70°"		"80°"		"-80°"		"90°"		"-90°"		"100°"		"-100°"		"110°"		"-110°"		"120°"		"-120°"		"130°"		"-130°"		"140°"		"-140°"		"150°"		"-150°"		"160°"		"-160°"		"170°"		"-170°"		"180°"	
"Frequency [Hz]"	"Sound Pessure Level [dB]  / [2.83V 1m] "	"Frequency [Hz]"	"Sound Pessure Level [dB]  / [2.83V 1m] "	"Frequency [Hz]"	"Sound Pessure Level [dB]  / [2.83V 1m] "	"Frequency [Hz]"	"Sound Pessure Level [dB]  / [2.83V 1m] "	"Frequency [Hz]"	"Sound Pessure Level [dB]  / [2.83V 1m] "	"Frequency [Hz]"	"Sound Pessure Level [dB]  / [2.83V 1m] "	"Frequency [Hz]"	"Sound Pessure Level [dB]  / [2.83V 1m] "	"Frequency [Hz]"	"Sound Pessure Level [dB]  / [2.83V 1m] "	"Frequency [Hz]"	"Sound Pessure Level [dB]  / [2.83V 1m] "	"Frequency [Hz]"	"Sound Pessure Level [dB]  / [2.83V 1m] "	"Frequency [Hz]"	"Sound Pessure Level [dB]  / [2.83V 1m] "	"Frequency [Hz]"	"Sound Pessure Level [dB]  / [2.83V 1m] "	"Frequency [Hz]"	"Sound Pessure Level [dB]  / [2.83V 1m] "	"Frequency [Hz]"	"Sound Pessure Level [dB]  / [2.83V 1m] "	"Frequency [Hz]"	"Sound Pessure Level [dB]  / [2.83V 1m] "	"Frequency [Hz]"	"Sound Pessure Level [dB]  / [2.83V 1m] "	"Frequency [Hz]"	"Sound Pessure Level [dB]  / [2.83V 1m] "	"Frequency [Hz]"	"Sound Pessure Level [dB]  / [2.83V 1m] "	"Frequency [Hz]"	"Sound Pessure Level [dB]  / [2.83V 1m] "	"Frequency [Hz]"	"Sound Pessure Level [dB]  / [2.83V 1m] "	"Frequency [Hz]"	"Sound Pessure Level [dB]  / [2.83V 1m] "	"Frequency [Hz]"	"Sound Pessure Level [dB]  / [2.83V 1m] "	"Frequency [Hz]"	"Sound Pessure Level [dB]  / [2.83V 1m] "	"Frequency [Hz]"	"Sound Pessure Level [dB]  / [2.83V 1m] "	"Frequency [Hz]"	"Sound Pessure Level [dB]  / [2.83V 1m] "	"Frequency [Hz]"	"Sound Pessure Level [dB]  / [2.83V 1m] "	"Frequency [Hz]"	"Sound Pessure Level [dB]  / [2.83V 1m] "	"Frequency [Hz]"	"Sound Pessure Level [dB]  / [2.83V 1m] "	"Frequency [Hz]"	"Sound Pessure Level [dB]  / [2.83V 1m] "	"Frequency [Hz]"	"Sound Pessure Level [dB]  / [2.83V 1m] "	"Frequency [Hz]"	"Sound Pessure Level [dB]  / [2.83V 1m] "	"Frequency [Hz]"	"Sound Pessure Level [dB]  / [2.83V 1m] "	"Frequency [Hz]"	"Sound Pessure Level [dB]  / [2.83V 1m] "	"Frequency [Hz]"	"Sound Pessure Level [dB]  / [2.83V 1m] "	"Frequency [Hz]"	"Sound Pessure Level [dB]  / [2.83V 1m] "	"Frequency [Hz]"	"Sound Pessure Level [dB]  / [2.83V 1m] "
20.5078	47.2624	20.5078	47.2713	20.5078	47.2443	20.5078	47.2707	20.5078	47.2173	20.5078	47.2607	20.5078	47.1818	20.5078	47.2411	20.5078	47.1383	20.5078	47.2122	20.5078	47.0875	20.5078	47.1745	20.5078	47.0305	20.5078	47.1286	20.5078	46.9685	20.5078	47.0755	20.5078	46.9032	20.5078	47.0166	20.5078	46.8365	20.5078	46.9535	20.5078	46.7707	20.5078	46.8881	20.5078	46.7082	20.5078	46.8223	20.5078	46.6513	20.5078	46.7582	20.5078	46.6024	20.5078	46.6977	20.5078	46.5635	20.5078	46.643	20.5078	46.5363	20.5078	46.5962	20.5078	46.522	20.5078	46.5592	20.5078	46.5212	20.5078	46.5338
21.9727	49.7648	21.9727	49.7691	21.9727	49.7548	21.9727	49.7676	21.9727	49.7393	21.9727	49.76	21.9727	49.7184	21.9727	49.7462	21.9727	49.692	21.9727	49.726	21.9727	49.6602	21.9727	49.6996	21.9727	49.6228	21.9727	49.6672	21.9727	49.58	21.9727	49.6291	21.9727	49.5321	21.9727	49.5858	21.9727	49.4799	21.9727	49.5378	21.9727	49.4246	21.9727	49.4861	21.9727	49.3682	21.9727	49.4317	21.9727	49.313	21.9727	49.3761	21.9727	49.2621	21.9727	49.3215	21.9727	49.2184	21.9727	49.2703	21.9727	49.1851	21.9727	49.2256	21.9727	49.1646	21.9727	49.1904	21.9727	49.1586	21.9727	49.1674
23.4375	52.4758	23.4375	52.4843	23.4375	52.4606	23.4375	52.4856	23.4375	52.439	23.4375	52.4798	23.4375	52.4113	23.4375	52.4668	23.4375	52.3782	23.4375	52.4468	23.4375	52.3402	23.4375	52.4199	23.4375	52.2981	23.4375	52.3866	23.4375	52.2528	23.4375	52.3475	23.4375	52.2052	23.4375	52.3034	23.4375	52.1565	23.4375	52.2552	23.4375	52.1078	23.4375	52.2042	23.4375	52.0606	23.4375	52.1518	23.4375	52.0166	23.4375	52.0996	23.4375	51.9774	23.4375	52.0497	23.4375	51.9449	23.4375	52.0041	23.4375	51.9209	23.4375	51.9649	23.4375	51.9072	23.4375	51.9343	23.4375	51.9047	23.4375	51.9138
24.9023	54.2544	24.9023	54.255	24.9023	54.2473	24.9023	54.2491	24.9023	54.2339	24.9023	54.2369	24.9023	54.2144	24.9023	54.2184	24.9023	54.1892	24.9023	54.1943	24.9023	54.1589	24.9023	54.1648	24.9023	54.1241	24.9023	54.1307	24.9023	54.0858	24.9023	54.0929	24.9023	54.0449	24.9023	54.0522	24.9023	54.0026	24.9023	54.0097	24.9023	53.9602	24.9023	53.9666	24.9023	53.919	24.9023	53.9244	24.9023	53.8803	24.9023	53.8843	24.9023	53.8455	24.9023	53.848	24.9023	53.8158	24.9023	53.8169	24.9023	53.7922	24.9023	53.7924	24.9023	53.7757	24.9023	53.7755	24.9023	53.7672	24.9023	53.767
26.3672	56.3697	26.3672	56.3696	26.3672	56.3635	26.3672	56.3631	26.3672	56.351	26.3672	56.3502	26.3672	56.3325	26.3672	56.3313	26.3672	56.3084	26.3672	56.3066	26.3672	56.2793	26.3672	56.2766	26.3672	56.2457	26.3672	56.2419	26.3672	56.2086	26.3672	56.2034	26.3672	56.1687	26.3672	56.162	26.3672	56.1273	26.3672	56.119	26.3672	56.0854	26.3672	56.0757	26.3672	56.0443	26.3672	56.0336	26.3672	56.0053	26.3672	55.9941	26.3672	55.9696	26.3672	55.9588	26.3672	55.9386	26.3672	55.929	26.3672	55.9136	26.3672	55.906	26.3672	55.8955	26.3672	55.8907	26.3672	55.8854	26.3672	55.8837
27.832	58.1525	27.832	58.151	27.832	58.1476	27.832	58.1431	27.832	58.1365	27.832	58.1289	27.832	58.1194	27.832	58.1085	27.832	58.0968	27.832	58.0825	27.832	58.0692	27.832	58.0513	27.832	58.0373	27.832	58.0156	27.832	58.0016	27.832	57.9762	27.832	57.963	27.832	57.9343	27.832	57.9225	27.832	57.891	27.832	57.881	27.832	57.8475	27.832	57.8396	27.832	57.8054	27.832	57.7994	27.832	57.7661	27.832	57.7619	27.832	57.7311	27.832	57.7284	27.832	57.7019	27.832	57.7003	27.832	57.68	27.832	57.6791	27.832	57.6663	27.832	57.6659	27.832	57.6615
29.2969	59.8791	29.2969	59.8778	29.2969	59.8729	29.2969	59.8691	29.2969	59.8596	29.2969	59.853	29.2969	59.8394	29.2969	59.83	29.2969	59.8128	29.2969	59.8005	29.2969	59.7806	29.2969	59.7652	29.2969	59.7436	29.2969	59.725	29.2969	59.7027	29.2969	59.6811	29.2969	59.6591	29.2969	59.6347	29.2969	59.6139	29.2969	59.5871	29.2969	59.5684	29.2969	59.5401	29.2969	59.524	29.2969	59.495	29.2969	59.4819	29.2969	59.4536	29.2969	59.4435	29.2969	59.4173	29.2969	59.41	29.2969	59.3875	29.2969	59.3826	29.2969	59.3652	29.2969	59.3623	29.2969	59.3513	29.2969	59.35	29.2969	59.3462
30.7617	61.6049	30.7617	61.6033	30.7617	61.5992	30.7617	61.5945	30.7617	61.5865	30.7617	61.5787	30.7617	61.5671	30.7617	61.5563	30.7617	61.5415	30.7617	61.5278	30.7617	61.5106	30.7617	61.494	30.7617	61.4751	30.7617	61.4559	30.7617	61.4362	30.7617	61.4145	30.7617	61.395	30.7617	61.3712	30.7617	61.3527	30.7617	61.3273	30.7617	61.3106	30.7617	61.2842	30.7617	61.2699	30.7617	61.2433	30.7617	61.2318	30.7617	61.2062	30.7617	61.1973	30.7617	61.1739	30.7617	61.1676	30.7617	61.1476	30.7617	61.1434	30.7617	61.1282	30.7617	61.1257	30.7617	61.1161	30.7617	61.1149	30.7617	61.1116
32.2266	63.0774	32.2266	63.0762	32.2266	63.07	32.2266	63.0666	32.2266	63.0544	32.2266	63.0489	32.2266	63.0308	32.2266	63.0234	32.2266	62.9999	32.2266	62.991	32.2266	62.9625	32.2266	62.9525	32.2266	62.9197	32.2266	62.909	32.2266	62.8728	32.2266	62.8619	32.2266	62.823	32.2266	62.8125	32.2266	62.7721	32.2266	62.7623	32.2266	62.7215	32.2266	62.7128	32.2266	62.6729	32.2266	62.6655	32.2266	62.6277	32.2266	62.6218	32.2266	62.5876	32.2266	62.5831	32.2266	62.5537	32.2266	62.5506	32.2266	62.5272	32.2266	62.5252	32.2266	62.509	32.2266	62.5079	32.2266	62.4996	32.2266	62.4992
33.6914	64.5045	33.6914	64.5013	33.6914	64.4994	33.6914	64.4897	33.6914	64.486	33.6914	64.47	33.6914	64.4648	33.6914	64.4427	33.6914	64.4362	33.6914	64.4085	33.6914	64.4011	33.6914	64.3682	33.6914	64.3604	33.6914	64.323	33.6914	64.3152	33.6914	64.274	33.6914	64.2668	33.6914	64.2229	33.6914	64.2168	33.6914	64.1712	33.6914	64.1664	33.6914	64.1205	33.6914	64.1173	33.6914	64.0726	33.6914	64.071	33.6914	64.0293	33.6914	64.0289	33.6914	63.9918	33.6914	63.9924	33.6914	63.9615	33.6914	63.9625	33.6914	63.9394	33.6914	63.9403	33.6914	63.926	33.6914	63.9266	33.6914	63.9217
35.1563	65.9146	35.1563	65.9135	35.1563	65.9071	35.1563	65.9037	35.1563	65.891	35.1563	65.8855	35.1563	65.8668	35.1563	65.8593	35.1563	65.8352	35.1563	65.8257	35.1563	65.7969	35.1563	65.7857	35.1563	65.7529	35.1563	65.7402	35.1563	65.7045	35.1563	65.6904	35.1563	65.6531	35.1563	65.6379	35.1563	65.6002	35.1563	65.5841	35.1563	65.5473	35.1563	65.5308	35.1563	65.4961	35.1563	65.4796	35.1563	65.4483	35.1563	65.4325	35.1563	65.4053	35.1563	65.3909	35.1563	65.3686	35.1563	65.3563	35.1563	65.3393	35.1563	65.3299	35.1563	65.3185	35.1563	65.3126	35.1563	65.3069	35.1563	65.3048
36.6211	67.0886	36.6211	67.0864	36.6211	67.0818	36.6211	67.0753	36.6211	67.0663	36.6211	67.0556	36.6211	67.0424	36.6211	67.0279	36.6211	67.0107	36.6211	66.9928	36.6211	66.9722	36.6211	66.9514	36.6211	66.9278	36.6211	66.9048	36.6211	66.8788	36.6211	66.8543	36.6211	66.8266	36.6211	66.8015	36.6211	66.7727	36.6211	66.7479	36.6211	66.7189	36.6211	66.6952	36.6211	66.6667	36.6211	66.6449	36.6211	66.6179	36.6211	66.5987	36.6211	66.5741	36.6211	66.5579	36.6211	66.5366	36.6211	66.5239	36.6211	66.5069	36.6211	66.4978	36.6211	66.4858	36.6211	66.4804	36.6211	66.4743	36.6211	66.4725
38.0859	68.1695	38.0859	68.1652	38.0859	68.1646	38.0859	68.152	38.0859	68.1506	38.0859	68.13	38.0859	68.1281	38.0859	68.1	38.0859	68.0975	38.0859	68.0628	38.0859	68.0598	38.0859	68.0195	38.0859	68.016	38.0859	67.9714	38.0859	67.9675	38.0859	67.9199	38.0859	67.9156	38.0859	67.8667	38.0859	67.8621	38.0859	67.8135	38.0859	67.8085	38.0859	67.7618	38.0859	67.7565	38.0859	67.7133	38.0859	67.7078	38.0859	67.6695	38.0859	67.664	38.0859	67.6316	38.0859	67.6265	38.0859	67.6008	38.0859	67.5963	38.0859	67.5777	38.0859	67.5745	38.0859	67.5633	38.0859	67.5615	38.0859	67.5578
39.5508	69.2159	39.5508	69.2139	39.5508	69.208	39.5508	69.2021	39.5508	69.1904	39.5508	69.181	39.5508	69.1635	39.5508	69.1512	39.5508	69.1279	39.5508	69.1135	39.5508	69.0845	39.5508	69.0691	39.5508	69.0346	39.5508	69.0193	39.5508	68.9795	39.5508	68.9655	39.5508	68.9209	39.5508	68.9094	39.5508	68.8606	39.5508	68.8526	39.5508	68.8007	39.5508	68.7967	39.5508	68.7432	39.5508	68.7434	39.5508	68.6901	39.5508	68.694	39.5508	68.6434	39.5508	68.6499	39.5508	68.6047	39.5508	68.6124	39.5508	68.5753	39.5508	68.5824	39.5508	68.556	39.5508	68.5611	39.5508	68.5473	39.5508	68.5492
41.0156	70.0928	41.0156	70.0929	41.0156	70.0827	41.0156	70.0832	41.0156	70.0629	41.0156	70.064	41.0156	70.0338	41.0156	70.0361	41.0156	69.996	41.0156	70.0003	41.0156	69.9507	41.0156	69.9578	41.0156	69.8992	41.0156	69.91	41.0156	69.8429	41.0156	69.8583	41.0156	69.7838	41.0156	69.8043	41.0156	69.7237	41.0156	69.7496	41.0156	69.665	41.0156	69.6958	41.0156	69.6097	41.0156	69.6444	41.0156	69.56	41.0156	69.5967	41.0156	69.5177	41.0156	69.5538	41.0156	69.4842	41.0156	69.5168	41.0156	69.4605	41.0156	69.4865	41.0156	69.4469	41.0156	69.4637	41.0156	69.4432	41.0156	69.449
42.4805	71.0087	42.4805	70.9986	42.4805	71.0089	42.4805	70.979	42.4805	70.9991	42.4805	70.9503	42.4805	70.9796	42.4805	70.9135	42.4805	70.9509	42.4805	70.8697	42.4805	70.9138	42.4805	70.8204	42.4805	70.8694	42.4805	70.7671	42.4805	70.8189	42.4805	70.7115	42.4805	70.7639	42.4805	70.6554	42.4805	70.706	42.4805	70.6006	42.4805	70.6472	42.4805	70.5487	42.4805	70.5894	42.4805	70.501	42.4805	70.5347	42.4805	70.4588	42.4805	70.485	42.4805	70.4231	42.4805	70.442	42.4805	70.3946	42.4805	70.4071	42.4805	70.374	42.4805	70.3813	42.4805	70.3619	42.4805	70.3652	42.4805	70.3588
43.9453	71.8195	43.9453	71.8151	43.9453	71.814	43.9453	71.8009	43.9453	71.7988	43.9453	71.7774	43.9453	71.7744	43.9453	71.7451	43.9453	71.7416	43.9453	71.7051	43.9453	71.7014	43.9453	71.6585	43.9453	71.6549	43.9453	71.6068	43.9453	71.6036	43.9453	71.5516	43.9453	71.5491	43.9453	71.4946	43.9453	71.493	43.9453	71.4378	43.9453	71.4371	43.9453	71.3828	43.9453	71.383	43.9453	71.3314	43.9453	71.3324	43.9453	71.2852	43.9453	71.2866	43.9453	71.2456	43.9453	71.2471	43.9453	71.2138	43.9453	71.2151	43.9453	71.1904	43.9453	71.1915	43.9453	71.1763	43.9453	71.1769	43.9453	71.1718
45.4102	72.5298	45.4102	72.5287	45.4102	72.5198	45.4102	72.5165	45.4102	72.499	45.4102	72.4935	45.4102	72.468	45.4102	72.4604	45.4102	72.4278	45.4102	72.4183	45.4102	72.3798	45.4102	72.3686	45.4102	72.3254	45.4102	72.3127	45.4102	72.2664	45.4102	72.2526	45.4102	72.2047	45.4102	72.1901	45.4102	72.1423	45.4102	72.1275	45.4102	72.0812	45.4102	72.0667	45.4102	72.0232	45.4102	72.0095	45.4102	71.97	45.4102	71.9578	45.4102	71.9232	45.4102	71.9129	45.4102	71.8841	45.4102	71.8759	45.4102	71.8537	45.4102	71.8478	45.4102	71.8326	45.4102	71.8291	45.4102	71.8214	45.4102	71.8202
46.875	73.2217	46.875	73.2213	46.875	73.2102	46.875	73.2091	46.875	73.187	46.875	73.1853	46.875	73.1527	46.875	73.1508	46.875	73.1082	46.875	73.1065	46.875	73.0547	46.875	73.0537	46.875	72.9937	46.875	72.9939	46.875	72.9272	46.875	72.929	46.875	72.8571	46.875	72.8608	46.875	72.7858	46.875	72.7916	46.875	72.7155	46.875	72.7232	46.875	72.6485	46.875	72.6579	46.875	72.5871	46.875	72.5976	46.875	72.5333	46.875	72.544	46.875	72.4887	46.875	72.4987	46.875	72.4548	46.875	72.4629	46.875	72.4325	46.875	72.4377	46.875	72.4221	46.875	72.424
48.3398	73.735	48.3398	73.7336	48.3398	73.7247	48.3398	73.7204	48.3398	73.7028	48.3398	73.696	48.3398	73.6699	48.3398	73.6609	48.3398	73.6268	48.3398	73.6161	48.3398	73.5746	48.3398	73.5629	48.3398	73.5148	48.3398	73.5028	48.3398	73.4491	48.3398	73.4374	48.3398	73.3793	48.3398	73.3686	48.3398	73.3076	48.3398	73.2985	48.3398	73.2363	48.3398	73.2292	48.3398	73.1677	48.3398	73.1626	48.3398	73.1041	48.3398	73.101	48.3398	73.0475	48.3398	73.0462	48.3398	72.9999	48.3398	72.9998	48.3398	72.963	48.3398	72.9635	48.3398	72.9378	48.3398	72.9384	48.3398	72.9252	48.3398	72.9255
51.2695	74.7308	51.2695	74.7272	51.2695	74.7239	51.2695	74.7133	51.2695	74.7069	51.2695	74.6895	51.2695	74.6801	51.2695	74.6568	51.2695	74.6446	51.2695	74.6162	51.2695	74.6015	51.2695	74.5692	51.2695	74.5523	51.2695	74.5174	51.2695	74.4986	51.2695	74.4626	51.2695	74.4424	51.2695	74.4067	51.2695	74.3855	51.2695	74.3516	51.2695	74.3297	51.2695	74.2989	51.2695	74.2771	51.2695	74.2502	51.2695	74.229	51.2695	74.2067	51.2695	74.1871	51.2695	74.1695	51.2695	74.1523	51.2695	74.1393	51.2695	74.1253	51.2695	74.1165	51.2695	74.1067	51.2695	74.1017	51.2695	74.0966	51.2695	74.095
52.7344	75.1709	52.7344	75.1669	52.7344	75.1641	52.7344	75.1524	52.7344	75.1469	52.7344	75.1279	52.7344	75.1199	52.7344	75.0942	52.7344	75.0841	52.7344	75.0527	52.7344	75.0407	52.7344	75.005	52.7344	74.9913	52.7344	74.9527	52.7344	74.9378	52.7344	74.8978	52.7344	74.882	52.7344	74.8424	52.7344	74.826	52.7344	74.7883	52.7344	74.7715	52.7344	74.7374	52.7344	74.7206	52.7344	74.6909	52.7344	74.6746	52.7344	74.6501	52.7344	74.6349	52.7344	74.6157	52.7344	74.6022	52.7344	74.5882	52.7344	74.5772	52.7344	74.5678	52.7344	74.5599	52.7344	74.5546	52.7344	74.5506	52.7344	74.5488
54.1992	75.4794	54.1992	75.478	54.1992	75.4703	54.1992	75.4663	54.1992	75.4511	54.1992	75.4447	54.1992	75.4225	54.1992	75.414	54.1992	75.3857	54.1992	75.3755	54.1992	75.3419	54.1992	75.3306	54.1992	75.293	54.1992	75.2812	54.1992	75.2406	54.1992	75.2292	54.1992	75.1868	54.1992	75.1765	54.1992	75.1334	54.1992	75.125	54.1992	75.0824	54.1992	75.0763	54.1992	75.0353	54.1992	75.032	54.1992	74.9935	54.1992	74.9929	54.1992	74.9582	54.1992	74.9597	54.1992	74.9299	54.1992	74.9327	54.1992	74.9091	54.1992	74.9122	54.1992	74.8957	54.1992	74.898	54.1992	74.8896	54.1992	74.8904
55.6641	75.7807	55.6641	75.7853	55.6641	75.7635	55.6641	75.7774	55.6641	75.7344	55.6641	75.7574	55.6641	75.6943	55.6641	75.7262	55.6641	75.6445	55.6641	75.6851	55.6641	75.5871	55.6641	75.6358	55.6641	75.5242	55.6641	75.5804	55.6641	75.4583	55.6641	75.521	55.6641	75.392	55.6641	75.4599	55.6641	75.328	55.6641	75.3993	55.6641	75.2688	55.6641	75.3414	55.6641	75.2164	55.6641	75.2877	55.6641	75.1723	55.6641	75.2397	55.6641	75.1375	55.6641	75.198	55.6641	75.1123	55.6641	75.163	55.6641	75.0965	55.6641	75.1347	55.6641	75.0893	55.6641	75.1132	55.6641	75.0902	55.6641	75.0983
58.5938	76.4521	58.5938	76.4421	58.5938	76.4488	58.5938	76.419	58.5938	76.4321	58.5938	76.3837	58.5938	76.4025	58.5938	76.3374	58.5938	76.361	58.5938	76.2816	58.5938	76.3089	58.5938	76.2182	58.5938	76.2477	58.5938	76.1494	58.5938	76.1797	58.5938	76.0776	58.5938	76.1069	58.5938	76.0051	58.5938	76.032	58.5938	75.9343	58.5938	75.9574	58.5938	75.8672	58.5938	75.8857	58.5938	75.8058	58.5938	75.8192	58.5938	75.7515	58.5938	75.76	58.5938	75.7055	58.5938	75.7099	58.5938	75.6686	58.5938	75.6701	58.5938	75.6415	58.5938	75.6415	58.5938	75.6248	58.5938	75.6245	58.5938	75.619
60.0586	76.6344	60.0586	76.6252	60.0586	76.6305	60.0586	76.6032	60.0586	76.6134	60.0586	76.5689	60.0586	76.5839	60.0586	76.5236	60.0586	76.5429	60.0586	76.4687	60.0586	76.4916	60.0586	76.406	60.0586	76.4319	60.0586	76.3376	60.0586	76.3657	60.0586	76.2658	60.0586	76.2952	60.0586	76.193	60.0586	76.2229	60.0586	76.1216	60.0586	76.151	60.0586	76.0538	60.0586	76.082	60.0586	75.9917	60.0586	76.0178	60.0586	75.9371	60.0586	75.9603	60.0586	75.8913	60.0586	75.9108	60.0586	75.8554	60.0586	75.8706	60.0586	75.8301	60.0586	75.8405	60.0586	75.8158	60.0586	75.8212	60.0586	75.8129
62.9883	77.1212	62.9883	77.1161	62.9883	77.114	62.9883	77.0987	62.9883	77.0946	62.9883	77.0699	62.9883	77.0638	62.9883	77.0306	62.9883	77.0226	62.9883	76.9822	62.9883	76.9724	62.9883	76.9267	62.9883	76.915	62.9883	76.8659	62.9883	76.8525	62.9883	76.8021	62.9883	76.7872	62.9883	76.7375	62.9883	76.7212	62.9883	76.6743	62.9883	76.6569	62.9883	76.6145	62.9883	76.5965	62.9883	76.5597	62.9883	76.5417	62.9883	76.5113	62.9883	76.494	62.9883	76.4703	62.9883	76.4547	62.9883	76.4373	62.9883	76.4245	62.9883	76.4127	62.9883	76.4035	62.9883	76.3968	62.9883	76.392	62.9883	76.3899
64.4531	77.3376	64.4531	77.3322	64.4531	77.3307	64.4531	77.3148	64.4531	77.3117	64.4531	77.2859	64.4531	77.2814	64.4531	77.2467	64.4531	77.241	64.4531	77.1989	64.4531	77.192	64.4531	77.1442	64.4531	77.1362	64.4531	77.0848	64.4531	77.0758	64.4531	77.0229	64.4531	77.0131	64.4531	76.961	64.4531	76.9504	64.4531	76.9011	64.4531	76.8897	64.4531	76.8451	64.4531	76.8333	64.4531	76.7945	64.4531	76.7826	64.4531	76.7505	64.4531	76.7389	64.4531	76.7138	64.4531	76.7032	64.4531	76.6847	64.4531	76.6758	64.4531	76.6634	64.4531	76.6569	64.4531	76.6498	64.4531	76.6464	64.4531	76.6441
67.3828	77.6804	67.3828	77.6737	67.3828	77.6743	67.3828	77.6545	67.3828	77.6556	67.3828	77.6236	67.3828	77.6252	67.3828	77.5824	67.3828	77.5843	67.3828	77.5326	67.3828	77.5346	67.3828	77.4764	67.3828	77.4783	67.3828	77.4162	67.3828	77.4177	67.3828	77.3545	67.3828	77.3553	67.3828	77.2938	67.3828	77.2936	67.3828	77.2362	67.3828	77.2349	67.3828	77.1838	67.3828	77.1812	67.3828	77.1377	67.3828	77.134	67.3828	77.0988	67.3828	77.0943	67.3828	77.0673	67.3828	77.0625	67.3828	77.0432	67.3828	77.0388	67.3828	77.0261	67.3828	77.0226	67.3828	77.0155	67.3828	77.0137	67.3828	77.0114
68.8477	77.7704	68.8477	77.7616	68.8477	77.766	68.8477	77.7399	68.8477	77.7486	68.8477	77.7062	68.8477	77.7191	68.8477	77.6621	68.8477	77.6786	68.8477	77.6094	68.8477	77.6289	68.8477	77.5505	68.8477	77.5723	68.8477	77.4879	68.8477	77.5111	68.8477	77.4243	68.8477	77.448	68.8477	77.3623	68.8477	77.3854	68.8477	77.3043	68.8477	77.3259	68.8477	77.2521	68.8477	77.2714	68.8477	77.2071	68.8477	77.2235	68.8477	77.1699	68.8477	77.1831	68.8477	77.1406	68.8477	77.1507	68.8477	77.119	68.8477	77.1261	68.8477	77.1044	68.8477	77.1089	68.8477	77.0964	68.8477	77.0985	68.8477	77.0945
71.7773	78.0917	71.7773	78.0795	71.7773	78.0893	71.7773	78.0532	71.7773	78.0726	71.7773	78.0137	71.7773	78.0425	71.7773	77.9626	71.7773	78.0005	71.7773	77.9022	71.7773	77.9485	71.7773	77.835	71.7773	77.8888	71.7773	77.764	71.7773	77.824	71.7773	77.6926	71.7773	77.757	71.7773	77.6236	71.7773	77.6905	71.7773	77.56	71.7773	77.6269	71.7773	77.5039	71.7773	77.5685	71.7773	77.4569	71.7773	77.5168	71.7773	77.4197	71.7773	77.4726	71.7773	77.3921	71.7773	77.4364	71.7773	77.3736	71.7773	77.4079	71.7773	77.3631	71.7773	77.3865	71.7773	77.3598	71.7773	77.3716	71.7773	77.3627
74.707	78.514	74.707	78.505	74.707	78.5076	74.707	78.4807	74.707	78.4863	74.707	78.4421	74.707	78.4512	74.707	78.3905	74.707	78.4037	74.707	78.3281	74.707	78.346	74.707	78.2573	74.707	78.2807	74.707	78.1813	74.707	78.2104	74.707	78.1032	74.707	78.1382	74.707	78.0263	74.707	78.0667	74.707	77.954	74.707	77.9986	74.707	77.8887	74.707	77.9359	74.707	77.8327	74.707	77.8802	74.707	77.7872	74.707	77.8325	74.707	77.7526	74.707	77.7929	74.707	77.7286	74.707	77.7614	74.707	77.7143	74.707	77.7375	74.707	77.7089	74.707	77.7208	74.707	77.7112
77.6367	78.6871	77.6367	78.6798	77.6367	78.6796	77.6367	78.6579	77.6367	78.6578	77.6367	78.6223	77.6367	78.6228	77.6367	78.5743	77.6367	78.5763	77.6367	78.5162	77.6367	78.5204	77.6367	78.4504	77.6367	78.4577	77.6367	78.3799	77.6367	78.391	77.6367	78.3079	77.6367	78.3232	77.6367	78.2375	77.6367	78.2571	77.6367	78.1716	77.6367	78.1951	77.6367	78.1128	77.6367	78.1391	77.6367	78.0627	77.6367	78.0904	77.6367	78.0223	77.6367	78.0496	77.6367	77.9918	77.6367	78.0167	77.6367	77.9707	77.6367	77.9912	77.6367	77.9579	77.6367	77.9726	77.6367	77.9525	77.6367	77.9601	77.6367	77.9534
79.1016	78.6775	79.1016	78.6719	79.1016	78.6683	79.1016	78.6515	79.1016	78.6447	79.1016	78.6172	79.1016	78.6078	79.1016	78.5707	79.1016	78.5594	79.1016	78.5139	79.1016	78.5017	79.1016	78.4495	79.1016	78.4375	79.1016	78.3805	79.1016	78.3698	79.1016	78.3099	79.1016	78.3015	79.1016	78.241	79.1016	78.2356	79.1016	78.1766	79.1016	78.1745	79.1016	78.119	79.1016	78.1203	79.1016	78.07	79.1016	78.0741	79.1016	78.0303	79.1016	78.0363	79.1016	78.0001	79.1016	78.0068	79.1016	77.9786	79.1016	77.9849	79.1016	77.9649	79.1016	77.9697	79.1016	77.9578	79.1016	77.9604	79.1016	77.9565
82.0313	78.8252	82.0313	78.8202	82.0313	78.815	82.0313	78.8003	82.0313	78.7902	82.0313	78.7666	82.0313	78.7517	82.0313	78.7206	82.0313	78.7014	82.0313	78.6646	82.0313	78.6416	82.0313	78.6014	82.0313	78.5752	82.0313	78.5339	82.0313	78.5052	82.0313	78.4654	82.0313	78.4349	82.0313	78.3989	82.0313	78.3675	82.0313	78.3372	82.0313	78.3058	82.0313	78.2823	82.0313	78.2519	82.0313	78.2358	82.0313	78.2072	82.0313	78.198	82.0313	78.1722	82.0313	78.1687	82.0313	78.1466	82.0313	78.1469	82.0313	78.1294	82.0313	78.1317	82.0313	78.1195	82.0313	78.1217	82.0313	78.1155	82.0313	78.1164
84.9609	79.0562	84.9609	79.0444	84.9609	79.0532	84.9609	79.0185	84.9609	79.0361	84.9609	78.9794	84.9609	79.0058	84.9609	78.9293	84.9609	78.9644	84.9609	78.8706	84.9609	78.9142	84.9609	78.8066	84.9609	78.8581	84.9609	78.7409	84.9609	78.7992	84.9609	78.6768	84.9609	78.7405	84.9609	78.6179	84.9609	78.6851	84.9609	78.5668	84.9609	78.6351	84.9609	78.5254	84.9609	78.5922	84.9609	78.4945	84.9609	78.5571	84.9609	78.474	84.9609	78.5298	84.9609	78.4624	84.9609	78.5094	84.9609	78.4581	84.9609	78.4945	84.9609	78.4588	84.9609	78.4837	84.9609	78.4627	84.9609	78.4752	84.9609	78.4683
87.8906	79.1238	87.8906	79.1154	87.8906	79.1143	87.8906	79.0894	87.8906	79.0874	87.8906	79.0469	87.8906	79.0447	87.8906	78.99	87.8906	78.9886	87.8906	78.9217	87.8906	78.9222	87.8906	78.8456	87.8906	78.8492	87.8906	78.7657	87.8906	78.7735	87.8906	78.6864	87.8906	78.6993	87.8906	78.6121	87.8906	78.6303	87.8906	78.5462	87.8906	78.5696	87.8906	78.4916	87.8906	78.5192	87.8906	78.4497	87.8906	78.4798	87.8906	78.4206	87.8906	78.451	87.8906	78.4031	87.8906	78.4313	87.8906	78.3948	87.8906	78.4184	87.8906	78.393	87.8906	78.41	87.8906	78.3951	87.8906	78.404	87.8906	78.3991
90.8203	79.2874	90.8203	79.2835	90.8203	79.2728	90.8203	79.2611	90.8203	79.2403	90.8203	79.2214	90.8203	79.1914	90.8203	79.1663	90.8203	79.1285	90.8203	79.0984	90.8203	79.0547	90.8203	79.0213	90.8203	78.9737	90.8203	78.9389	90.8203	78.8894	90.8203	78.8553	90.8203	78.8062	90.8203	78.7748	90.8203	78.728	90.8203	78.7011	90.8203	78.6583	90.8203	78.6371	90.8203	78.5994	90.8203	78.5846	90.8203	78.5528	90.8203	78.5441	90.8203	78.5184	90.8203	78.5148	90.8203	78.4951	90.8203	78.4951	90.8203	78.481	90.8203	78.4827	90.8203	78.4737	90.8203	78.4755	90.8203	78.4711	90.8203	78.4719
95.2148	79.4128	95.2148	79.4058	95.2148	79.4012	95.2148	79.3804	95.2148	79.3711	95.2148	79.3382	95.2148	79.3239	95.2148	79.2812	95.2148	79.2617	95.2148	79.2122	95.2148	79.1873	95.2148	79.1349	95.2148	79.1044	95.2148	79.0529	95.2148	79.017	95.2148	78.9704	95.2148	78.9294	95.2148	78.891	95.2148	78.8457	95.2148	78.8181	95.2148	78.7697	95.2148	78.754	95.2148	78.7043	95.2148	78.7001	95.2148	78.651	95.2148	78.6567	95.2148	78.6106	95.2148	78.6232	95.2148	78.5824	95.2148	78.598	95.2148	78.5649	95.2148	78.5796	95.2148	78.5563	95.2148	78.5667	95.2148	78.5547	95.2148	78.5584
98.1445	79.4849	98.1445	79.4764	98.1445	79.4738	98.1445	79.449	98.1445	79.4434	98.1445	79.4044	98.1445	79.3949	98.1445	79.345	98.1445	79.3305	98.1445	79.2744	98.1445	79.2532	98.1445	79.1965	98.1445	79.1667	98.1445	79.1158	98.1445	79.0756	98.1445	79.0366	98.1445	78.9846	98.1445	78.9631	98.1445	78.8984	98.1445	78.8985	98.1445	78.8215	98.1445	78.8447	98.1445	78.7574	98.1445	78.8022	98.1445	78.7085	98.1445	78.77	98.1445	78.6754	98.1445	78.7459	98.1445	78.6573	98.1445	78.7271	98.1445	78.6521	98.1445	78.7112	98.1445	78.6566	98.1445	78.696	98.1445	78.6673	98.1445	78.6811
101.074	79.5896	101.074	79.578	101.074	79.5808	101.074	79.5463	101.074	79.5523	101.074	79.4956	101.074	79.5059	101.074	79.4283	101.074	79.4441	101.074	79.3477	101.074	79.37	101.074	79.2578	101.074	79.2874	101.074	79.1636	101.074	79.2003	101.074	79.0699	101.074	79.1129	101.074	78.9817	101.074	79.0291	101.074	78.9033	101.074	78.9523	101.074	78.8377	101.074	78.8852	101.074	78.7864	101.074	78.8296	101.074	78.7493	101.074	78.7859	101.074	78.7249	101.074	78.7537	101.074	78.7107	101.074	78.7315	101.074	78.7039	101.074	78.7171	101.074	78.7021	101.074	78.7084	101.074	78.7037
105.469	79.606	105.469	79.6024	105.469	79.5882	105.469	79.5774	105.469	79.5497	105.469	79.5325	105.469	79.4925	105.469	79.47	105.469	79.4197	105.469	79.3934	105.469	79.3353	105.469	79.307	105.469	79.2439	105.469	79.2157	105.469	79.1506	105.469	79.1248	105.469	79.0606	105.469	79.0394	105.469	78.9788	105.469	78.9639	105.469	78.9089	105.469	78.9015	105.469	78.8535	105.469	78.8539	105.469	78.8135	105.469	78.8207	105.469	78.7881	105.469	78.8	105.469	78.7749	105.469	78.7888	105.469	78.7706	105.469	78.7835	105.469	78.7717	105.469	78.7807	105.469	78.7749	105.469	78.7782
108.398	79.7456	108.398	79.7319	108.398	79.7368	108.398	79.6961	108.398	79.7062	108.398	79.6398	108.398	79.6556	108.398	79.5659	108.398	79.588	108.398	79.4781	108.398	79.5073	108.398	79.3813	108.398	79.4183	108.398	79.2807	108.398	79.3259	108.398	79.1819	108.398	79.2354	108.398	79.0903	108.398	79.1513	108.398	79.0106	108.398	79.0776	108.398	78.946	108.398	79.0165	108.398	78.8983	108.398	78.9691	108.398	78.8672	108.398	78.9346	108.398	78.8508	108.398	78.9108	108.398	78.846	108.398	78.8948	108.398	78.849	108.398	78.8834	108.398	78.8562	108.398	78.8741	108.398	78.8651
112.793	79.7533	112.793	79.7417	112.793	79.7416	112.793	79.7077	112.793	79.7073	112.793	79.6531	112.793	79.6519	112.793	79.5809	112.793	79.5782	112.793	79.4952	112.793	79.4901	112.793	79.4009	112.793	79.3924	112.793	79.3033	112.793	79.2906	112.793	79.2081	112.793	79.1906	112.793	79.1205	112.793	79.0979	112.793	79.0446	112.793	79.0173	112.793	78.9834	112.793	78.9523	112.793	78.9376	112.793	78.9044	112.793	78.9063	112.793	78.8731	112.793	78.8871	112.793	78.8564	112.793	78.8763	112.793	78.8508	112.793	78.8705	112.793	78.8521	112.793	78.8663	112.793	78.8567	112.793	78.8619
117.188	79.7731	117.188	79.7669	117.188	79.7561	117.188	79.7376	117.188	79.7171	117.188	79.6864	117.188	79.6583	117.188	79.616	117.188	79.5834	117.188	79.5302	117.188	79.4968	117.188	79.4339	117.188	79.4036	117.188	79.3331	117.188	79.3095	117.188	79.2339	117.188	79.2199	117.188	79.1426	117.188	79.1398	117.188	79.0643	117.188	79.0727	117.188	79.0027	117.188	79.0206	117.188	78.9591	117.188	78.9838	117.188	78.9327	117.188	78.9605	117.188	78.9206	117.188	78.9479	117.188	78.9189	117.188	78.9423	117.188	78.923	117.188	78.9401	117.188	78.9292	117.188	78.9382	117.188	78.9347
120.117	79.7473	120.117	79.7397	120.117	79.7296	120.117	79.7075	120.117	79.6874	120.117	79.6527	120.117	79.6227	120.117	79.5786	120.117	79.5393	120.117	79.4899	120.117	79.4422	120.117	79.3922	120.117	79.3375	120.117	79.2917	120.117	79.2322	120.117	79.1952	120.117	79.1333	120.117	79.109	120.117	79.0473	120.117	79.0381	120.117	78.9792	120.117	78.9858	120.117	78.9317	120.117	78.9528	120.117	78.9048	120.117	78.937	120.117	78.8961	120.117	78.9346	120.117	78.9011	120.117	78.94	120.117	78.9143	120.117	78.9475	120.117	78.9301	120.117	78.9523	120.117	78.9435	120.117	78.9513
124.512	79.9222	124.512	79.9052	124.512	79.9114	124.512	79.8612	124.512	79.8734	124.512	79.7924	124.512	79.8102	124.512	79.7021	124.512	79.7253	124.512	79.5955	124.512	79.6234	124.512	79.4783	124.512	79.5103	124.512	79.3578	124.512	79.3931	124.512	79.2412	124.512	79.2791	124.512	79.1358	124.512	79.1753	124.512	79.0476	124.512	79.0877	124.512	78.9808	124.512	79.0203	124.512	78.9368	124.512	78.9745	124.512	78.9142	124.512	78.9486	124.512	78.909	124.512	78.9388	124.512	78.9155	124.512	78.9392	124.512	78.9273	124.512	78.9438	124.512	78.9388	124.512	78.9473	124.512	78.946
128.906	79.8626	128.906	79.852	128.906	79.8448	128.906	79.8136	128.906	79.7996	128.906	79.7489	128.906	79.7294	128.906	79.6612	128.906	79.6377	128.906	79.5548	128.906	79.5294	128.906	79.4356	128.906	79.4106	128.906	79.3105	128.906	79.2882	128.906	79.1872	128.906	79.1696	128.906	79.0732	128.906	79.0619	128.906	78.9753	128.906	78.9709	128.906	78.8983	128.906	78.9006	128.906	78.8445	128.906	78.8523	128.906	78.8129	128.906	78.8243	128.906	78.7999	128.906	78.8128	128.906	78.8	128.906	78.8121	128.906	78.8069	128.906	78.8161	128.906	78.8148	128.906	78.8198	128.906	78.8197
133.301	79.7608	133.301	79.7557	133.301	79.7379	133.301	79.7228	133.301	79.6878	133.301	79.6641	133.301	79.6128	133.301	79.5827	133.301	79.517	133.301	79.4833	133.301	79.4053	133.301	79.3717	133.301	79.2843	133.301	79.2547	133.301	79.1612	133.301	79.1395	133.301	79.0437	133.301	79.0334	133.301	78.9393	133.301	78.9426	133.301	78.854	133.301	78.8715	133.301	78.7915	133.301	78.8217	133.301	78.7527	133.301	78.7922	133.301	78.7355	133.301	78.7792	133.301	78.7353	133.301	78.7774	133.301	78.7456	133.301	78.7805	133.301	78.7601	133.301	78.7831	133.301	78.7731	133.301	78.7812
139.16	79.732	139.16	79.7245	139.16	79.7096	139.16	79.6878	139.16	79.6577	139.16	79.6242	139.16	79.5786	139.16	79.5376	139.16	79.4762	139.16	79.4332	139.16	79.3558	139.16	79.3175	139.16	79.2242	139.16	79.1978	139.16	79.0898	139.16	79.0819	139.16	78.9613	139.16	78.9773	139.16	78.8473	139.16	78.8902	139.16	78.7554	139.16	78.8243	139.16	78.6903	139.16	78.7806	139.16	78.6535	139.16	78.7572	139.16	78.6426	139.16	78.7491	139.16	78.6521	139.16	78.75	139.16	78.6744	139.16	78.753	139.16	78.7014	139.16	78.7522	139.16	78.7261	139.16	78.7437
143.555	79.6932	143.555	79.6789	143.555	79.6748	143.555	79.6332	143.555	79.6244	143.555	79.5587	143.555	79.5443	143.555	79.4596	143.555	79.4383	143.555	79.3421	143.555	79.3121	143.555	79.2133	143.555	79.1731	143.555	79.0816	143.555	79.03	143.555	78.9559	143.555	78.8923	143.555	78.8446	143.555	78.7693	143.555	78.7544	143.555	78.6692	143.555	78.6894	143.555	78.5973	143.555	78.6501	143.555	78.5557	143.555	78.6332	143.555	78.5421	143.555	78.6328	143.555	78.5508	143.555	78.641	143.555	78.5738	143.555	78.6498	143.555	78.6022	143.555	78.6528	143.555	78.6281	143.555	78.6458
147.949	79.6217	147.949	79.6056	147.949	79.6034	147.949	79.5561	147.949	79.5513	147.949	79.4757	147.949	79.4677	147.949	79.3688	147.949	79.3568	147.949	79.2413	147.949	79.2244	147.949	79.1008	147.949	79.078	147.949	78.956	147.949	78.9266	147.949	78.8166	147.949	78.7802	147.949	78.6916	147.949	78.6488	147.949	78.5889	147.949	78.541	147.949	78.5134	147.949	78.4626	147.949	78.4666	147.949	78.4156	147.949	78.4457	147.949	78.3976	147.949	78.4446	147.949	78.4024	147.949	78.4551	147.949	78.4213	147.949	78.4686	147.949	78.445	147.949	78.4775	147.949	78.4654	147.949	78.477
153.809	79.5415	153.809	79.5235	153.809	79.5243	153.809	79.4713	153.809	79.472	153.809	79.3879	153.809	79.3867	153.809	79.2776	153.809	79.272	153.809	79.1464	153.809	79.1334	153.809	79.0017	153.809	78.9783	153.809	78.8522	153.809	78.8157	153.809	78.7072	153.809	78.656	153.809	78.5758	153.809	78.5098	153.809	78.4655	153.809	78.3867	153.809	78.3814	153.809	78.2937	153.809	78.3249	153.809	78.2338	153.809	78.2935	153.809	78.2054	153.809	78.2814	153.809	78.2027	153.809	78.281	153.809	78.2172	153.809	78.2844	153.809	78.2395	153.809	78.2846	153.809	78.2615	153.809	78.2773
159.668	79.5424	159.668	79.5238	159.668	79.5246	159.668	79.4696	159.668	79.4712	159.668	79.3826	159.668	79.3849	159.668	79.2672	159.668	79.2697	159.668	79.1301	159.668	79.1315	159.668	78.9796	159.668	78.9777	159.668	78.8255	159.668	78.8171	159.668	78.6782	159.668	78.6595	159.668	78.5478	159.668	78.5151	159.668	78.4422	159.668	78.3932	159.668	78.3661	159.668	78.3007	159.668	78.32	159.668	78.2412	159.668	78.2998	159.668	78.2137	159.668	78.2981	159.668	78.2132	159.668	78.3057	159.668	78.2312	159.668	78.3137	159.668	78.2584	159.668	78.3149	159.668	78.2855	159.668	78.3056
165.527	79.5124	165.527	79.4948	165.527	79.4921	165.527	79.44	165.527	79.4349	165.527	79.3506	165.527	79.344	165.527	79.2316	165.527	79.2243	165.527	79.0897	165.527	79.0826	165.527	78.9341	165.527	78.9275	165.527	78.7755	165.527	78.769	165.527	78.6255	165.527	78.6181	165.527	78.4956	165.527	78.4852	165.527	78.3948	165.527	78.3796	165.527	78.3287	165.527	78.3072	165.527	78.2976	165.527	78.2697	165.527	78.2966	165.527	78.2638	165.527	78.3166	165.527	78.2822	165.527	78.3464	165.527	78.3148	165.527	78.3749	165.527	78.3506	165.527	78.3928	165.527	78.3796	165.527	78.3948
171.387	79.4774	171.387	79.4531	171.387	79.4595	171.387	79.3874	171.387	79.4008	171.387	79.2834	171.387	79.3045	171.387	79.1463	171.387	79.1761	171.387	78.9841	171.387	79.0233	171.387	78.8071	171.387	78.8558	171.387	78.6277	171.387	78.6853	171.387	78.4599	171.387	78.5246	171.387	78.3171	171.387	78.3863	171.387	78.2101	171.387	78.2806	171.387	78.1454	171.387	78.2139	171.387	78.1231	171.387	78.1865	171.387	78.1372	171.387	78.193	171.387	78.1768	171.387	78.2233	171.387	78.2284	171.387	78.2643	171.387	78.2786	171.387	78.3029	171.387	78.3161	171.387	78.3284	171.387	78.3336
177.246	79.4598	177.246	79.4443	177.246	79.4309	177.246	79.3845	177.246	79.3596	177.246	79.2826	177.246	79.25	177.246	79.1431	177.246	79.1078	177.246	78.9734	177.246	78.9412	177.246	78.7838	177.246	78.7605	177.246	78.5873	177.246	78.5775	177.246	78.3988	177.246	78.4053	177.246	78.2336	177.246	78.2566	177.246	78.1047	177.246	78.1419	177.246	78.0203	177.246	78.0674	177.246	77.9817	177.246	78.0337	177.246	77.9834	177.246	78.035	177.246	78.0141	177.246	78.0609	177.246	78.0598	177.246	78.0981	177.246	78.1065	177.246	78.1336	177.246	78.1425	177.246	78.1566	177.246	78.1602
183.105	79.2713	183.105	79.2618	183.105	79.2327	183.105	79.2044	183.105	79.1475	183.105	79.1015	183.105	79.0194	183.105	78.9576	183.105	78.8545	183.105	78.7797	183.105	78.6616	183.105	78.578	183.105	78.4523	183.105	78.3658	183.105	78.2414	183.105	78.1594	183.105	78.0451	183.105	77.9761	183.105	77.88	183.105	77.8318	183.105	77.7595	183.105	77.7378	183.105	77.6912	183.105	77.6971	183.105	77.6744	183.105	77.7042	183.105	77.7005	183.105	77.7459	183.105	77.7545	183.105	77.805	183.105	77.8189	183.105	77.8638	183.105	77.8769	183.105	77.9076	183.105	77.9153	183.105	77.9261
188.965	79.1961	188.965	79.1956	188.965	79.1504	188.965	79.1495	188.965	79.0587	188.965	79.0598	188.965	78.9227	188.965	78.9297	188.965	78.746	188.965	78.7639	188.965	78.5344	188.965	78.5697	188.965	78.2971	188.965	78.3572	188.965	78.0463	188.965	78.1392	188.965	77.7983	188.965	77.9312	188.965	77.5712	188.965	77.749	188.965	77.3833	188.965	77.6056	188.965	77.2492	188.965	77.5082	188.965	77.1757	188.965	77.4556	188.965	77.1603	188.965	77.4385	188.965	77.1912	188.965	77.4422	188.965	77.2508	188.965	77.4502	188.965	77.32	188.965	77.4481	188.965	77.3822	188.965	77.4264
196.289	79.0529	196.289	79.0302	196.289	79.0299	196.289	78.9639	196.289	78.9611	196.289	78.8581	196.289	78.8481	196.289	78.7187	196.289	78.6953	196.289	78.5534	196.289	78.5091	196.289	78.3716	196.289	78.2992	196.289	78.184	196.289	78.0778	196.289	78.0024	196.289	77.8598	196.289	77.8385	196.289	77.6614	196.289	77.7026	196.289	77.4979	196.289	77.6018	196.289	77.381	196.289	77.5385	196.289	77.3157	196.289	77.509	196.289	77.2991	196.289	77.5048	196.289	77.3211	196.289	77.5137	196.289	77.3671	196.289	77.5233	196.289	77.4216	196.289	77.5229	196.289	77.4709	196.289	77.506
203.613	78.9491	203.613	78.9124	203.613	78.934	203.613	78.8254	203.613	78.8683	203.613	78.6917	203.613	78.7551	203.613	78.5177	203.613	78.5999	203.613	78.3132	203.613	78.4107	203.613	78.0917	203.613	78.1983	203.613	77.8695	203.613	77.9768	203.613	77.6653	203.613	77.7625	203.613	77.4971	203.613	77.5732	203.613	77.3791	203.613	77.4251	203.613	77.3176	203.613	77.3296	203.613	77.31	203.613	77.2903	203.613	77.3449	203.613	77.3015	203.613	77.4051	203.613	77.3498	203.613	77.472	203.613	77.4173	203.613	77.5286	203.613	77.4856	203.613	77.5623	203.613	77.5388	203.613	77.5661
210.938	78.8826	210.938	78.8545	210.938	78.8568	210.938	78.7729	210.938	78.7785	210.938	78.6401	210.938	78.6508	210.938	78.4609	210.938	78.479	210.938	78.2429	210.938	78.2708	210.938	77.9971	210.938	78.0365	210.938	77.7389	210.938	77.7898	210.938	77.4875	210.938	77.5474	210.938	77.2647	210.938	77.3286	210.938	77.0913	210.938	77.1522	210.938	76.9823	210.938	77.033	210.938	76.942	210.938	76.9776	210.938	76.962	210.938	76.9814	210.938	77.0237	210.938	77.0294	210.938	77.1032	210.938	77.1003	210.938	77.1775	210.938	77.1716	210.938	77.2282	210.938	77.224	210.938	77.2447
218.262	78.7328	218.262	78.7095	218.262	78.7008	218.262	78.6316	218.262	78.6144	218.262	78.5018	218.262	78.477	218.262	78.3251	218.262	78.2942	218.262	78.1089	218.262	78.0744	218.262	77.8641	218.262	77.8292	218.262	77.605	218.262	77.5734	218.262	77.3497	218.262	77.3247	218.262	77.1187	218.262	77.1022	218.262	76.9321	218.262	76.9239	218.262	76.8054	218.262	76.803	218.262	76.7444	218.262	76.7441	218.262	76.7435	218.262	76.742	218.262	76.7866	218.262	76.7822	218.262	76.8515	218.262	76.8448	218.262	76.9156	218.262	76.9087	218.262	76.9605	218.262	76.9562	218.262	76.9751
225.586	78.6287	225.586	78.6186	225.586	78.5807	225.586	78.5507	225.586	78.4759	225.586	78.4277	225.586	78.3182	225.586	78.2541	225.586	78.1142	225.586	78.0378	225.586	77.8743	225.586	77.7901	225.586	77.6131	225.586	77.527	225.586	77.3498	225.586	77.269	225.586	77.1068	225.586	77.0397	225.586	76.9071	225.586	76.8621	225.586	76.7693	225.586	76.7529	225.586	76.7031	225.586	76.7174	225.586	76.7057	225.586	76.747	225.586	76.7627	225.586	76.8219	225.586	76.8521	225.586	76.9168	225.586	76.9496	225.586	77.0069	225.586	77.0333	225.586	77.0725	225.586	77.087	225.586	77.1008
232.91	78.7749	232.91	78.7683	232.91	78.7136	232.91	78.6958	232.91	78.5844	232.91	78.5614	232.91	78.3892	232.91	78.3709	232.91	78.1329	232.91	78.133	232.91	77.8242	232.91	77.8594	232.91	77.4768	232.91	77.566	232.91	77.1118	232.91	77.2735	232.91	76.7578	232.91	77.0064	232.91	76.45	232.91	76.7905	232.91	76.2238	232.91	76.647	232.91	76.1046	232.91	76.5855	232.91	76.0984	232.91	76.5991	232.91	76.1882	232.91	76.6657	232.91	76.34	232.91	76.7542	232.91	76.5144	232.91	76.8329	232.91	76.6758	232.91	76.8758	232.91	76.7981	232.91	76.8662
241.699	78.6288	241.699	78.5895	241.699	78.6071	241.699	78.4912	241.699	78.5237	241.699	78.3375	241.699	78.3792	241.699	78.1336	241.699	78.1761	241.699	77.8873	241.699	77.9192	241.699	77.6091	241.699	77.6162	241.699	77.3133	241.699	77.2796	241.699	77.018	241.699	76.9277	241.699	76.7444	241.699	76.5862	241.699	76.5144	241.699	76.2864	241.699	76.3466	241.699	76.0603	241.699	76.251	241.699	75.9308	241.699	76.2244	241.699	75.9023	241.699	76.2504	241.699	75.958	241.699	76.303	241.699	76.0654	241.699	76.3535	241.699	76.1874	241.699	76.3772	241.699	76.292	241.699	76.3581
250.488	78.4043	250.488	78.3634	250.488	78.3741	250.488	78.2537	250.488	78.2723	250.488	78.0793	250.488	78.1004	250.488	77.8464	250.488	77.863	250.488	77.5642	250.488	77.5689	250.488	77.2465	250.488	77.2324	250.488	76.9127	250.488	76.8743	250.488	76.5879	250.488	76.5214	250.488	76.3008	250.488	76.2049	250.488	76.0787	250.488	75.9554	250.488	75.94	250.488	75.7956	250.488	75.8885	250.488	75.7341	250.488	75.9117	250.488	75.7614	250.488	75.985	250.488	75.8527	250.488	76.0789	250.488	75.9747	250.488	76.1647	250.488	76.0941	250.488	76.2194	250.488	76.184	250.488	76.2276
259.277	78.6353	259.277	78.578	259.277	78.6269	259.277	78.4566	259.277	78.5516	259.277	78.2739	259.277	78.4081	259.277	78.0344	259.277	78.1963	259.277	77.7455	259.277	77.9175	259.277	77.4184	259.277	77.5773	259.277	77.0695	259.277	77.1878	259.277	76.72	259.277	76.7715	259.277	76.3956	259.277	76.3621	259.277	76.1232	259.277	76.0025	259.277	75.9253	259.277	75.7346	259.277	75.8132	259.277	75.585	259.277	75.7822	259.277	75.553	259.277	75.8125	259.277	75.6116	259.277	75.8749	259.277	75.7194	259.277	75.9385	259.277	75.8349	259.277	75.9779	259.277	75.9266	259.277	75.9761
268.066	78.392	268.066	78.3422	268.066	78.3739	268.066	78.2261	268.066	78.2873	268.066	78.0467	268.066	78.1327	268.066	77.8089	268.066	77.9124	268.066	77.5206	268.066	77.6312	268.066	77.1942	268.066	77.2979	268.066	76.848	268.066	76.9271	268.066	76.5071	268.066	76.5413	268.066	76.2018	268.066	76.1725	268.066	75.9633	268.066	75.8597	268.066	75.8154	268.066	75.6419	268.066	75.7665	268.066	75.5441	268.066	75.805	268.066	75.5659	268.066	75.9024	268.066	75.6794	268.066	76.0216	268.066	75.8399	268.066	76.1268	268.066	76.0009	268.066	76.1892	268.066	76.1253	268.066	76.1907
276.855	78.3224	276.855	78.2638	276.855	78.3122	276.855	78.1319	276.855	78.2372	276.855	77.9239	276.855	78.1003	276.855	77.6398	276.855	77.9031	276.855	77.2853	276.855	77.6462	276.855	76.8739	276.855	77.3319	276.855	76.4305	276.855	76.9673	276.855	75.9923	276.855	76.5676	276.855	75.6058	276.855	76.1603	276.855	75.3159	276.855	75.7843	276.855	75.1505	276.855	75.4841	276.855	75.1091	276.855	75.2951	276.855	75.1645	276.855	75.2275	276.855	75.2757	276.855	75.2609	276.855	75.4015	276.855	75.354	276.855	75.5086	276.855	75.4614	276.855	75.5747	276.855	75.5469	276.855	75.5879
287.109	78.5321	287.109	78.5372	287.109	78.4515	287.109	78.4639	287.109	78.3003	287.109	78.3111	287.109	78.0858	287.109	78.0789	287.109	77.8175	287.109	77.77	287.109	77.5068	287.109	77.391	287.109	77.1656	287.109	76.9567	287.109	76.8068	287.109	76.4937	287.109	76.4446	287.109	76.0435	287.109	76.0973	287.109	75.6589	287.109	75.7887	287.109	75.3909	287.109	75.5475	287.109	75.268	287.109	75.3997	287.109	75.281	287.109	75.3568	287.109	75.3881	287.109	75.4063	287.109	75.5338	287.109	75.5144	287.109	75.6682	287.109	75.6374	287.109	75.756	287.109	75.7349	287.109	75.7789
297.363	78.4216	297.363	78.3984	297.363	78.3627	297.363	78.2992	297.363	78.2178	297.363	78.131	297.363	77.9871	297.363	77.8998	297.363	77.6756	297.363	77.6099	297.363	77.2939	297.363	77.2648	297.363	76.8583	297.363	76.8703	297.363	76.3921	297.363	76.4403	297.363	75.926	297.363	76.0033	297.363	75.4982	297.363	75.6056	297.363	75.1506	297.363	75.304	297.363	74.9207	297.363	75.1437	297.363	74.8285	297.363	75.1328	297.363	74.8672	297.363	75.2343	297.363	75.0041	297.363	75.3854	297.363	75.1911	297.363	75.5237	297.363	75.3791	297.363	75.6051	297.363	75.5272	297.363	75.6071
307.617	78.4499	307.617	78.364	307.617	78.4666	307.617	78.2146	307.617	78.4073	307.617	78.0066	307.617	78.2648	307.617	77.7458	307.617	78.0329	307.617	77.4401	307.617	77.709	307.617	77.1015	307.617	77.2968	307.617	76.7458	307.617	76.8102	307.617	76.3925	307.617	76.2772	307.617	76.0638	307.617	75.7437	307.617	75.7834	307.617	75.2723	307.617	75.5739	307.617	74.9307	307.617	75.4521	307.617	74.7664	307.617	75.421	307.617	74.7826	307.617	75.4647	307.617	74.9352	307.617	75.5494	307.617	75.1556	307.617	75.6331	307.617	75.3771	307.617	75.677	307.617	75.5519	307.617	75.6539
319.336	78.0691	319.336	78.0155	319.336	78.0517	319.336	77.8883	319.336	77.965	319.336	77.6848	319.336	77.8101	319.336	77.4023	319.336	77.5882	319.336	77.0413	319.336	77.3011	319.336	76.6088	319.336	76.9536	319.336	76.1246	319.336	76.5557	319.336	75.6269	319.336	76.1258	319.336	75.1741	319.336	75.6944	319.336	74.8345	319.336	75.3052	319.336	74.6618	319.336	75.0098	319.336	74.6673	319.336	74.8531	319.336	74.8145	319.336	74.8521	319.336	75.0394	319.336	74.9822	319.336	75.2766	319.336	75.1855	319.336	75.4742	319.336	75.3943	319.336	75.5967	319.336	75.5522	319.336	75.6242
329.59	78.1581	329.59	78.1221	329.59	78.1209	329.59	78.0123	329.59	78.0108	329.59	77.8274	329.59	77.8266	329.59	77.5661	329.59	77.5666	329.59	77.2275	329.59	77.2294	329.59	76.8127	329.59	76.817	329.59	76.3296	329.59	76.3399	329.59	75.7994	329.59	75.823	329.59	75.2657	329.59	75.3104	329.59	74.797	329.59	74.8636	329.59	74.4728	329.59	74.5473	329.59	74.3473	329.59	74.4041	329.59	74.4145	329.59	74.4333	329.59	74.6108	329.59	74.591	329.59	74.8514	329.59	74.81	329.59	75.0644	329.59	75.0232	329.59	75.2028	329.59	75.1783	329.59	75.2425
341.309	78.0383	341.309	77.995	341.309	78.0091	341.309	77.8764	341.309	77.9119	341.309	77.6817	341.309	77.7522	341.309	77.4117	341.309	77.5339	341.309	77.0684	341.309	77.2577	341.309	76.6564	341.309	76.9207	341.309	76.1862	341.309	76.5203	341.309	75.6797	341.309	76.0622	341.309	75.1771	341.309	75.5702	341.309	74.7394	341.309	75.095	341.309	74.4368	341.309	74.7095	341.309	74.3206	341.309	74.4836	341.309	74.3904	341.309	74.4459	341.309	74.5899	341.309	74.5655	341.309	74.8355	341.309	74.7707	341.309	75.0518	341.309	74.9845	341.309	75.1881	341.309	75.147	341.309	75.2206
353.027	77.8954	353.027	77.8525	353.027	77.8441	353.027	77.7184	353.027	77.6973	353.027	77.4964	353.027	77.4558	353.027	77.1895	353.027	77.124	353.027	76.8009	353.027	76.71	353.027	76.3356	353.027	76.2259	353.027	75.8051	353.027	75.6881	353.027	75.2343	353.027	75.12	353.027	74.6713	353.027	74.5587	353.027	74.1904	353.027	74.0634	353.027	73.8782	353.027	73.7122	353.027	73.7941	353.027	73.5745	353.027	73.9294	353.027	73.6667	353.027	74.2069	353.027	73.9329	353.027	74.5229	353.027	74.276	353.027	74.7882	353.027	74.6025	353.027	74.9447	353.027	74.8453	353.027	74.965
366.211	78.0154	366.211	77.94	366.211	78.0097	366.211	77.7857	366.211	77.9202	366.211	77.5547	366.211	77.7439	366.211	77.2478	366.211	77.4772	366.211	76.8644	366.211	77.1158	366.211	76.4037	366.211	76.6563	366.211	75.868	366.211	76.0988	366.211	75.2713	366.211	75.4541	366.211	74.6511	366.211	74.7537	366.211	74.0769	366.211	74.0637	366.211	73.643	366.211	73.4912	366.211	73.4316	366.211	73.157	366.211	73.4603	366.211	73.1244	366.211	73.6667	366.211	73.3442	366.211	73.9452	366.211	73.6876	366.211	74.1976	366.211	74.0253	366.211	74.3565	366.211	74.2715	366.211	74.3853
379.395	78.2928	379.395	78.2321	379.395	78.279	379.395	78.0942	379.395	78.191	379.395	77.8737	379.395	78.0267	379.395	77.5647	379.395	77.7825	379.395	77.163	379.395	77.4554	379.395	76.6693	379.395	77.0437	379.395	76.0923	379.395	76.5497	379.395	75.4535	379.395	75.9843	379.395	74.7948	379.395	75.3723	379.395	74.1864	379.395	74.7591	379.395	73.7226	379.395	74.2121	379.395	73.4884	379.395	73.8101	379.395	73.5046	379.395	73.6146	379.395	73.7064	379.395	73.6346	379.395	73.9825	379.395	73.8144	379.395	74.229	379.395	74.0589	379.395	74.3761	379.395	74.2737	379.395	74.3907
392.578	78.0039	392.578	77.9817	392.578	77.9671	392.578	77.8964	392.578	77.8735	392.578	77.7423	392.578	77.722	392.578	77.5108	392.578	77.5074	392.578	77.1909	392.578	77.2198	392.578	76.7706	392.578	76.847	392.578	76.2417	392.578	76.3789	392.578	75.6081	392.578	75.8161	392.578	74.8992	392.578	75.1823	392.578	74.1866	392.578	74.5388	392.578	73.5936	392.578	73.9892	392.578	73.2641	392.578	73.6511	392.578	73.2726	392.578	73.5901	392.578	73.5555	392.578	73.7687	392.578	73.9571	392.578	74.0724	392.578	74.3291	392.578	74.3779	392.578	74.5797	392.578	74.5945	392.578	74.6694
405.762	77.4962	405.762	77.4438	405.762	77.4741	405.762	77.3178	405.762	77.3797	405.762	77.1207	405.762	77.2162	405.762	76.8554	405.762	76.9863	405.762	76.5222	405.762	76.69	405.762	76.1194	405.762	76.3244	405.762	75.6463	405.762	75.8861	405.762	75.1118	405.762	75.3766	405.762	74.5447	405.762	74.8123	405.762	74.0031	405.762	74.2392	405.762	73.5733	405.762	73.743	405.762	73.3455	405.762	73.4325	405.762	73.3666	405.762	73.3827	405.762	73.6021	405.762	73.575	405.762	73.9489	405.762	73.905	405.762	74.2865	405.762	74.2453	405.762	74.5195	405.762	74.4951	405.762	74.5939
420.41	77.9059	420.41	77.823	420.41	77.8996	420.41	77.6509	420.41	77.8058	420.41	77.3909	420.41	77.6265	420.41	77.0438	420.41	77.3615	420.41	76.6078	420.41	77.0057	420.41	76.077	420.41	76.548	420.41	75.4447	420.41	75.9748	420.41	74.7145	420.41	75.2775	420.41	73.9218	420.41	74.4684	420.41	73.1616	420.41	73.6059	420.41	72.5932	420.41	72.8259	420.41	72.3705	420.41	72.3319	420.41	72.5175	420.41	72.2732	420.41	72.9017	420.41	72.5954	420.41	73.3447	420.41	73.0866	420.41	73.7161	420.41	73.547	420.41	73.9454	420.41	73.8652	420.41	73.9996
435.059	77.6671	435.059	77.6696	435.059	77.6069	435.059	77.6073	435.059	77.4954	435.059	77.4719	435.059	77.3389	435.059	77.2527	435.059	77.1419	435.059	76.9365	435.059	76.9046	435.059	76.5085	435.059	76.6187	435.059	75.9538	435.059	76.2672	435.059	75.264	435.059	75.8291	435.059	74.4525	435.059	75.2906	435.059	73.5836	435.059	74.6619	435.059	72.8038	435.059	73.9975	435.059	72.3232	435.059	73.4111	435.059	72.2817	435.059	73.0499	435.059	72.6104	435.059	73.0025	435.059	73.0943	435.059	73.2149	435.059	73.5358	435.059	73.53	435.059	73.8206	435.059	73.7931	435.059	73.9052
451.172	77.8392	451.172	77.8513	451.172	77.7323	451.172	77.767	451.172	77.538	451.172	77.5883	451.172	77.2688	451.172	77.3167	451.172	76.9388	451.172	76.9479	451.172	76.5598	451.172	76.4683	451.172	76.1376	451.172	75.8591	451.172	75.6714	451.172	75.1064	451.172	75.158	451.172	74.2237	451.172	74.6019	451.172	73.2879	451.172	74.0316	451.172	72.4783	451.172	73.5158	451.172	72.0487	451.172	73.1638	451.172	72.148	451.172	73.0805	451.172	72.6593	451.172	73.2841	451.172	73.3172	451.172	73.6713	451.172	73.9035	451.172	74.0799	451.172	74.2991	451.172	74.3702	451.172	74.4557
465.82	78.1309	465.82	78.1311	465.82	78.0367	465.82	78.0453	465.82	77.8461	465.82	77.8859	465.82	77.5628	465.82	77.6657	465.82	77.1959	465.82	77.3903	465.82	76.7583	465.82	77.0494	465.82	76.2635	465.82	76.6124	465.82	75.7207	465.82	76.0317	465.82	75.1325	465.82	75.259	465.82	74.5	465.82	74.2745	465.82	73.8401	465.82	73.1378	465.82	73.208	465.82	72.0645	465.82	72.707	465.82	71.4246	465.82	72.4514	465.82	71.4535	465.82	72.4818	465.82	71.9562	465.82	72.716	465.82	72.5533	465.82	73.0019	465.82	73.0014	465.82	73.1997	465.82	73.216
483.398	78.3113	483.398	78.278	483.398	78.2541	483.398	78.1594	483.398	78.101	483.398	77.9586	483.398	77.8472	483.398	77.6757	483.398	77.4885	483.398	77.3083	483.398	77.0203	483.398	76.8541	483.398	76.4383	483.398	76.3144	483.398	75.7434	483.398	75.6985	483.398	74.952	483.398	75.0315	483.398	74.1157	483.398	74.3717	483.398	73.3423	483.398	73.8261	483.398	72.7941	483.398	73.5258	483.398	72.618	483.398	73.5377	483.398	72.8329	483.398	73.7976	483.398	73.3068	483.398	74.1614	483.398	73.8552	483.398	74.498	483.398	74.3322	483.398	74.7217	483.398	74.6526	483.398	74.7821
499.512	78.1613	499.512	78.0934	499.512	78.1591	499.512	77.9616	499.512	78.0822	499.512	77.7729	499.512	77.9279	499.512	77.5307	499.512	77.6929	499.512	77.2292	499.512	77.3711	499.512	76.8502	499.512	76.9497	499.512	76.3661	499.512	76.4067	499.512	75.7509	499.512	75.7149	499.512	74.9985	499.512	74.8588	499.512	74.1501	499.512	73.8738	499.512	73.3356	499.512	72.9115	499.512	72.7917	499.512	72.2697	499.512	72.7435	499.512	72.217	499.512	73.1673	499.512	72.6939	499.512	73.7891	499.512	73.3863	499.512	74.333	499.512	74.027	499.512	74.6513	499.512	74.483	499.512	74.6997
517.09	77.511	517.09	77.429	517.09	77.5137	517.09	77.2635	517.09	77.4448	517.09	77.0161	517.09	77.3112	517.09	76.6922	517.09	77.1133	517.09	76.2963	517.09	76.8415	517.09	75.8249	517.09	76.4745	517.09	75.2651	517.09	75.9827	517.09	74.6014	517.09	75.3358	517.09	73.837	517.09	74.5215	517.09	73.0312	517.09	73.582	517.09	72.3468	517.09	72.675	517.09	72.0384	517.09	72.1042	517.09	72.2695	517.09	72.144	517.09	72.9146	517.09	72.728	517.09	73.6777	517.09	73.5163	517.09	74.3218	517.09	74.2143	517.09	74.7276	517.09	74.6757	517.09	74.8497
536.133	74.2349	536.133	74.2425	536.133	74.148	536.133	74.1754	536.133	73.9896	536.133	74.0472	536.133	73.7774	536.133	73.8706	536.133	73.5323	536.133	73.6423	536.133	73.2689	536.133	73.3304	536.133	72.9877	536.133	72.8722	536.133	72.6672	536.133	72.1901	536.133	72.2627	536.133	71.2253	536.133	71.7203	536.133	70.0081	536.133	71.0219	536.133	68.8066	536.133	70.2776	536.133	68.2517	536.133	69.8168	536.133	68.8205	536.133	70.021	536.133	70.1039	536.133	70.849	536.133	71.4336	536.133	71.8689	536.133	72.4756	536.133	72.7206	536.133	73.1315	536.133	73.2434	536.133	73.3856
555.176	73.3325	555.176	73.2162	555.176	73.339	555.176	73.0128	555.176	73.2259	555.176	72.7531	555.176	72.9967	555.176	72.4643	555.176	72.6629	555.176	72.1532	555.176	72.2315	555.176	71.7887	555.176	71.6897	555.176	71.2969	555.176	70.9957	555.176	70.5687	555.176	70.0814	555.176	69.4724	555.176	68.864	555.176	67.8731	555.176	67.2742	555.176	65.7338	555.176	65.3864	555.176	63.6576	555.176	63.8934	555.176	63.6221	555.176	64.2243	555.176	65.7048	555.176	66.1149	555.176	67.8636	555.176	68.0678	555.176	69.3942	555.176	69.4892	555.176	70.2743	555.176	70.3122	555.176	70.5695
574.219	74.1425	574.219	74.0578	574.219	74.1007	574.219	73.8574	574.219	73.9406	574.219	73.5742	574.219	73.6862	574.219	73.2588	574.219	73.3731	574.219	72.9605	574.219	73.0392	574.219	72.6923	574.219	72.7049	574.219	72.4013	574.219	72.3477	574.219	71.9712	574.219	71.8878	574.219	71.2507	574.219	71.2001	574.219	70.0848	574.219	70.1463	574.219	68.3551	574.219	68.624	574.219	66.145	574.219	66.698	574.219	64.3564	574.219	65.0089	574.219	64.6519	574.219	64.8791	574.219	66.3766	574.219	66.2408	574.219	67.9451	574.219	67.749	574.219	68.8814	574.219	68.7619	574.219	69.1471
594.727	74.9566	594.727	74.8017	594.727	74.9477	594.727	74.4979	594.727	74.7758	594.727	74.0812	594.727	74.459	594.727	73.6156	594.727	74.0368	594.727	73.185	594.727	73.5687	594.727	72.8546	594.727	73.1136	594.727	72.6131	594.727	72.6887	594.727	72.3531	594.727	72.2366	594.727	71.9094	594.727	71.6341	594.727	71.1053	594.727	70.7329	594.727	69.7757	594.727	69.4068	594.727	67.8224	594.727	67.6423	594.727	65.548	594.727	65.8494	594.727	64.5005	594.727	65.2342	594.727	65.7307	594.727	66.278	594.727	67.4806	594.727	67.7322	594.727	68.6418	594.727	68.7302	594.727	69.0502
615.234	75.9461	615.234	75.7802	615.234	75.9234	615.234	75.4333	615.234	75.7142	615.234	74.9257	615.234	75.3314	615.234	74.2967	615.234	74.8019	615.234	73.6157	615.234	74.1724	615.234	72.9784	615.234	73.5115	615.234	72.4618	615.234	72.8946	615.234	72.0476	615.234	72.3529	615.234	71.5961	615.234	71.8155	615.234	70.9087	615.234	71.1099	615.234	69.8036	615.234	70.0313	615.234	68.1741	615.234	68.4336	615.234	66.1594	615.234	66.4111	615.234	64.6687	615.234	64.7762	615.234	64.9826	615.234	64.8403	615.234	66.3373	615.234	66.1054	615.234	67.3881	615.234	67.2339	615.234	67.7001
637.207	75.8709	637.207	75.7447	637.207	75.8457	637.207	75.4693	637.207	75.6648	637.207	75.0457	637.207	75.3266	637.207	74.4814	637.207	74.8372	637.207	73.8012	637.207	74.2168	637.207	73.0596	637.207	73.5056	637.207	72.3368	637.207	72.7675	637.207	71.7021	637.207	72.072	637.207	71.1474	637.207	71.4417	637.207	70.5605	637.207	70.805	637.207	69.7889	637.207	70.0224	637.207	68.7514	637.207	68.9786	637.207	67.5518	637.207	67.6974	637.207	66.5547	637.207	66.4787	637.207	66.1819	637.207	65.8653	637.207	66.3945	637.207	66.0405	637.207	66.7304	637.207	66.5226	637.207	66.8108
659.18	75.5009	659.18	75.4319	659.18	75.4396	659.18	75.2238	659.18	75.2595	659.18	74.8723	659.18	74.9704	659.18	74.3785	659.18	74.5744	659.18	73.752	659.18	74.0617	659.18	73.0139	659.18	73.4157	659.18	72.196	659.18	72.6281	659.18	71.3356	659.18	71.7164	659.18	70.4724	659.18	70.7282	659.18	69.6404	659.18	69.7199	659.18	68.8468	659.18	68.7371	659.18	68.0848	659.18	67.8491	659.18	67.4331	659.18	67.2249	659.18	67.121	659.18	67.0794	659.18	67.3078	659.18	67.4129	659.18	67.8102	659.18	67.9447	659.18	68.282	659.18	68.3639	659.18	68.492
682.617	75.0719	682.617	74.9934	682.617	75.0108	682.617	74.7798	682.617	74.8167	682.617	74.4503	682.617	74.5071	682.617	74.0388	682.617	74.1116	682.617	73.5776	682.617	73.6635	682.617	73.0679	682.617	73.1745	682.617	72.4613	682.617	72.6091	682.617	71.6787	682.617	71.891	682.617	70.6526	682.617	70.9435	682.617	69.3681	682.617	69.7305	682.617	67.9132	682.617	68.2953	682.617	66.5724	682.617	66.8548	682.617	65.8896	682.617	65.9592	682.617	66.2703	682.617	66.1777	682.617	67.3533	682.617	67.2185	682.617	68.449	682.617	68.328	682.617	69.1624	682.617	69.0889	682.617	69.3774
707.52	75.6166	707.52	75.5459	707.52	75.5691	707.52	75.3554	707.52	75.4086	707.52	75.0447	707.52	75.1481	707.52	74.6238	707.52	74.8063	707.52	74.1268	707.52	74.3977	707.52	73.6053	707.52	73.9276	707.52	73.0754	707.52	73.3935	707.52	72.459	707.52	72.7726	707.52	71.5877	707.52	71.9878	707.52	70.2622	707.52	70.8859	707.52	68.3229	707.52	69.2832	707.52	65.877	707.52	67.1431	707.52	64.1669	707.52	65.1478	707.52	65.0074	707.52	65.0329	707.52	67.0058	707.52	66.6384	707.52	68.6084	707.52	68.2798	707.52	69.5231	707.52	69.3459	707.52	69.7617
732.422	76.6922	732.422	76.5553	732.422	76.6361	732.422	76.2387	732.422	76.3989	732.422	75.782	732.422	76.0121	732.422	75.2467	732.422	75.5264	732.422	74.6992	732.422	75.0121	732.422	74.1806	732.422	74.5356	732.422	73.6787	732.422	74.1019	732.422	73.1245	732.422	73.6227	732.422	72.4032	732.422	72.9599	732.422	71.3695	732.422	71.9869	732.422	69.8892	732.422	70.6036	732.422	67.9562	732.422	68.7651	732.422	66.0735	732.422	66.7532	732.422	65.6396	732.422	65.8045	732.422	66.9542	732.422	66.8168	732.422	68.5376	732.422	68.4221	732.422	69.5819	732.422	69.5354	732.422	69.9235
757.324	77.6089	757.324	77.4951	757.324	77.5403	757.324	77.2112	757.324	77.2852	757.324	76.788	757.324	76.8564	757.324	76.2866	757.324	76.3054	757.324	75.7859	757.324	75.7264	757.324	75.3423	757.324	75.2191	757.324	74.9479	757.324	74.8186	757.324	74.512	757.324	74.4523	757.324	73.8756	757.324	73.958	757.324	72.8413	757.324	73.1351	757.324	71.1998	757.324	71.7876	757.324	68.8219	757.324	69.7917	757.324	66.258	757.324	67.4535	757.324	65.8588	757.324	66.4113	757.324	67.7688	757.324	67.6848	757.324	69.5849	757.324	69.4101	757.324	70.6354	757.324	70.5348	757.324	70.9385
785.156	78.5466	785.156	78.4775	785.156	78.4057	785.156	78.1865	785.156	78.0799	785.156	77.6789	785.156	77.603	785.156	76.9945	785.156	77.0146	785.156	76.2429	785.156	76.3705	785.156	75.6055	785.156	75.7562	785.156	75.2091	785.156	75.2599	785.156	74.9605	785.156	74.8886	785.156	74.5963	785.156	74.5037	785.156	73.8486	785.156	73.8545	785.156	72.4774	785.156	72.6601	785.156	70.1986	785.156	70.6679	785.156	66.8086	785.156	67.8298	785.156	64.3518	785.156	65.5865	785.156	66.7975	785.156	66.9583	785.156	69.7363	785.156	69.5594	785.156	71.3972	785.156	71.2708	785.156	71.8796
811.523	78.3522	811.523	78.2141	811.523	78.2574	811.523	77.8673	811.523	77.9156	811.523	77.3305	811.523	77.3467	811.523	76.6267	811.523	76.6124	811.523	75.8164	811.523	75.8044	811.523	75.0252	811.523	75.035	811.523	74.4145	811.523	74.4344	811.523	74.0546	811.523	74.0841	811.523	73.7982	811.523	73.879	811.523	73.3315	811.523	73.5165	811.523	72.3326	811.523	72.6427	811.523	70.5676	811.523	70.9726	811.523	68.049	811.523	68.5059	811.523	65.9874	811.523	66.5239	811.523	66.7971	811.523	67.2093	811.523	68.874	811.523	68.9976	811.523	70.2481	811.523	70.2323	811.523	70.6676
840.82	78.7775	840.82	78.6797	840.82	78.623	840.82	78.3123	840.82	78.2323	840.82	77.6768	840.82	77.6129	840.82	76.8214	840.82	76.7879	840.82	75.8799	840.82	75.8539	840.82	75.0821	840.82	75.0215	840.82	74.6346	840.82	74.5107	840.82	74.505	840.82	74.3173	840.82	74.3997	840.82	74.1891	840.82	73.9644	840.82	73.8134	840.82	72.9072	840.82	72.8918	840.82	70.9529	840.82	71.0955	840.82	67.7837	840.82	68.091	840.82	64.2463	840.82	64.7088	840.82	65.5652	840.82	65.7098	840.82	68.7913	840.82	68.766	840.82	70.6581	840.82	70.6287	840.82	71.2264
870.117	78.6375	870.117	78.505	870.117	78.5668	870.117	78.1756	870.117	78.27	870.117	77.6359	870.117	77.7257	870.117	76.8692	870.117	76.9291	870.117	75.8873	870.117	75.9112	870.117	74.7989	870.117	74.7944	870.117	73.8971	870.117	73.8472	870.117	73.5045	870.117	73.34	870.117	73.5055	870.117	73.2153	870.117	73.3837	870.117	73.1013	870.117	72.6689	870.117	72.6009	870.117	71.0428	870.117	71.3873	870.117	68.3209	870.117	69.182	870.117	65.1213	870.117	66.0393	870.117	64.8344	870.117	64.4374	870.117	67.2791	870.117	66.6558	870.117	69.1225	870.117	68.8481	870.117	69.6744
900.879	79.338	900.879	79.2156	900.879	79.2665	900.879	78.8969	900.879	78.9911	900.879	78.3684	900.879	78.4893	900.879	77.6086	900.879	77.7359	900.879	76.6139	900.879	76.7299	900.879	75.4632	900.879	75.5449	900.879	74.4025	900.879	74.3985	900.879	73.7532	900.879	73.6288	900.879	73.4929	900.879	73.3514	900.879	73.1619	900.879	73.1839	900.879	72.2951	900.879	72.578	900.879	70.5794	900.879	71.1391	900.879	67.8009	900.879	68.6808	900.879	65.0129	900.879	65.9032	900.879	66.2899	900.879	66.0627	900.879	69.134	900.879	68.5998	900.879	70.8037	900.879	70.4892	900.879	71.2219
933.105	80.0792	933.105	79.9291	933.105	80.0003	933.105	79.5576	933.105	79.6875	933.105	78.9806	933.105	79.1369	933.105	78.2211	933.105	78.3522	933.105	77.3101	933.105	77.3639	933.105	76.3225	933.105	76.2695	933.105	75.4303	933.105	75.277	933.105	74.8382	933.105	74.6368	933.105	74.5466	933.105	74.3756	933.105	74.2407	933.105	74.1726	933.105	73.4656	933.105	73.5894	933.105	71.7801	933.105	72.2289	933.105	68.7744	933.105	69.6888	933.105	64.772	933.105	65.9361	933.105	64.8004	933.105	64.7456	933.105	68.0261	933.105	67.6703	933.105	69.9968	933.105	69.8061	933.105	70.5455
965.332	80.5921	965.332	80.4904	965.332	80.5178	965.332	80.213	965.332	80.2566	965.332	79.7266	965.332	79.7894	965.332	78.9638	965.332	79.0733	965.332	77.8809	965.332	78.0477	965.332	76.5687	965.332	76.7082	965.332	75.3501	965.332	75.2675	965.332	74.6198	965.332	74.2563	965.332	74.4018	965.332	74.0299	965.332	74.3239	965.332	74.1575	965.332	73.9229	965.332	73.9364	965.332	72.7106	965.332	72.8715	965.332	70.1413	965.332	70.6552	965.332	66.1646	965.332	67.4973	965.332	65.8381	965.332	66.3474	965.332	69.3959	965.332	68.8797	965.332	71.5548	965.332	71.171	965.332	72.0919
1,000.49	81.1718	1,000.49	81.0232	1,000.49	81.0694	1,000.49	80.6431	1,000.49	80.7279	1,000.49	80.0638	1,000.49	80.1787	1,000.49	79.2941	1,000.49	79.4367	1,000.49	78.3057	1,000.49	78.475	1,000.49	77.0958	1,000.49	77.2708	1,000.49	75.8328	1,000.49	75.9457	1,000.49	74.9514	1,000.49	74.8943	1,000.49	74.7555	1,000.49	74.5043	1,000.49	74.832	1,000.49	74.54	1,000.49	74.4759	1,000.49	74.3489	1,000.49	73.2201	1,000.49	73.3921	1,000.49	70.6875	1,000.49	71.2137	1,000.49	66.3718	1,000.49	67.3926	1,000.49	63.933	1,000.49	64.6292	1,000.49	68.1796	1,000.49	67.8918	1,000.49	70.9385	1,000.49	70.6729	1,000.49	71.6606
1,035.64	80.7953	1,035.64	80.6403	1,035.64	80.7595	1,035.64	80.3274	1,035.64	80.4953	1,035.64	79.8494	1,035.64	79.981	1,035.64	79.1323	1,035.64	79.2143	1,035.64	78.0628	1,035.64	78.204	1,035.64	76.5959	1,035.64	76.9642	1,035.64	74.9704	1,035.64	75.55	1,035.64	73.9025	1,035.64	74.2308	1,035.64	73.9017	1,035.64	73.6549	1,035.64	74.3399	1,035.64	74.0102	1,035.64	74.3298	1,035.64	74.3262	1,035.64	73.3406	1,035.64	73.6945	1,035.64	70.9938	1,035.64	71.7728	1,035.64	67.2356	1,035.64	68.7917	1,035.64	65.8659	1,035.64	67.1437	1,035.64	69.1561	1,035.64	69.2954	1,035.64	71.6144	1,035.64	71.5976	1,035.64	72.4128
1,072.27	79.3589	1,072.27	79.2444	1,072.27	79.2702	1,072.27	78.9044	1,072.27	79.0064	1,072.27	78.3535	1,072.27	78.5705	1,072.27	77.6066	1,072.27	77.9389	1,072.27	76.6077	1,072.27	77.0532	1,072.27	75.2663	1,072.27	75.8273	1,072.27	73.6595	1,072.27	74.252	1,072.27	72.3035	1,072.27	72.6232	1,072.27	71.8916	1,072.27	71.6503	1,072.27	72.2066	1,072.27	71.6703	1,072.27	72.3626	1,072.27	71.9533	1,072.27	71.7374	1,072.27	71.5855	1,072.27	69.9253	1,072.27	69.9675	1,072.27	66.6261	1,072.27	67.0352	1,072.27	64.6086	1,072.27	65.649	1,072.27	67.7382	1,072.27	68.043	1,072.27	70.2093	1,072.27	70.1504	1,072.27	70.9129
1,108.89	78.1813	1,108.89	78.0601	1,108.89	78.0792	1,108.89	77.7312	1,108.89	77.776	1,108.89	77.2729	1,108.89	77.2638	1,108.89	76.715	1,108.89	76.5005	1,108.89	75.9226	1,108.89	75.4576	1,108.89	74.6679	1,108.89	74.1587	1,108.89	72.846	1,108.89	72.6565	1,108.89	70.8357	1,108.89	71.0293	1,108.89	69.852	1,108.89	69.7254	1,108.89	70.2986	1,108.89	69.6347	1,108.89	70.6784	1,108.89	70.2701	1,108.89	69.9448	1,108.89	70.113	1,108.89	67.8261	1,108.89	68.2295	1,108.89	64.4729	1,108.89	64.3927	1,108.89	63.2161	1,108.89	63.6921	1,108.89	66.9933	1,108.89	67.7364	1,108.89	69.9626	1,108.89	70.2828	1,108.89	71.0082
1,148.44	77.9957	1,148.44	77.9123	1,148.44	77.8483	1,148.44	77.5818	1,148.44	77.5003	1,148.44	77.0319	1,148.44	76.9796	1,148.44	76.3365	1,148.44	76.3038	1,148.44	75.5201	1,148.44	75.4519	1,148.44	74.4178	1,148.44	74.3155	1,148.44	72.7483	1,148.44	72.7582	1,148.44	70.5707	1,148.44	70.8781	1,148.44	69.0515	1,148.44	69.2293	1,148.44	69.2685	1,148.44	68.5221	1,148.44	69.8569	1,148.44	68.7277	1,148.44	69.5175	1,148.44	68.6568	1,148.44	67.6531	1,148.44	66.9492	1,148.44	63.8197	1,148.44	62.5697	1,148.44	61.9489	1,148.44	59.9451	1,148.44	66.3412	1,148.44	65.139	1,148.44	69.1884	1,148.44	68.5097	1,148.44	69.8253
1,189.45	78.1914	1,189.45	78.0157	1,189.45	78.1124	1,189.45	77.5558	1,189.45	77.8191	1,189.45	76.8601	1,189.45	77.305	1,189.45	76.0412	1,189.45	76.5362	1,189.45	75.146	1,189.45	75.509	1,189.45	74.0233	1,189.45	74.243	1,189.45	72.4214	1,189.45	72.7167	1,189.45	70.3871	1,189.45	70.9013	1,189.45	68.9152	1,189.45	69.1284	1,189.45	69.1257	1,189.45	68.3728	1,189.45	69.772	1,189.45	68.6376	1,189.45	69.2732	1,189.45	68.5168	1,189.45	66.8352	1,189.45	66.8588	1,189.45	61.5804	1,189.45	62.3108	1,189.45	58.6638	1,189.45	57.6222	1,189.45	65.1026	1,189.45	65.1473	1,189.45	68.7554	1,189.45	68.9796	1,189.45	69.9916
1,230.47	78.582	1,230.47	78.4604	1,230.47	78.4244	1,230.47	78.0438	1,230.47	78.0378	1,230.47	77.3815	1,230.47	77.4856	1,230.47	76.5961	1,230.47	76.8219	1,230.47	75.7599	1,230.47	76.0594	1,230.47	74.7278	1,230.47	75.1153	1,230.47	73.2604	1,230.47	73.7864	1,230.47	71.3319	1,230.47	71.9014	1,230.47	69.4143	1,230.47	69.7426	1,230.47	68.5903	1,230.47	68.4429	1,230.47	69.0522	1,230.47	68.5327	1,230.47	69.3084	1,230.47	68.6447	1,230.47	68.0448	1,230.47	67.3793	1,230.47	64.0432	1,230.47	63.6865	1,230.47	58.1799	1,230.47	59.3652	1,230.47	64.4739	1,230.47	64.1371	1,230.47	68.381	1,230.47	67.9892	1,230.47	69.3527
1,274.41	79.3378	1,274.41	79.2686	1,274.41	79.1256	1,274.41	78.8927	1,274.41	78.6493	1,274.41	78.2282	1,274.41	77.936	1,274.41	77.3971	1,274.41	77.0452	1,274.41	76.5308	1,274.41	76.0837	1,274.41	75.5408	1,274.41	75.1394	1,274.41	74.1107	1,274.41	74.0794	1,274.41	72.0007	1,274.41	72.5831	1,274.41	69.4677	1,274.41	70.6039	1,274.41	68.2677	1,274.41	68.9874	1,274.41	69.4116	1,274.41	68.8879	1,274.41	70.1165	1,274.41	69.3436	1,274.41	68.8036	1,274.41	68.5056	1,274.41	64.9093	1,274.41	64.5956	1,274.41	59.9052	1,274.41	52.869	1,274.41	64.5897	1,274.41	63.4421	1,274.41	68.6422	1,274.41	68.4565	1,274.41	69.8463
1,319.82	79.4745	1,319.82	79.3134	1,319.82	79.3227	1,319.82	78.9148	1,319.82	78.8115	1,319.82	78.3259	1,319.82	78.049	1,319.82	77.651	1,319.82	77.1977	1,319.82	76.9884	1,319.82	76.2617	1,319.82	76.1924	1,319.82	75.1978	1,319.82	74.9303	1,319.82	74.0442	1,319.82	72.9703	1,319.82	72.6836	1,319.82	70.4433	1,319.82	70.9565	1,319.82	68.4834	1,319.82	69.6651	1,319.82	68.4903	1,319.82	69.8583	1,319.82	68.8395	1,319.82	70.0347	1,319.82	67.5881	1,319.82	68.788	1,319.82	63.6509	1,319.82	65.5934	1,319.82	58.5617	1,319.82	60.2202	1,319.82	64.3338	1,319.82	63.7432	1,319.82	68.6362	1,319.82	68.6846	1,319.82	70.0813
1,366.7	79.4405	1,366.7	79.241	1,366.7	79.3626	1,366.7	78.7671	1,366.7	78.9337	1,366.7	77.9772	1,366.7	78.1276	1,366.7	76.9955	1,366.7	77.0628	1,366.7	76.1731	1,366.7	75.914	1,366.7	75.5217	1,366.7	74.7049	1,366.7	74.5848	1,366.7	73.3331	1,366.7	73.2007	1,366.7	71.7503	1,366.7	71.5458	1,366.7	69.8538	1,366.7	69.7723	1,366.7	67.9762	1,366.7	68.88	1,366.7	67.7595	1,366.7	68.9601	1,366.7	68.5688	1,366.7	67.7863	1,366.7	68.1244	1,366.7	63.3652	1,366.7	64.9713	1,366.7	54.444	1,366.7	57.4049	1,366.7	64.492	1,366.7	63.6884	1,366.7	68.8498	1,366.7	68.6354	1,366.7	70.0113
1,413.57	79.737	1,413.57	79.5661	1,413.57	79.6904	1,413.57	79.1423	1,413.57	79.2995	1,413.57	78.3592	1,413.57	78.4673	1,413.57	77.2506	1,413.57	77.3455	1,413.57	76.1441	1,413.57	76.2222	1,413.57	75.394	1,413.57	75.1755	1,413.57	74.7098	1,413.57	74.0336	1,413.57	73.4755	1,413.57	72.6367	1,413.57	71.4415	1,413.57	70.7483	1,413.57	69.1452	1,413.57	68.4567	1,413.57	68.5152	1,413.57	67.9294	1,413.57	69.1984	1,413.57	69.0201	1,413.57	68.6793	1,413.57	68.7837	1,413.57	65.3307	1,413.57	65.7547	1,413.57	54.3752	1,413.57	55.0633	1,413.57	62.8372	1,413.57	60.6683	1,413.57	68.0255	1,413.57	67.2834	1,413.57	69.0796
1,463.38	80.2152	1,463.38	80.0018	1,463.38	80.0892	1,463.38	79.4982	1,463.38	79.5685	1,463.38	78.6709	1,463.38	78.6883	1,463.38	77.4668	1,463.38	77.5977	1,463.38	76.0224	1,463.38	76.4433	1,463.38	74.7339	1,463.38	75.2233	1,463.38	73.8307	1,463.38	73.8754	1,463.38	72.8786	1,463.38	72.447	1,463.38	71.2344	1,463.38	70.9272	1,463.38	69.0353	1,463.38	69.3774	1,463.38	68.091	1,463.38	68.9545	1,463.38	68.8899	1,463.38	69.7726	1,463.38	68.8678	1,463.38	69.8581	1,463.38	66.2612	1,463.38	67.8126	1,463.38	57.4973	1,463.38	60.9144	1,463.38	59.6448	1,463.38	55.88	1,463.38	66.6077	1,463.38	65.5922	1,463.38	67.8979
1,516.11	80.9024	1,516.11	80.7421	1,516.11	80.7279	1,516.11	80.2535	1,516.11	80.1849	1,516.11	79.3984	1,516.11	79.2978	1,516.11	78.156	1,516.11	78.1834	1,516.11	76.6586	1,516.11	76.9299	1,516.11	75.2406	1,516.11	75.5226	1,516.11	74.0792	1,516.11	74.1074	1,516.11	72.9667	1,516.11	72.8881	1,516.11	71.6317	1,516.11	71.4743	1,516.11	69.9058	1,516.11	69.6187	1,516.11	68.8228	1,516.11	68.9185	1,516.11	69.4961	1,516.11	69.8786	1,516.11	69.7553	1,516.11	70.3302	1,516.11	67.847	1,516.11	68.8584	1,516.11	60.9648	1,516.11	63.1407	1,516.11	56.5026	1,516.11	55.37	1,516.11	65.9633	1,516.11	65.5252	1,516.11	67.7111
1,568.85	80.9544	1,568.85	80.8141	1,568.85	80.7428	1,568.85	80.3093	1,568.85	80.246	1,568.85	79.521	1,568.85	79.464	1,568.85	78.4816	1,568.85	78.3923	1,568.85	77.2046	1,568.85	77.0619	1,568.85	75.8315	1,568.85	75.5341	1,568.85	74.5088	1,568.85	74.0424	1,568.85	73.3222	1,568.85	72.7595	1,568.85	72.1447	1,568.85	71.385	1,568.85	70.4445	1,568.85	69.3697	1,568.85	68.9816	1,568.85	68.0432	1,568.85	69.6231	1,568.85	69.5479	1,568.85	70.1751	1,568.85	70.629	1,568.85	68.8585	1,568.85	69.6988	1,568.85	64.0758	1,568.85	65.3408	1,568.85	56.026	1,568.85	56.7911	1,568.85	65.0281	1,568.85	64.6233	1,568.85	66.9665
1,624.51	80.6864	1,624.51	80.4636	1,624.51	80.4689	1,624.51	79.8716	1,624.51	79.8775	1,624.51	79.0643	1,624.51	78.9638	1,624.51	78.0614	1,624.51	77.7642	1,624.51	76.8084	1,624.51	76.4171	1,624.51	75.4065	1,624.51	74.989	1,624.51	73.9994	1,624.51	73.4092	1,624.51	72.621	1,624.51	71.8833	1,624.51	71.4173	1,624.51	70.6478	1,624.51	70.2799	1,624.51	68.7827	1,624.51	69.1732	1,624.51	65.814	1,624.51	69.352	1,624.51	67.0119	1,624.51	70.221	1,624.51	69.3097	1,624.51	69.4445	1,624.51	68.979	1,624.51	65.308	1,624.51	65.3168	1,624.51	60.9707	1,624.51	58.5787	1,624.51	66.1491	1,624.51	65.3281	1,624.51	67.7218
1,681.64	80.0848	1,681.64	79.8508	1,681.64	79.8923	1,681.64	79.1972	1,681.64	79.3624	1,681.64	78.1834	1,681.64	78.6048	1,681.64	76.9878	1,681.64	77.5788	1,681.64	75.7696	1,681.64	76.3084	1,681.64	74.449	1,681.64	74.9735	1,681.64	72.8323	1,681.64	73.6738	1,681.64	71.2172	1,681.64	72.428	1,681.64	70.257	1,681.64	71.2592	1,681.64	69.127	1,681.64	69.8476	1,681.64	67.6239	1,681.64	67.1546	1,681.64	68.2337	1,681.64	65.7822	1,681.64	69.2635	1,681.64	67.898	1,681.64	68.34	1,681.64	68.0788	1,681.64	64.2951	1,681.64	64.7047	1,681.64	60.8057	1,681.64	57.2141	1,681.64	66.5215	1,681.64	63.1252	1,681.64	67.1086
1,741.7	80.0087	1,741.7	79.8842	1,741.7	79.8893	1,741.7	79.3699	1,741.7	79.5607	1,741.7	78.5736	1,741.7	78.9417	1,741.7	77.5877	1,741.7	78.1053	1,741.7	76.244	1,741.7	77.114	1,741.7	74.8169	1,741.7	75.7309	1,741.7	73.4091	1,741.7	74.0143	1,741.7	71.3866	1,741.7	72.2577	1,741.7	69.496	1,741.7	70.1286	1,741.7	68.9175	1,741.7	68.4348	1,741.7	67.6428	1,741.7	67.6582	1,741.7	67.1914	1,741.7	66.8206	1,741.7	68.7684	1,741.7	68.4742	1,741.7	68.5178	1,741.7	68.8074	1,741.7	64.3967	1,741.7	64.9243	1,741.7	57.7611	1,741.7	59.9041	1,741.7	64.6577	1,741.7	62.7477	1,741.7	65.8193
1,803.22	80.4853	1,803.22	80.35	1,803.22	80.3112	1,803.22	79.8267	1,803.22	79.8783	1,803.22	79.0254	1,803.22	79.1565	1,803.22	78.1567	1,803.22	78.0246	1,803.22	77.0168	1,803.22	76.7115	1,803.22	75.4991	1,803.22	75.4748	1,803.22	74.1297	1,803.22	73.987	1,803.22	72.7773	1,803.22	72.4332	1,803.22	70.6805	1,803.22	70.3709	1,803.22	69.4046	1,803.22	67.0247	1,803.22	68.9025	1,803.22	65.5974	1,803.22	68.1361	1,803.22	65.7409	1,803.22	68.4313	1,803.22	67.3398	1,803.22	68.0431	1,803.22	67.6172	1,803.22	65.081	1,803.22	63.4449	1,803.22	57.5043	1,803.22	61.185	1,803.22	65.2865	1,803.22	65.6977	1,803.22	67.2889
1,866.21	79.9765	1,866.21	79.9034	1,866.21	79.7165	1,866.21	79.4823	1,866.21	79.2529	1,866.21	78.7488	1,866.21	78.5098	1,866.21	77.6536	1,866.21	77.3009	1,866.21	76.3265	1,866.21	75.8372	1,866.21	74.9618	1,866.21	74.701	1,866.21	73.7473	1,866.21	73.6497	1,866.21	72.6925	1,866.21	71.9368	1,866.21	71.0086	1,866.21	70.3106	1,866.21	69.0915	1,866.21	68.6448	1,866.21	67.8346	1,866.21	66.1097	1,866.21	66.7474	1,866.21	64.0653	1,866.21	67.6785	1,866.21	64.3981	1,866.21	67.7352	1,866.21	65.3867	1,866.21	64.9671	1,866.21	62.6464	1,866.21	56.6736	1,866.21	49.9079	1,866.21	64.347	1,866.21	64.2438	1,866.21	66.989
1,932.13	79.9085	1,932.13	79.6087	1,932.13	79.7947	1,932.13	79.1291	1,932.13	79.2307	1,932.13	78.4134	1,932.13	78.3862	1,932.13	77.3371	1,932.13	77.3244	1,932.13	75.8844	1,932.13	76.1733	1,932.13	74.0829	1,932.13	74.8675	1,932.13	72.7146	1,932.13	73.512	1,932.13	72.0918	1,932.13	72.3709	1,932.13	70.9657	1,932.13	71.0387	1,932.13	69.046	1,932.13	69.9111	1,932.13	67.2072	1,932.13	68.5999	1,932.13	66.432	1,932.13	67.0921	1,932.13	67.6883	1,932.13	66.9048	1,932.13	68.2553	1,932.13	67.5431	1,932.13	65.5467	1,932.13	65.6044	1,932.13	58.387	1,932.13	58.2007	1,932.13	63.455	1,932.13	60.9094	1,932.13	65.2197
1,999.51	80.1312	1,999.51	79.8636	1,999.51	79.9978	1,999.51	79.334	1,999.51	79.4445	1,999.51	78.5772	1,999.51	78.6774	1,999.51	77.6104	1,999.51	77.7112	1,999.51	76.4219	1,999.51	76.4314	1,999.51	74.8601	1,999.51	75.2331	1,999.51	73.2898	1,999.51	74.0535	1,999.51	72.1833	1,999.51	72.6736	1,999.51	71.1577	1,999.51	71.1256	1,999.51	69.6543	1,999.51	69.8472	1,999.51	68.072	1,999.51	68.6272	1,999.51	65.4557	1,999.51	67.1586	1,999.51	65.4197	1,999.51	67.4724	1,999.51	66.8521	1,999.51	68.4821	1,999.51	64.5842	1,999.51	66.7024	1,999.51	56.703	1,999.51	59.5248	1,999.51	63.9053	1,999.51	63.0028	1,999.51	66.3686
2,069.82	79.6508	2,069.82	79.5389	2,069.82	79.3873	2,069.82	79.0689	2,069.82	78.9935	2,069.82	78.3452	2,069.82	78.3683	2,069.82	77.4511	2,069.82	77.235	2,069.82	76.3723	2,069.82	75.8748	2,069.82	74.9961	2,069.82	74.3688	2,069.82	73.5025	2,069.82	73.2119	2,069.82	72.0011	2,069.82	72.0904	2,069.82	70.7859	2,069.82	69.83	2,069.82	69.6635	2,069.82	68.3323	2,069.82	68.1372	2,069.82	67.2754	2,069.82	66.3904	2,069.82	65.0367	2,069.82	65.7514	2,069.82	64.677	2,069.82	67.9633	2,069.82	66.5294	2,069.82	66.3836	2,069.82	65.1631	2,069.82	57.0052	2,069.82	53.7511	2,069.82	61.7765	2,069.82	61.0557	2,069.82	65.1621
2,143.07	79.9795	2,143.07	79.7266	2,143.07	79.8681	2,143.07	79.1638	2,143.07	79.4529	2,143.07	78.4548	2,143.07	78.7688	2,143.07	77.6489	2,143.07	77.8276	2,143.07	76.7159	2,143.07	76.7016	2,143.07	75.1235	2,143.07	75.1989	2,143.07	72.8583	2,143.07	73.1538	2,143.07	71.2904	2,143.07	72.0925	2,143.07	70.3825	2,143.07	70.7571	2,143.07	69.4885	2,143.07	69.0343	2,143.07	68.0644	2,143.07	68.1682	2,143.07	66.7912	2,143.07	66.867	2,143.07	66.5777	2,143.07	65.9451	2,143.07	68.5215	2,143.07	67.8409	2,143.07	67.1979	2,143.07	67.8915	2,143.07	60.4293	2,143.07	62.3779	2,143.07	61.5301	2,143.07	56.2195	2,143.07	64.1183
2,219.24	80.3846	2,219.24	80.1163	2,219.24	80.2888	2,219.24	79.5199	2,219.24	79.8614	2,219.24	78.8112	2,219.24	79.2526	2,219.24	78.092	2,219.24	78.4829	2,219.24	77.3397	2,219.24	77.2668	2,219.24	76.0892	2,219.24	75.8757	2,219.24	74.2284	2,219.24	74.0768	2,219.24	72.4584	2,219.24	72.566	2,219.24	70.9084	2,219.24	71.3907	2,219.24	68.9444	2,219.24	69.1708	2,219.24	68.1064	2,219.24	68.0491	2,219.24	66.4558	2,219.24	68.4732	2,219.24	65.794	2,219.24	67.3429	2,219.24	67.568	2,219.24	68.7306	2,219.24	67.3339	2,219.24	68.7173	2,219.24	60.605	2,219.24	65.2371	2,219.24	62.2855	2,219.24	59.7263	2,219.24	64.9027
2,296.88	79.6879	2,296.88	79.8302	2,296.88	79.5716	2,296.88	79.4479	2,296.88	79.2086	2,296.88	78.8503	2,296.88	78.3319	2,296.88	78.1151	2,296.88	77.5404	2,296.88	77.4073	2,296.88	76.4619	2,296.88	76.1467	2,296.88	75.5495	2,296.88	74.5608	2,296.88	74.3113	2,296.88	73.0819	2,296.88	71.0769	2,296.88	71.8389	2,296.88	68.5055	2,296.88	68.262	2,296.88	66.3463	2,296.88	65.8476	2,296.88	64.8837	2,296.88	66.9871	2,296.88	65.8528	2,296.88	66.7215	2,296.88	64.5897	2,296.88	68.8521	2,296.88	67.9332	2,296.88	68.5194	2,296.88	68.1253	2,296.88	62.8778	2,296.88	65.5651	2,296.88	57.6791	2,296.88	62.204	2,296.88	61.9533
2,378.91	79.3557	2,378.91	79.3072	2,378.91	79.5289	2,378.91	79.0798	2,378.91	78.9183	2,378.91	78.4433	2,378.91	78.4571	2,378.91	77.242	2,378.91	77.9799	2,378.91	76.3302	2,378.91	77.0301	2,378.91	75.8218	2,378.91	76.1598	2,378.91	74.5831	2,378.91	74.8431	2,378.91	73.0947	2,378.91	72.3598	2,378.91	71.6774	2,378.91	70.4088	2,378.91	69.9964	2,378.91	69.9286	2,378.91	66.4073	2,378.91	66.1576	2,378.91	66.1546	2,378.91	65.0699	2,378.91	65.7053	2,378.91	64.5032	2,378.91	65.8434	2,378.91	63.5199	2,378.91	66.8839	2,378.91	67.3349	2,378.91	65.2966	2,378.91	64.7914	2,378.91	63.6984	2,378.91	65.0391	2,378.91	64.4159
2,462.4	79.276	2,462.4	79.1772	2,462.4	79.2426	2,462.4	79.0371	2,462.4	78.9763	2,462.4	78.586	2,462.4	78.5922	2,462.4	77.8553	2,462.4	77.9242	2,462.4	76.831	2,462.4	77.0677	2,462.4	75.9546	2,462.4	76.0555	2,462.4	74.6336	2,462.4	74.4936	2,462.4	72.2423	2,462.4	72.4671	2,462.4	70.7228	2,462.4	70.6934	2,462.4	69.5678	2,462.4	70.0527	2,462.4	67.4347	2,462.4	67.5421	2,462.4	66.3465	2,462.4	66.6129	2,462.4	65.0562	2,462.4	66.8567	2,462.4	65.6616	2,462.4	66.5682	2,462.4	67.1276	2,462.4	68.0431	2,462.4	61.6149	2,462.4	64.4377	2,462.4	62.0624	2,462.4	61.6845	2,462.4	64.7954
2,548.83	78.3953	2,548.83	78.3005	2,548.83	78.2014	2,548.83	78.0861	2,548.83	78.0869	2,548.83	77.8114	2,548.83	77.8119	2,548.83	77.1738	2,548.83	77.3929	2,548.83	76.0436	2,548.83	76.2531	2,548.83	75.0771	2,548.83	75.2034	2,548.83	74.1784	2,548.83	73.9576	2,548.83	72.3129	2,548.83	72.0181	2,548.83	70.6476	2,548.83	69.7135	2,548.83	70.2531	2,548.83	68.879	2,548.83	67.8062	2,548.83	66.8073	2,548.83	66.7333	2,548.83	65.0656	2,548.83	65.1107	2,548.83	65.801	2,548.83	66.7244	2,548.83	65.7376	2,548.83	67.9884	2,548.83	66.5049	2,548.83	63.4214	2,548.83	64.349	2,548.83	61.8116	2,548.83	58.7887	2,548.83	63.9933
2,639.65	78.9209	2,639.65	78.8611	2,639.65	78.8971	2,639.65	78.627	2,639.65	78.8853	2,639.65	78.383	2,639.65	78.7485	2,639.65	77.81	2,639.65	78.4049	2,639.65	76.7218	2,639.65	77.483	2,639.65	75.124	2,639.65	76.0868	2,639.65	74.1229	2,639.65	74.8668	2,639.65	72.161	2,639.65	73.126	2,639.65	69.2798	2,639.65	71.2144	2,639.65	68.964	2,639.65	69.9472	2,639.65	66.391	2,639.65	68.521	2,639.65	64.6091	2,639.65	65.6981	2,639.65	64.691	2,639.65	66.1395	2,639.65	65.6765	2,639.65	65.7264	2,639.65	66.2967	2,639.65	67.5635	2,639.65	62.5269	2,639.65	64.4835	2,639.65	61.1421	2,639.65	63.5545	2,639.65	63.5149
2,731.93	79.2572	2,731.93	79.3253	2,731.93	79.2911	2,731.93	79.1622	2,731.93	79.2354	2,731.93	78.8861	2,731.93	79.0899	2,731.93	78.4774	2,731.93	78.8264	2,731.93	77.6275	2,731.93	77.9766	2,731.93	76.0815	2,731.93	76.4121	2,731.93	75.2202	2,731.93	75.0966	2,731.93	73.6054	2,731.93	73.4522	2,731.93	70.7424	2,731.93	71.6355	2,731.93	69.399	2,731.93	70.1354	2,731.93	68.1998	2,731.93	68.5891	2,731.93	66.352	2,731.93	66.01	2,731.93	66.0078	2,731.93	66.3758	2,731.93	65.328	2,731.93	65.8415	2,731.93	67.508	2,731.93	67.4861	2,731.93	63.4087	2,731.93	65.2917	2,731.93	63.1051	2,731.93	61.4644	2,731.93	65.9204
2,828.61	78.8489	2,828.61	79.088	2,828.61	79.1364	2,828.61	79.0018	2,828.61	79.1884	2,828.61	78.745	2,828.61	78.9694	2,828.61	78.216	2,828.61	78.4889	2,828.61	77.4663	2,828.61	78.0609	2,828.61	75.9132	2,828.61	76.5801	2,828.61	74.8383	2,828.61	74.631	2,828.61	73.487	2,828.61	73.0626	2,828.61	71.0338	2,828.61	71.0622	2,828.61	69.0496	2,828.61	69.3132	2,828.61	67.8598	2,828.61	67.8359	2,828.61	66.3271	2,828.61	65.8258	2,828.61	67.2949	2,828.61	65.7876	2,828.61	65.4795	2,828.61	64.5429	2,828.61	66.4276	2,828.61	66.8313	2,828.61	64.1754	2,828.61	64.7172	2,828.61	62.0803	2,828.61	61.7119	2,828.61	63.3003
2,928.22	79.4103	2,928.22	79.682	2,928.22	79.6233	2,928.22	79.8094	2,928.22	79.8884	2,928.22	79.6397	2,928.22	79.7741	2,928.22	79.0704	2,928.22	79.2584	2,928.22	78.1694	2,928.22	78.6197	2,928.22	76.6018	2,928.22	77.4421	2,928.22	74.8218	2,928.22	75.658	2,928.22	73.2322	2,928.22	74.282	2,928.22	71.1615	2,928.22	71.4603	2,928.22	68.7295	2,928.22	69.3138	2,928.22	68.9982	2,928.22	68.9507	2,928.22	66.4297	2,928.22	66.7647	2,928.22	65.4775	2,928.22	66.7305	2,928.22	64.4686	2,928.22	65.3959	2,928.22	67.8528	2,928.22	66.8654	2,928.22	64.642	2,928.22	66.531	2,928.22	61.5222	2,928.22	56.7171	2,928.22	66.6294
3,030.76	78.9463	3,030.76	79.1811	3,030.76	79.231	3,030.76	79.564	3,030.76	79.8353	3,030.76	79.7847	3,030.76	80.0207	3,030.76	79.4975	3,030.76	79.7288	3,030.76	78.428	3,030.76	78.95	3,030.76	76.9294	3,030.76	77.5711	3,030.76	75.2209	3,030.76	76.0472	3,030.76	73.7589	3,030.76	74.2537	3,030.76	72.1578	3,030.76	71.9958	3,030.76	69.5086	3,030.76	69.4727	3,030.76	68.6334	3,030.76	69.5056	3,030.76	65.9738	3,030.76	66.9444	3,030.76	65.2243	3,030.76	66.0252	3,030.76	64.9303	3,030.76	66.0505	3,030.76	67.5155	3,030.76	66.9711	3,030.76	66.4788	3,030.76	67.618	3,030.76	61.137	3,030.76	61.4891	3,030.76	64.5591
3,137.7	78.9709	3,137.7	79.1794	3,137.7	79.2487	3,137.7	79.6797	3,137.7	79.8049	3,137.7	80.0063	3,137.7	80.2201	3,137.7	79.7245	3,137.7	80.0295	3,137.7	78.8001	3,137.7	79.3366	3,137.7	77.2536	3,137.7	77.7695	3,137.7	75.4721	3,137.7	76.1217	3,137.7	73.1377	3,137.7	74.3893	3,137.7	71.6879	3,137.7	72.6689	3,137.7	69.5514	3,137.7	70.6332	3,137.7	68.093	3,137.7	69.2092	3,137.7	67.4271	3,137.7	66.0259	3,137.7	64.5747	3,137.7	66.2516	3,137.7	63.9376	3,137.7	66.2685	3,137.7	67.8689	3,137.7	67.4252	3,137.7	65.9255	3,137.7	67.2518	3,137.7	61.8776	3,137.7	60.6562	3,137.7	65.2905
3,249.02	79.0586	3,249.02	79.1297	3,249.02	79.4898	3,249.02	79.5822	3,249.02	80.2641	3,249.02	80.0106	3,249.02	80.5846	3,249.02	80.0057	3,249.02	80.5854	3,249.02	79.0063	3,249.02	79.704	3,249.02	77.2916	3,249.02	78.2497	3,249.02	75.5194	3,249.02	76.4632	3,249.02	73.4062	3,249.02	74.2243	3,249.02	72.1093	3,249.02	72.3643	3,249.02	69.9551	3,249.02	70.4388	3,249.02	68.5208	3,249.02	69.7512	3,249.02	66.959	3,249.02	67.927	3,249.02	68.0475	3,249.02	65.0447	3,249.02	66.9441	3,249.02	65.1528	3,249.02	64.8954	3,249.02	66.7859	3,249.02	66.4187	3,249.02	67.2264	3,249.02	57.1203	3,249.02	64.0047	3,249.02	61.1022
3,363.28	78.8996	3,363.28	79.238	3,363.28	79.267	3,363.28	79.8807	3,363.28	80.1668	3,363.28	80.4242	3,363.28	80.7226	3,363.28	80.1803	3,363.28	80.8433	3,363.28	79.4638	3,363.28	79.888	3,363.28	77.991	3,363.28	78.5051	3,363.28	76.0045	3,363.28	76.9954	3,363.28	73.5993	3,363.28	74.6752	3,363.28	72.4405	3,363.28	73.026	3,363.28	70.8259	3,363.28	70.4618	3,363.28	68.8574	3,363.28	69.3084	3,363.28	67.6281	3,363.28	68.3646	3,363.28	66.7942	3,363.28	67.4563	3,363.28	66.4537	3,363.28	66.5524	3,363.28	66.2768	3,363.28	66.3845	3,363.28	66.4374	3,363.28	67.328	3,363.28	63.0747	3,363.28	62.8975	3,363.28	63.9097
3,481.93	78.8397	3,481.93	79.2758	3,481.93	79.0219	3,481.93	79.914	3,481.93	79.8912	3,481.93	80.1767	3,481.93	80.4675	3,481.93	79.9512	3,481.93	80.4549	3,481.93	79.1724	3,481.93	79.4996	3,481.93	78.191	3,481.93	78.3012	3,481.93	76.1988	3,481.93	76.7005	3,481.93	73.5033	3,481.93	74.6773	3,481.93	71.6542	3,481.93	73.2738	3,481.93	69.9991	3,481.93	70.7845	3,481.93	68.4885	3,481.93	68.2417	3,481.93	65.9114	3,481.93	68.5263	3,481.93	66.0589	3,481.93	67.1348	3,481.93	67.4458	3,481.93	68.4819	3,481.93	66.5082	3,481.93	66.3964	3,481.93	67.1855	3,481.93	67.7929	3,481.93	61.9788	3,481.93	61.5144	3,481.93	65.1091
3,604.98	79.0668	3,604.98	79.1381	3,604.98	79.5198	3,604.98	79.6679	3,604.98	80.3759	3,604.98	80.2821	3,604.98	80.6318	3,604.98	79.8002	3,604.98	80.3056	3,604.98	78.9787	3,604.98	79.4834	3,604.98	78.2506	3,604.98	78.3244	3,604.98	76.2691	3,604.98	76.775	3,604.98	73.649	3,604.98	74.4699	3,604.98	71.582	3,604.98	73.0359	3,604.98	70.0059	3,604.98	70.9564	3,604.98	67.9935	3,604.98	68.1688	3,604.98	68.2791	3,604.98	67.9103	3,604.98	65.1698	3,604.98	66.0588	3,604.98	66.9183	3,604.98	68.4168	3,604.98	67.2039	3,604.98	65.1137	3,604.98	67.7183	3,604.98	67.8146	3,604.98	60.8322	3,604.98	64.523	3,604.98	63.7796
3,732.42	78.5476	3,732.42	79.025	3,732.42	78.872	3,732.42	79.5863	3,732.42	79.4708	3,732.42	79.8145	3,732.42	80.1264	3,732.42	79.8065	3,732.42	79.9483	3,732.42	78.4995	3,732.42	79.1895	3,732.42	77.8021	3,732.42	78.1713	3,732.42	76.8172	3,732.42	76.5231	3,732.42	74.4739	3,732.42	74.2898	3,732.42	72.0543	3,732.42	72.5325	3,732.42	69.6766	3,732.42	69.8835	3,732.42	67.6729	3,732.42	68.4305	3,732.42	68.6314	3,732.42	67.1204	3,732.42	65.1166	3,732.42	66.6354	3,732.42	67.5442	3,732.42	67.9275	3,732.42	66.002	3,732.42	65.9192	3,732.42	68.2106	3,732.42	67.9957	3,732.42	62.8101	3,732.42	62.6799	3,732.42	64.0581
3,864.26	79.0683	3,864.26	79.4235	3,864.26	79.0644	3,864.26	80.169	3,864.26	79.7755	3,864.26	80.0065	3,864.26	80.3966	3,864.26	80.0292	3,864.26	80.0177	3,864.26	79.3558	3,864.26	79.4915	3,864.26	77.4709	3,864.26	78.5234	3,864.26	76.1583	3,864.26	76.9133	3,864.26	75.29	3,864.26	75.2481	3,864.26	72.1921	3,864.26	72.8771	3,864.26	69.6315	3,864.26	71.028	3,864.26	68.4993	3,864.26	70.5073	3,864.26	65.3863	3,864.26	65.8656	3,864.26	66.1938	3,864.26	65.7075	3,864.26	66.1499	3,864.26	68.5117	3,864.26	63.4329	3,864.26	67.6219	3,864.26	69.0521	3,864.26	68.1742	3,864.26	64.5311	3,864.26	63.7325	3,864.26	64.773
4,000.49	78.0673	4,000.49	78.5822	4,000.49	78.1157	4,000.49	78.9653	4,000.49	79.2058	4,000.49	79.618	4,000.49	79.9478	4,000.49	78.8004	4,000.49	79.7327	4,000.49	79.2998	4,000.49	79.3173	4,000.49	77.8553	4,000.49	78.1625	4,000.49	75.9844	4,000.49	76.3244	4,000.49	75.1421	4,000.49	74.8617	4,000.49	72.3749	4,000.49	71.7415	4,000.49	71.6676	4,000.49	70.4386	4,000.49	69.1485	4,000.49	67.6278	4,000.49	66.9347	4,000.49	67.3182	4,000.49	66.1487	4,000.49	64.7995	4,000.49	68.7117	4,000.49	67.2024	4,000.49	64.2626	4,000.49	64.1714	4,000.49	67.6034	4,000.49	66.8384	4,000.49	63.4973	4,000.49	62.8416	4,000.49	62.2674
4,141.11	77.5528	4,141.11	77.7994	4,141.11	77.766	4,141.11	78.265	4,141.11	78.9942	4,141.11	79.5866	4,141.11	79.2909	4,141.11	79.7816	4,141.11	79.9094	4,141.11	78.9467	4,141.11	79.005	4,141.11	78.0533	4,141.11	78.5693	4,141.11	76.3163	4,141.11	76.7631	4,141.11	73.4278	4,141.11	74.9408	4,141.11	73.0546	4,141.11	72.4958	4,141.11	69.7185	4,141.11	70.7341	4,141.11	67.3344	4,141.11	69.4062	4,141.11	67.2264	4,141.11	67.5563	4,141.11	64.982	4,141.11	66.1381	4,141.11	69.1363	4,141.11	66.448	4,141.11	65.6195	4,141.11	67.1254	4,141.11	66.3713	4,141.11	67.8339	4,141.11	56.5252	4,141.11	62.818	4,141.11	63.4697
4,287.6	77.4175	4,287.6	76.6732	4,287.6	77.68	4,287.6	77.8888	4,287.6	77.546	4,287.6	78.322	4,287.6	79.0278	4,287.6	80.3488	4,287.6	79.4001	4,287.6	78.7827	4,287.6	79.4583	4,287.6	78.3659	4,287.6	78.3415	4,287.6	76.5819	4,287.6	76.7185	4,287.6	75.4616	4,287.6	73.9279	4,287.6	73.5762	4,287.6	72.2949	4,287.6	69.2115	4,287.6	70.6937	4,287.6	68.7333	4,287.6	67.2846	4,287.6	67.8199	4,287.6	65.4551	4,287.6	67.2311	4,287.6	65.0602	4,287.6	66.6519	4,287.6	65.7499	4,287.6	67.9781	4,287.6	67.4335	4,287.6	68.9927	4,287.6	67.8915	4,287.6	63.1188	4,287.6	62.4247	4,287.6	64.5685
4,438.48	78.0746	4,438.48	78.2313	4,438.48	77.7173	4,438.48	78.2165	4,438.48	78.6173	4,438.48	79.2257	4,438.48	79.6684	4,438.48	79.0587	4,438.48	79.6875	4,438.48	80.3521	4,438.48	79.6469	4,438.48	79.2302	4,438.48	78.4485	4,438.48	77.6215	4,438.48	76.1169	4,438.48	76.8243	4,438.48	75.394	4,438.48	71.1299	4,438.48	72.1767	4,438.48	71.8377	4,438.48	70.2514	4,438.48	68.4453	4,438.48	68.5066	4,438.48	68.1211	4,438.48	66.1713	4,438.48	65.2701	4,438.48	65.604	4,438.48	65.6965	4,438.48	66.5854	4,438.48	68.637	4,438.48	67.6868	4,438.48	68.6835	4,438.48	67.9162	4,438.48	62.6625	4,438.48	64.7871	4,438.48	65.4616
4,595.21	79.8508	4,595.21	79.2961	4,595.21	78.6569	4,595.21	79.4896	4,595.21	79.4498	4,595.21	80.1176	4,595.21	79.4549	4,595.21	79.5069	4,595.21	79.939	4,595.21	79.7186	4,595.21	79.3177	4,595.21	78.6984	4,595.21	78.7785	4,595.21	75.9884	4,595.21	77.2875	4,595.21	72.3933	4,595.21	74.8852	4,595.21	71.2275	4,595.21	72.7402	4,595.21	68.7802	4,595.21	70.542	4,595.21	66.918	4,595.21	68.962	4,595.21	65.8458	4,595.21	66.3401	4,595.21	66.5474	4,595.21	65.0048	4,595.21	65.9765	4,595.21	65.4129	4,595.21	67.2375	4,595.21	66.8385	4,595.21	67.5806	4,595.21	67.6718	4,595.21	58.824	4,595.21	63.5546	4,595.21	59.3196
4,756.35	79.576	4,756.35	79.4337	4,756.35	80.1573	4,756.35	79.234	4,756.35	78.7472	4,756.35	78.4823	4,756.35	79.7169	4,756.35	80.8799	4,756.35	79.7185	4,756.35	79.7794	4,756.35	79.8931	4,756.35	78.5545	4,756.35	78.8507	4,756.35	76.7604	4,756.35	77.5208	4,756.35	74.9923	4,756.35	75.2074	4,756.35	73.5831	4,756.35	72.1173	4,756.35	70.249	4,756.35	71.1839	4,756.35	67.1663	4,756.35	66.0488	4,756.35	64.8875	4,756.35	66.6409	4,756.35	65.1424	4,756.35	64.2169	4,756.35	65.7735	4,756.35	62.2328	4,756.35	65.3197	4,756.35	67.1859	4,756.35	67.5105	4,756.35	66.3448	4,756.35	64.3475	4,756.35	62.59	4,756.35	63.6921
4,924.8	79.6866	4,924.8	79.6068	4,924.8	79.3364	4,924.8	78.8293	4,924.8	78.9345	4,924.8	79.8623	4,924.8	78.8849	4,924.8	79.6464	4,924.8	79.6212	4,924.8	80.1143	4,924.8	79.4217	4,924.8	78.9337	4,924.8	78.4085	4,924.8	77.9317	4,924.8	76.9657	4,924.8	76.3817	4,924.8	74.9918	4,924.8	73.2779	4,924.8	74.0638	4,924.8	71.6116	4,924.8	69.5936	4,924.8	65.9225	4,924.8	68.6481	4,924.8	67.5443	4,924.8	65.4608	4,924.8	63.1598	4,924.8	62.4622	4,924.8	65.5022	4,924.8	65.4616	4,924.8	66.1375	4,924.8	67.3074	4,924.8	67.0755	4,924.8	66.4051	4,924.8	62.2776	4,924.8	64.8818	4,924.8	65.9684
5,097.66	81.0704	5,097.66	79.4197	5,097.66	79.8405	5,097.66	79.8385	5,097.66	79.2521	5,097.66	79.8901	5,097.66	78.9523	5,097.66	79.2717	5,097.66	79.1237	5,097.66	79.1525	5,097.66	79.2264	5,097.66	79.3198	5,097.66	79.2805	5,097.66	76.5987	5,097.66	76.7105	5,097.66	73.947	5,097.66	74.9153	5,097.66	70.9486	5,097.66	72.1032	5,097.66	68.6641	5,097.66	69.9223	5,097.66	67.7671	5,097.66	67.1928	5,097.66	66.1484	5,097.66	66.2491	5,097.66	64.8758	5,097.66	64.9434	5,097.66	63.9953	5,097.66	61.5685	5,097.66	67.4931	5,097.66	65.7856	5,097.66	66.4961	5,097.66	68.0752	5,097.66	61.438	5,097.66	63.7085	5,097.66	61.4114
5,277.83	79.0999	5,277.83	79.436	5,277.83	79.5642	5,277.83	77.8947	5,277.83	78.702	5,277.83	77.3919	5,277.83	79.5002	5,277.83	79.281	5,277.83	79.8611	5,277.83	79.521	5,277.83	79.7215	5,277.83	78.267	5,277.83	78.0193	5,277.83	76.3827	5,277.83	77.2473	5,277.83	74.1188	5,277.83	75.129	5,277.83	71.3545	5,277.83	72.5579	5,277.83	69.3854	5,277.83	70.4027	5,277.83	68.6941	5,277.83	67.3948	5,277.83	66.1053	5,277.83	65.0685	5,277.83	64.5485	5,277.83	63.7827	5,277.83	63.1405	5,277.83	62.0678	5,277.83	67.5146	5,277.83	66.5321	5,277.83	65.766	5,277.83	64.873	5,277.83	60.9801	5,277.83	64.4788	5,277.83	60.0688
5,463.87	78.9034	5,463.87	78.7555	5,463.87	78.0877	5,463.87	78.6711	5,463.87	78.5149	5,463.87	78.8967	5,463.87	78.6585	5,463.87	78.7937	5,463.87	79.032	5,463.87	79.6706	5,463.87	79.3766	5,463.87	78.5179	5,463.87	79.2864	5,463.87	77.0325	5,463.87	77.2563	5,463.87	74.845	5,463.87	75.161	5,463.87	73.1738	5,463.87	72.9512	5,463.87	70.2023	5,463.87	69.6145	5,463.87	67.3338	5,463.87	67.0927	5,463.87	65.9218	5,463.87	65.9603	5,463.87	62.7917	5,463.87	63.8541	5,463.87	63.0971	5,463.87	61.1769	5,463.87	64.3224	5,463.87	65.3017	5,463.87	66.737	5,463.87	65.9258	5,463.87	62.3171	5,463.87	64.645	5,463.87	58.7437
5,657.23	78.934	5,657.23	77.9792	5,657.23	79.0418	5,657.23	78.4269	5,657.23	77.8318	5,657.23	78.3195	5,657.23	77.6203	5,657.23	78.5513	5,657.23	78.4714	5,657.23	78.7664	5,657.23	78.5385	5,657.23	78.5822	5,657.23	77.9477	5,657.23	76.1228	5,657.23	76.3595	5,657.23	74.2802	5,657.23	73.3091	5,657.23	71.7729	5,657.23	70.4483	5,657.23	68.5573	5,657.23	69.3923	5,657.23	67.332	5,657.23	65.7798	5,657.23	62.857	5,657.23	62.8527	5,657.23	62.9082	5,657.23	64.8447	5,657.23	61.7486	5,657.23	61.3354	5,657.23	65.8344	5,657.23	66.0716	5,657.23	64.8791	5,657.23	63.5652	5,657.23	63.2268	5,657.23	64.5875	5,657.23	60.4953
5,856.45	78.8679	5,856.45	79.5436	5,856.45	79.0746	5,856.45	77.8024	5,856.45	78.5916	5,856.45	77.8326	5,856.45	78.3592	5,856.45	78.2751	5,856.45	78.5026	5,856.45	78.7644	5,856.45	78.3999	5,856.45	76.8124	5,856.45	76.8455	5,856.45	75.3948	5,856.45	75.5818	5,856.45	73.0654	5,856.45	74.337	5,856.45	69.7507	5,856.45	71.3754	5,856.45	67.6043	5,856.45	68.9636	5,856.45	65.2741	5,856.45	65.9518	5,856.45	62.7515	5,856.45	63.2238	5,856.45	59.8729	5,856.45	62.6043	5,856.45	60.6871	5,856.45	60.3824	5,856.45	65.0801	5,856.45	64.3218	5,856.45	62.708	5,856.45	64.2726	5,856.45	59.3391	5,856.45	62.2375	5,856.45	54.5017
6,062.99	78.6584	6,062.99	78.3297	6,062.99	78.5199	6,062.99	79.0841	6,062.99	78.2465	6,062.99	78.1752	6,062.99	77.5804	6,062.99	77.8297	6,062.99	77.4754	6,062.99	77.2826	6,062.99	77.5721	6,062.99	76.8701	6,062.99	77.5169	6,062.99	75.1251	6,062.99	75.7806	6,062.99	72.2444	6,062.99	73.2533	6,062.99	70.3296	6,062.99	70.5171	6,062.99	67.6986	6,062.99	68.385	6,062.99	65.3513	6,062.99	66.1009	6,062.99	62.0776	6,062.99	63.7948	6,062.99	59.4583	6,062.99	61.1016	6,062.99	58.7426	6,062.99	59.2984	6,062.99	63.1445	6,062.99	64.9715	6,062.99	62.805	6,062.99	63.4725	6,062.99	57.9178	6,062.99	63.8585	6,062.99	41.0679
6,276.86	79.4722	6,276.86	79.7814	6,276.86	80.2314	6,276.86	78.6474	6,276.86	79.0424	6,276.86	77.5204	6,276.86	78.2715	6,276.86	76.7796	6,276.86	77.7676	6,276.86	77.5292	6,276.86	77.7549	6,276.86	76.2782	6,276.86	76.5964	6,276.86	74.0574	6,276.86	75.3952	6,276.86	72.5124	6,276.86	73.3063	6,276.86	69.8795	6,276.86	70.4872	6,276.86	66.9244	6,276.86	67.5784	6,276.86	63.8965	6,276.86	65.709	6,276.86	62.113	6,276.86	60.4198	6,276.86	60.8948	6,276.86	63.4287	6,276.86	55.3096	6,276.86	61.0939	6,276.86	64.0299	6,276.86	63.0378	6,276.86	62.643	6,276.86	61.6973	6,276.86	61.8245	6,276.86	63.339	6,276.86	51.3083
6,498.05	79.6724	6,498.05	79.4615	6,498.05	79.4239	6,498.05	79.1801	6,498.05	79.2353	6,498.05	78.4	6,498.05	78.276	6,498.05	77.9188	6,498.05	78.0503	6,498.05	77.7124	6,498.05	78.0262	6,498.05	76.591	6,498.05	77.5864	6,498.05	74.8974	6,498.05	75.6749	6,498.05	71.4244	6,498.05	73.2798	6,498.05	69.2223	6,498.05	71.1752	6,498.05	66.6393	6,498.05	68.3747	6,498.05	64.2063	6,498.05	64.9656	6,498.05	58.4651	6,498.05	64.3926	6,498.05	59.9182	6,498.05	58.1819	6,498.05	58.245	6,498.05	54.0748	6,498.05	62.4623	6,498.05	62.2053	6,498.05	62.8557	6,498.05	63.8891	6,498.05	60.1551	6,498.05	62.2393	6,498.05	53.7582
6,726.56	79.8864	6,726.56	80.0757	6,726.56	80.5103	6,726.56	79.6702	6,726.56	79.4396	6,726.56	78.5444	6,726.56	78.5481	6,726.56	78.088	6,726.56	78.1607	6,726.56	78.3092	6,726.56	78.675	6,726.56	77.1959	6,726.56	77.5572	6,726.56	75.2761	6,726.56	76.267	6,726.56	73.1737	6,726.56	74.5439	6,726.56	70.3158	6,726.56	70.4946	6,726.56	66.2291	6,726.56	67.8431	6,726.56	65.3844	6,726.56	65.22	6,726.56	63.012	6,726.56	61.2524	6,726.56	61.5476	6,726.56	63.9694	6,726.56	59.2564	6,726.56	60.0696	6,726.56	61.8525	6,726.56	61.3968	6,726.56	62.4183	6,726.56	61.4331	6,726.56	61.3097	6,726.56	63.9573	6,726.56	52.3559
6,963.87	80.0933	6,963.87	80.3654	6,963.87	79.8151	6,963.87	79.6167	6,963.87	79.4236	6,963.87	78.9188	6,963.87	78.7144	6,963.87	78.4751	6,963.87	78.7049	6,963.87	78.4419	6,963.87	78.3651	6,963.87	77.3002	6,963.87	77.7548	6,963.87	75.661	6,963.87	76.506	6,963.87	73.4205	6,963.87	73.8533	6,963.87	70.8235	6,963.87	71.7938	6,963.87	68.4158	6,963.87	68.7071	6,963.87	65.3814	6,963.87	66.0655	6,963.87	61.6855	6,963.87	63.0229	6,963.87	61.2204	6,963.87	59.7661	6,963.87	57.0136	6,963.87	57.7915	6,963.87	62.4132	6,963.87	60.8964	6,963.87	64.0695	6,963.87	63.4185	6,963.87	60.4492	6,963.87	63.0543	6,963.87	46.2797
7,209.96	79.7692	7,209.96	80.0475	7,209.96	80.2898	7,209.96	80.0067	7,209.96	79.4612	7,209.96	79.4312	7,209.96	78.8703	7,209.96	78.7872	7,209.96	78.2743	7,209.96	78.8113	7,209.96	78.7212	7,209.96	77.5341	7,209.96	77.8811	7,209.96	75.8845	7,209.96	75.9345	7,209.96	73.5916	7,209.96	73.6284	7,209.96	71.0551	7,209.96	70.6178	7,209.96	67.6158	7,209.96	67.9088	7,209.96	66.082	7,209.96	64.7566	7,209.96	63.1139	7,209.96	62.3302	7,209.96	60.262	7,209.96	59.1957	7,209.96	58.1334	7,209.96	58.0486	7,209.96	61.5142	7,209.96	60.4014	7,209.96	63.0369	7,209.96	62.2161	7,209.96	61.5005	7,209.96	61.915	7,209.96	50.3679
7,464.84	80.3867	7,464.84	80.5639	7,464.84	79.9063	7,464.84	79.6575	7,464.84	79.3608	7,464.84	78.9883	7,464.84	78.8145	7,464.84	78.4938	7,464.84	78.5562	7,464.84	78.5744	7,464.84	78.0834	7,464.84	77.4865	7,464.84	77.5114	7,464.84	76.1482	7,464.84	76.2891	7,464.84	74.1103	7,464.84	73.8355	7,464.84	71.0783	7,464.84	71.0623	7,464.84	68.0733	7,464.84	68.2459	7,464.84	65.3702	7,464.84	64.5422	7,464.84	62.4665	7,464.84	62.0578	7,464.84	60.4342	7,464.84	60.2678	7,464.84	57.2476	7,464.84	58.7692	7,464.84	59.7798	7,464.84	60.2309	7,464.84	62.4652	7,464.84	61.8079	7,464.84	61.9473	7,464.84	61.5929	7,464.84	49.1495
7,727.05	79.8132	7,727.05	79.9063	7,727.05	80.0981	7,727.05	79.8087	7,727.05	79.2412	7,727.05	79.1575	7,727.05	78.454	7,727.05	77.9807	7,727.05	78.1024	7,727.05	78.1141	7,727.05	78.1035	7,727.05	77.2594	7,727.05	77.3085	7,727.05	76.1467	7,727.05	75.8576	7,727.05	73.6305	7,727.05	73.2661	7,727.05	70.7273	7,727.05	70.7742	7,727.05	67.0635	7,727.05	67.491	7,727.05	64.4946	7,727.05	64.6326	7,727.05	63.6656	7,727.05	62.2217	7,727.05	59.7445	7,727.05	57.438	7,727.05	59.2433	7,727.05	55.1716	7,727.05	59.5124	7,727.05	60.2514	7,727.05	61.053	7,727.05	62.4232	7,727.05	60.1322	7,727.05	61.898	7,727.05	47.3536
7,999.51	80.4433	7,999.51	80.2668	7,999.51	79.9471	7,999.51	79.3165	7,999.51	79.234	7,999.51	78.4343	7,999.51	78.5649	7,999.51	77.693	7,999.51	77.8452	7,999.51	77.707	7,999.51	77.4692	7,999.51	76.6165	7,999.51	77.073	7,999.51	75.5971	7,999.51	75.8458	7,999.51	73.3232	7,999.51	73.2609	7,999.51	70.5561	7,999.51	69.8022	7,999.51	67.8537	7,999.51	67.6189	7,999.51	64.6988	7,999.51	64.7536	7,999.51	60.88	7,999.51	62.7954	7,999.51	57.0805	7,999.51	60.1878	7,999.51	53.483	7,999.51	57.6511	7,999.51	58.626	7,999.51	56.1755	7,999.51	61.4049	7,999.51	61.8079	7,999.51	61.8703	7,999.51	59.3473	7,999.51	47.2882
8,282.23	80.0251	8,282.23	79.7371	8,282.23	79.7681	8,282.23	79.5197	8,282.23	79.0069	8,282.23	78.2487	8,282.23	78.2441	8,282.23	77.04	8,282.23	77.5743	8,282.23	77.1607	8,282.23	77.5466	8,282.23	76.8272	8,282.23	76.9969	8,282.23	75.7502	8,282.23	75.3677	8,282.23	72.7395	8,282.23	72.6387	8,282.23	69.7741	8,282.23	70.5911	8,282.23	66.4748	8,282.23	66.1357	8,282.23	64.2338	8,282.23	64.515	8,282.23	60.6403	8,282.23	62.0334	8,282.23	58.003	8,282.23	56.8886	8,282.23	55.4467	8,282.23	51.1745	8,282.23	58.6678	8,282.23	58.1418	8,282.23	60.5962	8,282.23	62.7834	8,282.23	59.8425	8,282.23	60.6359	8,282.23	43.845
8,573.73	80.006	8,573.73	80.2416	8,573.73	79.9689	8,573.73	79.2197	8,573.73	79.1542	8,573.73	77.821	8,573.73	78.2231	8,573.73	76.5075	8,573.73	77.0338	8,573.73	76.7614	8,573.73	76.9859	8,573.73	76.0851	8,573.73	76.7949	8,573.73	74.9162	8,573.73	75.3689	8,573.73	71.8954	8,573.73	72.3691	8,573.73	70.3758	8,573.73	69.6843	8,573.73	66.0343	8,573.73	66.382	8,573.73	62.4633	8,573.73	63.4704	8,573.73	60.069	8,573.73	61.3071	8,573.73	55.5394	8,573.73	56.5175	8,573.73	49.9148	8,573.73	54.6649	8,573.73	58.412	8,573.73	53.7417	8,573.73	60.7216	8,573.73	61.392	8,573.73	58.9061	8,573.73	59.1262	8,573.73	40.9584
8,876.95	80.245	8,876.95	80.3093	8,876.95	80.0745	8,876.95	79.3928	8,876.95	79.0733	8,876.95	77.9335	8,876.95	77.7731	8,876.95	76.7412	8,876.95	77.2738	8,876.95	76.9239	8,876.95	77.3522	8,876.95	76.4348	8,876.95	76.6057	8,876.95	74.6701	8,876.95	75.3509	8,876.95	72.2273	8,876.95	72.4401	8,876.95	68.5145	8,876.95	69.9347	8,876.95	65.2806	8,876.95	66.0685	8,876.95	63.2994	8,876.95	63.5461	8,876.95	59.5393	8,876.95	61.5054	8,876.95	57.0586	8,876.95	52.0152	8,876.95	55.4418	8,876.95	53.7622	8,876.95	56.629	8,876.95	53.6184	8,876.95	60.0421	8,876.95	61.638	8,876.95	57.9656	8,876.95	60.3078	8,876.95	31.7357
9,188.96	80.4624	9,188.96	80.6169	9,188.96	80.561	9,188.96	79.3316	9,188.96	79.7034	9,188.96	78.1488	9,188.96	78.4551	9,188.96	77.2843	9,188.96	77.8389	9,188.96	77.2637	9,188.96	77.7932	9,188.96	76.5711	9,188.96	77.3949	9,188.96	75.1989	9,188.96	75.9132	9,188.96	72.5944	9,188.96	72.9562	9,188.96	69.8826	9,188.96	70.3432	9,188.96	66.5071	9,188.96	67.1752	9,188.96	63.7842	9,188.96	63.5767	9,188.96	60.4251	9,188.96	60.4141	9,188.96	53.6841	9,188.96	55.762	9,188.96	51.1764	9,188.96	56.3045	9,188.96	56.5089	9,188.96	53.4654	9,188.96	59.2732	9,188.96	59.7912	9,188.96	58.4775	9,188.96	57.3187	9,188.96	42.2436
9,514.16	80.5294	9,514.16	80.56	9,514.16	80.823	9,514.16	79.5776	9,514.16	80.1721	9,514.16	78.5848	9,514.16	79.1758	9,514.16	78.2141	9,514.16	78.7907	9,514.16	77.3583	9,514.16	78.4032	9,514.16	76.4528	9,514.16	77.7122	9,514.16	74.5066	9,514.16	76.0345	9,514.16	72.3393	9,514.16	73.4302	9,514.16	68.7174	9,514.16	70.7856	9,514.16	66.1457	9,514.16	67.6473	9,514.16	63.6158	9,514.16	64.4121	9,514.16	59.7699	9,514.16	61.1747	9,514.16	55.7643	9,514.16	57.5668	9,514.16	53.3869	9,514.16	51.8399	9,514.16	55.3908	9,514.16	54.8078	9,514.16	59.238	9,514.16	60.0371	9,514.16	55.5861	9,514.16	58.1873	9,514.16	45.5658
9,849.61	80.1911	9,849.61	80.2937	9,849.61	80.8842	9,849.61	79.6167	9,849.61	80.549	9,849.61	78.7356	9,849.61	80.0008	9,849.61	78.3428	9,849.61	79.3169	9,849.61	77.4617	9,849.61	78.8031	9,849.61	76.5311	9,849.61	77.9658	9,849.61	74.7646	9,849.61	76.22	9,849.61	72.1308	9,849.61	73.8161	9,849.61	68.4899	9,849.61	71.3826	9,849.61	65.5282	9,849.61	67.808	9,849.61	62.79	9,849.61	64.3439	9,849.61	58.7161	9,849.61	62.5933	9,849.61	55.7828	9,849.61	55.6492	9,849.61	51.4742	9,849.61	52.8392	9,849.61	56.9704	9,849.61	52.5719	9,849.61	57.2333	9,849.61	60.9528	9,849.61	56.5209	9,849.61	56.4338	9,849.61	38.3221
10,196.8	79.9434	10,196.8	80.1588	10,196.8	80.6997	10,196.8	79.3048	10,196.8	80.4743	10,196.8	78.5095	10,196.8	80.2361	10,196.8	77.3878	10,196.8	78.9617	10,196.8	76.37	10,196.8	78.2535	10,196.8	75.9413	10,196.8	77.973	10,196.8	75.1036	10,196.8	76.7981	10,196.8	71.7013	10,196.8	73.8704	10,196.8	68.9576	10,196.8	71.6192	10,196.8	64.4699	10,196.8	67.9584	10,196.8	62.7616	10,196.8	65.5012	10,196.8	59.7755	10,196.8	62.8647	10,196.8	57.4427	10,196.8	57.5609	10,196.8	53.3172	10,196.8	56.734	10,196.8	52.6244	10,196.8	56.7394	10,196.8	58.4888	10,196.8	60.4618	10,196.8	55.3962	10,196.8	57.1125	10,196.8	43.9061
10,555.7	79.6572	10,555.7	79.3416	10,555.7	80.4865	10,555.7	78.8489	10,555.7	80.3288	10,555.7	78.0412	10,555.7	79.2603	10,555.7	76.1479	10,555.7	78.0914	10,555.7	75.1734	10,555.7	77.3538	10,555.7	74.7055	10,555.7	77.4891	10,555.7	73.3295	10,555.7	76.6897	10,555.7	70.6478	10,555.7	73.6755	10,555.7	66.7928	10,555.7	71.0775	10,555.7	64.0932	10,555.7	67.293	10,555.7	61.3221	10,555.7	64.6888	10,555.7	56.1697	10,555.7	61.0321	10,555.7	54.4756	10,555.7	58.6683	10,555.7	54.0953	10,555.7	55.5037	10,555.7	50.9977	10,555.7	53.6062	10,555.7	57.5542	10,555.7	58.511	10,555.7	56.1396	10,555.7	54.5819	10,555.7	46.8058
10,927.7	79.5172	10,927.7	79.0958	10,927.7	79.9969	10,927.7	79.2081	10,927.7	79.9282	10,927.7	77.9518	10,927.7	78.5334	10,927.7	76.2981	10,927.7	77.3821	10,927.7	74.6082	10,927.7	76.2712	10,927.7	73.2663	10,927.7	76.5176	10,927.7	71.2073	10,927.7	75.5335	10,927.7	69.2917	10,927.7	72.4592	10,927.7	65.2193	10,927.7	69.2906	10,927.7	63.1242	10,927.7	65.6597	10,927.7	59.6713	10,927.7	62.9685	10,927.7	56.3038	10,927.7	59.7641	10,927.7	55.706	10,927.7	56.6606	10,927.7	49.37	10,927.7	53.0209	10,927.7	47.9315	10,927.7	49.7907	10,927.7	56.7879	10,927.7	57.1174	10,927.7	53.7738	10,927.7	53.91	10,927.7	46.9023
11,313	79.5701	11,313	79.2124	11,313	79.7915	11,313	79.3792	11,313	79.6966	11,313	77.9293	11,313	78.4248	11,313	76.4684	11,313	76.787	11,313	74.4732	11,313	75.1652	11,313	72.8773	11,313	75.1032	11,313	70.8255	11,313	73.3938	11,313	67.963	11,313	70.2391	11,313	64.899	11,313	67.1206	11,313	60.7289	11,313	64.084	11,313	56.012	11,313	60.784	11,313	54.017	11,313	56.4648	11,313	55.3033	11,313	55.0536	11,313	50.106	11,313	51.5941	11,313	41.1215	11,313	49.8578	11,313	53.6441	11,313	54.8571	11,313	53.1875	11,313	53.2685	11,313	42.1681
11,712.9	79.7874	11,712.9	79.457	11,712.9	79.9106	11,712.9	79.3197	11,712.9	79.3675	11,712.9	77.8525	11,712.9	77.8701	11,712.9	76.0296	11,712.9	76.1473	11,712.9	73.5696	11,712.9	74.2665	11,712.9	72.5017	11,712.9	73.7221	11,712.9	71.522	11,712.9	71.9993	11,712.9	67.8123	11,712.9	68.3076	11,712.9	64.3097	11,712.9	65.258	11,712.9	60.7659	11,712.9	61.7011	11,712.9	57.2006	11,712.9	58.2698	11,712.9	55.0422	11,712.9	53.8603	11,712.9	54.8905	11,712.9	54.902	11,712.9	51.9372	11,712.9	50.7494	11,712.9	45.4213	11,712.9	45.679	11,712.9	53.4037	11,712.9	52.8449	11,712.9	51.3167	11,712.9	49.9598	11,712.9	45.0087
12,126	79.5158	12,126	79.2922	12,126	79.6079	12,126	78.8978	12,126	78.689	12,126	77.6192	12,126	76.9256	12,126	75.7809	12,126	75.496	12,126	73.1218	12,126	73.5908	12,126	72.0807	12,126	72.4336	12,126	71.0353	12,126	70.6068	12,126	67.3713	12,126	67.2927	12,126	63.1318	12,126	63.7402	12,126	60.1208	12,126	58.0482	12,126	57.7167	12,126	57.2204	12,126	54.6869	12,126	52.0615	12,126	52.6747	12,126	52.498	12,126	50.3681	12,126	49.4675	12,126	43.7979	12,126	41.9028	12,126	53.1574	12,126	48.352	12,126	49.2155	12,126	47.2588	12,126	41.8462
12,553.7	79.2751	12,553.7	79.1341	12,553.7	79.1666	12,553.7	78.6458	12,553.7	78.1413	12,553.7	77.437	12,553.7	76.2891	12,553.7	75.9472	12,553.7	75.0562	12,553.7	73.2276	12,553.7	72.8423	12,553.7	71.3543	12,553.7	71.1864	12,553.7	69.1324	12,553.7	68.6007	12,553.7	66.7905	12,553.7	64.6242	12,553.7	61.875	12,553.7	61.1034	12,553.7	59.5901	12,553.7	56.7323	12,553.7	55.1004	12,553.7	55.2331	12,553.7	52.6985	12,553.7	48.8691	12,553.7	52.593	12,553.7	50.8415	12,553.7	47.6335	12,553.7	49.1174	12,553.7	44.9978	12,553.7	40.9903	12,553.7	50.9784	12,553.7	47.2782	12,553.7	47.0458	12,553.7	46.0545	12,553.7	42.5551
12,996.1	79.2563	12,996.1	79.0179	12,996.1	78.871	12,996.1	78.0294	12,996.1	77.7082	12,996.1	76.8491	12,996.1	75.965	12,996.1	75.7421	12,996.1	74.4181	12,996.1	73.246	12,996.1	71.8124	12,996.1	71.4317	12,996.1	69.8289	12,996.1	68.9812	12,996.1	66.8555	12,996.1	66.1987	12,996.1	62.274	12,996.1	61.3067	12,996.1	59.0019	12,996.1	58.6507	12,996.1	55.7058	12,996.1	54.1551	12,996.1	51.5367	12,996.1	51.666	12,996.1	46.7638	12,996.1	52.3204	12,996.1	50.6605	12,996.1	46.5185	12,996.1	47.5674	12,996.1	43.3245	12,996.1	44.1407	12,996.1	49.2428	12,996.1	45.0145	12,996.1	46.2242	12,996.1	44.2696	12,996.1	40.7675
13,454.6	79.155	13,454.6	78.797	13,454.6	78.6435	13,454.6	77.4344	13,454.6	77.4071	13,454.6	76.1505	13,454.6	75.7537	13,454.6	75.0408	13,454.6	73.7743	13,454.6	72.5988	13,454.6	70.7119	13,454.6	70.601	13,454.6	68.6295	13,454.6	68.5578	13,454.6	66.3068	13,454.6	64.678	13,454.6	61.5342	13,454.6	61.0816	13,454.6	58.6466	13,454.6	56.6907	13,454.6	53.1339	13,454.6	52.8441	13,454.6	47.6967	13,454.6	50.4951	13,454.6	46.7033	13,454.6	50.1361	13,454.6	48.9511	13,454.6	46.3501	13,454.6	46.5573	13,454.6	42.943	13,454.6	42.394	13,454.6	48.6445	13,454.6	44.8074	13,454.6	42.7603	13,454.6	40.5201	13,454.6	40.9021
13,929.2	78.9396	13,929.2	78.5882	13,929.2	78.4689	13,929.2	77.091	13,929.2	77.1836	13,929.2	75.5722	13,929.2	75.4552	13,929.2	74.3728	13,929.2	73.1906	13,929.2	71.7192	13,929.2	70.398	13,929.2	69.2672	13,929.2	67.6175	13,929.2	66.5723	13,929.2	64.5562	13,929.2	62.6342	13,929.2	60.6314	13,929.2	58.0063	13,929.2	57.1358	13,929.2	54.9185	13,929.2	52.0407	13,929.2	51.2827	13,929.2	49.3471	13,929.2	48.234	13,929.2	46.7366	13,929.2	47.6763	13,929.2	46.4661	13,929.2	44.1859	13,929.2	44.5468	13,929.2	41.2842	13,929.2	39.5392	13,929.2	46.8182	13,929.2	43.5359	13,929.2	42.2788	13,929.2	38.6894	13,929.2	39.4478
14,419.9	78.7566	14,419.9	78.2508	14,419.9	78.2903	14,419.9	76.7646	14,419.9	77.0728	14,419.9	74.9253	14,419.9	75.0745	14,419.9	73.7545	14,419.9	72.7786	14,419.9	70.6418	14,419.9	69.6764	14,419.9	67.7788	14,419.9	67.2732	14,419.9	63.8284	14,419.9	63.6951	14,419.9	61.6107	14,419.9	58.6292	14,419.9	56.0437	14,419.9	55.2098	14,419.9	53.6821	14,419.9	52.0909	14,419.9	48.1361	14,419.9	47.5764	14,419.9	48.07	14,419.9	46.3238	14,419.9	46.0082	14,419.9	46.434	14,419.9	42.2217	14,419.9	43.7965	14,419.9	39.6904	14,419.9	40.6287	14,419.9	46.0624	14,419.9	44.5126	14,419.9	41.3345	14,419.9	35.8621	14,419.9	38.1291
14,928.2	78.52	14,928.2	78.0268	14,928.2	77.8764	14,928.2	76.4694	14,928.2	76.9023	14,928.2	74.5062	14,928.2	74.6604	14,928.2	73.2408	14,928.2	72.2519	14,928.2	69.6671	14,928.2	68.8649	14,928.2	66.7274	14,928.2	66.8388	14,928.2	63.0622	14,928.2	63.6314	14,928.2	60.1923	14,928.2	58.8692	14,928.2	56.1726	14,928.2	55.6111	14,928.2	50.8231	14,928.2	50.6819	14,928.2	47.7181	14,928.2	45.7605	14,928.2	47.4487	14,928.2	46.5383	14,928.2	44.0982	14,928.2	45.3348	14,928.2	36.6172	14,928.2	41.5202	14,928.2	37.2184	14,928.2	36.8254	14,928.2	44.6789	14,928.2	42.9667	14,928.2	39.0136	14,928.2	37.7439	14,928.2	36.5284
15,455.6	78.336	15,455.6	77.8198	15,455.6	77.6904	15,455.6	76.3965	15,455.6	76.6812	15,455.6	74.3362	15,455.6	74.3924	15,455.6	72.6128	15,455.6	71.983	15,455.6	68.7693	15,455.6	68.5666	15,455.6	65.7528	15,455.6	66.0674	15,455.6	62.6527	15,455.6	62.8664	15,455.6	59.1719	15,455.6	58.4626	15,455.6	54.372	15,455.6	54.9573	15,455.6	50.0919	15,455.6	49.8467	15,455.6	46.983	15,455.6	46.9147	15,455.6	44.8099	15,455.6	46.7939	15,455.6	44.2513	15,455.6	44.7569	15,455.6	37.1887	15,455.6	41.0979	15,455.6	28.3636	15,455.6	35.6208	15,455.6	43.12	15,455.6	41.4814	15,455.6	40.883	15,455.6	37.4239	15,455.6	36.928
16,000.5	78.1985	16,000.5	77.5563	16,000.5	77.6702	16,000.5	76.1651	16,000.5	76.5326	16,000.5	73.9303	16,000.5	74.1096	16,000.5	72.0361	16,000.5	71.609	16,000.5	68.0321	16,000.5	68.0509	16,000.5	64.9249	16,000.5	65.2372	16,000.5	61.1286	16,000.5	61.2653	16,000.5	58.2302	16,000.5	56.527	16,000.5	53.1453	16,000.5	52.5234	16,000.5	49.7069	16,000.5	49.156	16,000.5	45.5753	16,000.5	44.7013	16,000.5	43.7787	16,000.5	44.8362	16,000.5	41.0039	16,000.5	42.5169	16,000.5	37.5926	16,000.5	39.6059	16,000.5	30.3537	16,000.5	34.0402	16,000.5	40.7876	16,000.5	40.4555	16,000.5	40.7084	16,000.5	35.8328	16,000.5	38.0522
16,564.5	78.033	16,564.5	77.2655	16,564.5	77.5452	16,564.5	75.813	16,564.5	76.3488	16,564.5	73.4057	16,564.5	73.8249	16,564.5	71.319	16,564.5	71.2598	16,564.5	67.06	16,564.5	67.2319	16,564.5	63.9174	16,564.5	64.3477	16,564.5	59.8034	16,564.5	60.2634	16,564.5	56.3527	16,564.5	55.1534	16,564.5	52.425	16,564.5	51.4471	16,564.5	47.2578	16,564.5	46.8569	16,564.5	43.4854	16,564.5	43.1062	16,564.5	42.3622	16,564.5	42.5928	16,564.5	38.256	16,564.5	40.4797	16,564.5	33.6368	16,564.5	37.0723	16,564.5	28.6438	16,564.5	30.788	16,564.5	36.0384	16,564.5	40.2752	16,564.5	38.785	16,564.5	29.9702	16,564.5	36.7578
17,148.9	77.7342	17,148.9	76.9087	17,148.9	77.1821	17,148.9	75.4347	17,148.9	75.9089	17,148.9	72.7589	17,148.9	73.2636	17,148.9	70.3127	17,148.9	70.6087	17,148.9	65.9078	17,148.9	66.4208	17,148.9	62.6352	17,148.9	63.1954	17,148.9	57.9555	17,148.9	58.5208	17,148.9	54.3953	17,148.9	53.2032	17,148.9	50.2667	17,148.9	49.3029	17,148.9	45.1652	17,148.9	45.2787	17,148.9	41.3265	17,148.9	41.7302	17,148.9	39.3098	17,148.9	41.1058	17,148.9	34.445	17,148.9	37.8042	17,148.9	32.5703	17,148.9	34.7668	17,148.9	23.2149	17,148.9	29.8866	17,148.9	34.1009	17,148.9	37.8486	17,148.9	36.8347	17,148.9	32.3553	17,148.9	35.7537
17,752.4	77.5697	17,752.4	76.6668	17,752.4	77.0255	17,752.4	75.168	17,752.4	75.6516	17,752.4	72.2579	17,752.4	72.774	17,752.4	69.863	17,752.4	69.9272	17,752.4	64.8936	17,752.4	65.4609	17,752.4	60.7124	17,752.4	61.5323	17,752.4	54.3491	17,752.4	56.2255	17,752.4	51.1496	17,752.4	50.889	17,752.4	47.3901	17,752.4	46.427	17,752.4	42.2154	17,752.4	42.5359	17,752.4	38.856	17,752.4	37.3001	17,752.4	35.8088	17,752.4	37.6125	17,752.4	31.2263	17,752.4	34.9503	17,752.4	30.2846	17,752.4	33.3601	17,752.4	20.6585	17,752.4	29.3255	17,752.4	35.2328	17,752.4	34.9378	17,752.4	32.0176	17,752.4	30.8589	17,752.4	35.2768
18,379.4	77.4748	18,379.4	76.662	18,379.4	76.7479	18,379.4	74.9929	18,379.4	75.2788	18,379.4	72.036	18,379.4	72.2989	18,379.4	69.2733	18,379.4	68.9484	18,379.4	63.8737	18,379.4	63.9496	18,379.4	58.7803	18,379.4	59.2257	18,379.4	50.4152	18,379.4	51.1227	18,379.4	48.5164	18,379.4	44.5701	18,379.4	45.5827	18,379.4	40.1333	18,379.4	39.6964	18,379.4	37.4015	18,379.4	38.8717	18,379.4	34.5988	18,379.4	36.6854	18,379.4	36.6077	18,379.4	32.8192	18,379.4	31.4177	18,379.4	29.5214	18,379.4	25.2565	18,379.4	17.1701	18,379.4	28.6161	18,379.4	31.8171	18,379.4	32.3266	18,379.4	31.4829	18,379.4	26.4615	18,379.4	34.9866
19,026.9	77.0528	19,026.9	76.2226	19,026.9	76.3271	19,026.9	74.5892	19,026.9	74.5902	19,026.9	71.3816	19,026.9	71.2216	19,026.9	68.442	19,026.9	67.5949	19,026.9	62.5925	19,026.9	61.9463	19,026.9	56.7971	19,026.9	55.6859	19,026.9	48.2735	19,026.9	43.0157	19,026.9	44.8543	19,026.9	40.878	19,026.9	46.8493	19,026.9	41.4701	19,026.9	37.3976	19,026.9	37.0951	19,026.9	39.6019	19,026.9	32.257	19,026.9	37.827	19,026.9	29.7366	19,026.9	20.3938	19,026.9	27.1563	19,026.9	31.0604	19,026.9	21.8978	19,026.9	16.3988	19,026.9	15.5993	19,026.9	33.1964	19,026.9	34.1132	19,026.9	27.4918	19,026.9	20.8019	19,026.9	33.8749
19,697.8	76.4613	19,697.8	75.4221	19,697.8	75.5902	19,697.8	73.6571	19,697.8	73.8492	19,697.8	69.9533	19,697.8	70.0213	19,697.8	66.9453	19,697.8	65.9924	19,697.8	60.5797	19,697.8	58.7421	19,697.8	54.3214	19,697.8	49.9183	19,697.8	49.3676	19,697.8	42.7605	19,697.8	47.4122	19,697.8	45.1906	19,697.8	46.336	19,697.8	45.5707	19,697.8	39.4794	19,697.8	39.1186	19,697.8	42.0209	19,697.8	39.5122	19,697.8	36.2811	19,697.8	34.7786	19,697.8	32.5077	19,697.8	18.1149	19,697.8	30.7188	19,697.8	19.4979	19,697.8	21.9217	19,697.8	22.552	19,697.8	32.7756	19,697.8	33.5341	19,697.8	23.6208	19,697.8	18.8354	19,697.8	33.393
19,999.5	76.2302	19,999.5	74.9141	19,999.5	75.2287	19,999.5	73.1623	19,999.5	73.5775	19,999.5	69.3661	19,999.5	69.5749	19,999.5	66.0785	19,999.5	65.0499	19,999.5	58.8627	19,999.5	56.4895	19,999.5	53.2956	19,999.5	46.9421	19,999.5	48.8328	19,999.5	42.1557	19,999.5	48.0479	19,999.5	47.1866	19,999.5	43.3108	19,999.5	45.4967	19,999.5	40.0855	19,999.5	40.9809	19,999.5	41.4353	19,999.5	42.2968	19,999.5	34.4453	19,999.5	42.2256	19,999.5	40.096	19,999.5	37.1776	19,999.5	33.8636	19,999.5	23.4666	19,999.5	38.9639	19,999.5	29.3558	19,999.5	36.4664	19,999.5	30.6674	19,999.5	21.4408	19,999.5	33.8296	19,999.5	35.3701
