"SPL Vertical"																																																																							
"On-Axis"		"10°"		"-10°"		"20°"		"-20°"		"30°"		"-30°"		"40°"		"-40°"		"50°"		"-50°"		"60°"		"-60°"		"70°"		"-70°"		"80°"		"-80°"		"90°"		"-90°"		"100°"		"-100°"		"110°"		"-110°"		"120°"		"-120°"		"130°"		"-130°"		"140°"		"-140°"		"150°"		"-150°"		"160°"		"-160°"		"170°"		"-170°"		"180°"	
"Frequency [Hz]"	"Sound Pessure Level [dB]  / [2.83V 1m] "	"Frequency [Hz]"	"Sound Pessure Level [dB]  / [2.83V 1m] "	"Frequency [Hz]"	"Sound Pessure Level [dB]  / [2.83V 1m] "	"Frequency [Hz]"	"Sound Pessure Level [dB]  / [2.83V 1m] "	"Frequency [Hz]"	"Sound Pessure Level [dB]  / [2.83V 1m] "	"Frequency [Hz]"	"Sound Pessure Level [dB]  / [2.83V 1m] "	"Frequency [Hz]"	"Sound Pessure Level [dB]  / [2.83V 1m] "	"Frequency [Hz]"	"Sound Pessure Level [dB]  / [2.83V 1m] "	"Frequency [Hz]"	"Sound Pessure Level [dB]  / [2.83V 1m] "	"Frequency [Hz]"	"Sound Pessure Level [dB]  / [2.83V 1m] "	"Frequency [Hz]"	"Sound Pessure Level [dB]  / [2.83V 1m] "	"Frequency [Hz]"	"Sound Pessure Level [dB]  / [2.83V 1m] "	"Frequency [Hz]"	"Sound Pessure Level [dB]  / [2.83V 1m] "	"Frequency [Hz]"	"Sound Pessure Level [dB]  / [2.83V 1m] "	"Frequency [Hz]"	"Sound Pessure Level [dB]  / [2.83V 1m] "	"Frequency [Hz]"	"Sound Pessure Level [dB]  / [2.83V 1m] "	"Frequency [Hz]"	"Sound Pessure Level [dB]  / [2.83V 1m] "	"Frequency [Hz]"	"Sound Pessure Level [dB]  / [2.83V 1m] "	"Frequency [Hz]"	"Sound Pessure Level [dB]  / [2.83V 1m] "	"Frequency [Hz]"	"Sound Pessure Level [dB]  / [2.83V 1m] "	"Frequency [Hz]"	"Sound Pessure Level [dB]  / [2.83V 1m] "	"Frequency [Hz]"	"Sound Pessure Level [dB]  / [2.83V 1m] "	"Frequency [Hz]"	"Sound Pessure Level [dB]  / [2.83V 1m] "	"Frequency [Hz]"	"Sound Pessure Level [dB]  / [2.83V 1m] "	"Frequency [Hz]"	"Sound Pessure Level [dB]  / [2.83V 1m] "	"Frequency [Hz]"	"Sound Pessure Level [dB]  / [2.83V 1m] "	"Frequency [Hz]"	"Sound Pessure Level [dB]  / [2.83V 1m] "	"Frequency [Hz]"	"Sound Pessure Level [dB]  / [2.83V 1m] "	"Frequency [Hz]"	"Sound Pessure Level [dB]  / [2.83V 1m] "	"Frequency [Hz]"	"Sound Pessure Level [dB]  / [2.83V 1m] "	"Frequency [Hz]"	"Sound Pessure Level [dB]  / [2.83V 1m] "	"Frequency [Hz]"	"Sound Pessure Level [dB]  / [2.83V 1m] "	"Frequency [Hz]"	"Sound Pessure Level [dB]  / [2.83V 1m] "	"Frequency [Hz]"	"Sound Pessure Level [dB]  / [2.83V 1m] "	"Frequency [Hz]"	"Sound Pessure Level [dB]  / [2.83V 1m] "	"Frequency [Hz]"	"Sound Pessure Level [dB]  / [2.83V 1m] "
20.5078	47.2624	20.5078	46.8692	20.5078	47.6715	20.5078	46.5046	20.5078	48.0807	20.5078	46.178	20.5078	48.4726	20.5078	45.8955	20.5078	48.8287	20.5078	45.6601	20.5078	49.1312	20.5078	45.4723	20.5078	49.3639	20.5078	45.3311	20.5078	49.5133	20.5078	45.2348	20.5078	49.5702	20.5078	45.1815	20.5078	49.5298	20.5078	45.1696	20.5078	49.3933	20.5078	45.1979	20.5078	49.1676	20.5078	45.2659	20.5078	48.8654	20.5078	45.3736	20.5078	48.5044	20.5078	45.5216	20.5078	48.1055	20.5078	45.7107	20.5078	47.6906	20.5078	45.9422	20.5078	47.2801	20.5078	46.2167	20.5078	46.8906	20.5078	46.5338
21.9727	49.7648	21.9727	49.4231	21.9727	50.1209	21.9727	49.1059	21.9727	50.4789	21.9727	48.8205	21.9727	50.8241	21.9727	48.5712	21.9727	51.1408	21.9727	48.3604	21.9727	51.4132	21.9727	48.1888	21.9727	51.6266	21.9727	48.0561	21.9727	51.7686	21.9727	47.9618	21.9727	51.8304	21.9727	47.9053	21.9727	51.8073	21.9727	47.8867	21.9727	51.6994	21.9727	47.9062	21.9727	51.5122	21.9727	47.9646	21.9727	51.2559	21.9727	48.0628	21.9727	50.945	21.9727	48.2018	21.9727	50.5964	21.9727	48.3823	21.9727	50.2284	21.9727	48.6044	21.9727	49.8581	21.9727	48.867	21.9727	49.5005	21.9727	49.1674
23.4375	52.4758	23.4375	52.1944	23.4375	52.7685	23.4375	51.9318	23.4375	53.0626	23.4375	51.6935	23.4375	53.3465	23.4375	51.4828	23.4375	53.6071	23.4375	51.3016	23.4375	53.8313	23.4375	51.1508	23.4375	54.0063	23.4375	51.0307	23.4375	54.1217	23.4375	50.9415	23.4375	54.1695	23.4375	50.8835	23.4375	54.1459	23.4375	50.8575	23.4375	54.0513	23.4375	50.8645	23.4375	53.8907	23.4375	50.9057	23.4375	53.673	23.4375	50.9826	23.4375	53.4107	23.4375	51.0963	23.4375	53.1177	23.4375	51.2473	23.4375	52.8088	23.4375	51.4353	23.4375	52.4975	23.4375	51.6585	23.4375	52.196	23.4375	51.9138
24.9023	54.2544	24.9023	53.9866	24.9023	54.5323	24.9023	53.7364	24.9023	54.811	24.9023	53.5094	24.9023	55.0792	24.9023	53.3091	24.9023	55.3248	24.9023	53.1377	24.9023	55.5356	24.9023	52.9964	24.9023	55.6999	24.9023	52.8854	24.9023	55.8079	24.9023	52.8051	24.9023	55.8526	24.9023	52.7556	24.9023	55.8309	24.9023	52.7373	24.9023	55.7433	24.9023	52.7507	24.9023	55.5948	24.9023	52.7966	24.9023	55.3941	24.9023	52.8758	24.9023	55.1523	24.9023	52.9889	24.9023	54.8823	24.9023	53.1358	24.9023	54.5974	24.9023	53.3159	24.9023	54.3098	24.9023	53.5274	24.9023	54.0301	24.9023	53.767
26.3672	56.3697	26.3672	56.1339	26.3672	56.6139	26.3672	55.9128	26.3672	56.8583	26.3672	55.7112	26.3672	57.0934	26.3672	55.532	26.3672	57.3085	26.3672	55.3773	26.3672	57.4927	26.3672	55.2483	26.3672	57.6356	26.3672	55.1454	26.3672	57.7284	26.3672	55.0691	26.3672	57.7647	26.3672	55.0198	26.3672	57.7417	26.3672	54.9982	26.3672	57.6598	26.3672	55.0049	26.3672	57.5237	26.3672	55.0407	26.3672	57.3411	26.3672	55.1064	26.3672	57.1224	26.3672	55.2026	26.3672	56.8792	26.3672	55.3296	26.3672	56.6234	26.3672	55.4866	26.3672	56.3661	26.3672	55.6722	26.3672	56.117	26.3672	55.8837
27.832	58.1525	27.832	57.9351	27.832	58.3765	27.832	57.7304	27.832	58.5999	27.832	57.5427	27.832	58.8137	27.832	57.3751	27.832	59.0085	27.832	57.2298	27.832	59.1742	27.832	57.1078	27.832	59.3015	27.832	57.0102	27.832	59.3824	27.832	56.9372	27.832	59.4112	27.832	56.8894	27.832	59.3852	27.832	56.8672	27.832	59.3053	27.832	56.8713	27.832	59.1758	27.832	56.9021	27.832	59.0041	27.832	56.9603	27.832	58.7999	27.832	57.0464	27.832	58.5742	27.832	57.1604	27.832	58.3381	27.832	57.3018	27.832	58.1018	27.832	57.4696	27.832	57.874	27.832	57.6615
29.2969	59.8791	29.2969	59.6727	29.2969	60.0901	29.2969	59.4766	29.2969	60.2987	29.2969	59.2952	29.2969	60.4968	29.2969	59.1317	29.2969	60.6756	29.2969	58.9884	29.2969	60.8262	29.2969	58.8669	29.2969	60.9399	29.2969	58.7681	29.2969	61.0096	29.2969	58.6929	29.2969	61.0303	29.2969	58.6417	29.2969	60.9998	29.2969	58.6153	29.2969	60.9191	29.2969	58.6142	29.2969	60.7923	29.2969	58.639	29.2969	60.6264	29.2969	58.6903	29.2969	60.4305	29.2969	58.7687	29.2969	60.2148	29.2969	58.8742	29.2969	59.9897	29.2969	59.0066	29.2969	59.7646	29.2969	59.1646	29.2969	59.5479	29.2969	59.3462
30.7617	61.6049	30.7617	61.4165	30.7617	61.7967	30.7617	61.2368	30.7617	61.9856	30.7617	61.0698	30.7617	62.1645	30.7617	60.9186	30.7617	62.3254	30.7617	60.7855	30.7617	62.4601	30.7617	60.6721	30.7617	62.5612	30.7617	60.5797	30.7617	62.6223	30.7617	60.5091	30.7617	62.6389	30.7617	60.4611	30.7617	62.6093	30.7617	60.4364	30.7617	62.5345	30.7617	60.4354	30.7617	62.4186	30.7617	60.4589	30.7617	62.2679	30.7617	60.5071	30.7617	62.0908	30.7617	60.5804	30.7617	61.8964	30.7617	60.6785	30.7617	61.6935	30.7617	60.8008	30.7617	61.4906	30.7617	60.9459	30.7617	61.2947	30.7617	61.1116
32.2266	63.0774	32.2266	62.894	32.2266	63.2621	32.2266	62.7172	32.2266	63.442	32.2266	62.551	32.2266	63.6103	32.2266	62.3988	32.2266	63.7594	32.2266	62.2631	32.2266	63.8821	32.2266	62.1457	32.2266	63.9712	32.2266	62.0482	32.2266	64.0211	32.2266	61.9716	32.2266	64.028	32.2266	61.917	32.2266	63.9904	32.2266	61.885	32.2266	63.9096	32.2266	61.8765	32.2266	63.7898	32.2266	61.8921	32.2266	63.6373	32.2266	61.9323	32.2266	63.46	32.2266	61.9974	32.2266	63.2669	32.2266	62.0876	32.2266	63.0667	32.2266	62.2022	32.2266	62.8676	32.2266	62.3401	32.2266	62.6765	32.2266	62.4992
33.6914	64.5045	33.6914	64.3309	33.6914	64.6786	33.6914	64.1628	33.6914	64.8475	33.6914	64.0042	33.6914	65.0047	33.6914	63.8582	33.6914	65.1432	33.6914	63.7276	33.6914	65.256	33.6914	63.6141	33.6914	65.3366	33.6914	63.5194	33.6914	65.3798	33.6914	63.4445	33.6914	65.3821	33.6914	63.3905	33.6914	65.3422	33.6914	63.3581	33.6914	65.2617	33.6914	63.348	33.6914	65.1447	33.6914	63.3607	33.6914	64.9973	33.6914	63.3968	33.6914	64.8275	33.6914	63.4563	33.6914	64.6437	33.6914	63.5393	33.6914	64.4542	33.6914	63.6454	33.6914	64.2666	33.6914	63.7735	33.6914	64.0874	33.6914	63.9217
35.1563	65.9146	35.1563	65.7499	35.1563	66.0787	35.1563	65.5891	35.1563	66.2367	35.1563	65.4363	35.1563	66.3826	35.1563	65.2946	35.1563	66.5099	35.1563	65.1666	35.1563	66.6122	35.1563	65.0543	35.1563	66.6837	35.1563	64.9593	35.1563	66.7194	35.1563	64.883	35.1563	66.7165	35.1563	64.8265	35.1563	66.6739	35.1563	64.7906	35.1563	66.5932	35.1563	64.7763	35.1563	66.4784	35.1563	64.784	35.1563	66.3355	35.1563	64.8144	35.1563	66.1717	35.1563	64.8678	35.1563	65.995	35.1563	64.9443	35.1563	65.8133	35.1563	65.0434	35.1563	65.6338	35.1563	65.1642	35.1563	65.4626	35.1563	65.3048
36.6211	67.0886	36.6211	66.9293	36.6211	67.2463	36.6211	66.7732	36.6211	67.3972	36.6211	66.6241	36.6211	67.5354	36.6211	66.4853	36.6211	67.6548	36.6211	66.3595	36.6211	67.7495	36.6211	66.2488	36.6211	67.8138	36.6211	66.1549	36.6211	67.8436	36.6211	66.0792	36.6211	67.8362	36.6211	66.0229	36.6211	67.791	36.6211	65.9867	36.6211	67.7098	36.6211	65.9716	36.6211	67.5967	36.6211	65.978	36.6211	67.4575	36.6211	66.0064	36.6211	67.2993	36.6211	66.057	36.6211	67.1298	36.6211	66.1297	36.6211	66.9562	36.6211	66.224	36.6211	66.7852	36.6211	66.3388	36.6211	66.6224	36.6211	66.4725
38.0859	68.1695	38.0859	68.0136	38.0859	68.3232	38.0859	67.8603	38.0859	68.4695	38.0859	67.7133	38.0859	68.6028	38.0859	67.5763	38.0859	68.7171	38.0859	67.4519	38.0859	68.8068	38.0859	67.3423	38.0859	68.8668	38.0859	67.2495	38.0859	68.8931	38.0859	67.1748	38.0859	68.8833	38.0859	67.1193	38.0859	68.8371	38.0859	67.084	38.0859	68.7565	38.0859	67.0695	38.0859	68.6454	38.0859	67.0763	38.0859	68.5097	38.0859	67.1045	38.0859	68.3562	38.0859	67.1543	38.0859	68.1921	38.0859	67.2254	38.0859	68.0245	38.0859	67.3172	38.0859	67.8595	38.0859	67.4285	38.0859	67.7025	38.0859	67.5578
39.5508	69.2159	39.5508	69.0628	39.5508	69.3658	39.5508	68.9111	39.5508	69.5075	39.5508	68.7648	39.5508	69.6356	39.5508	68.6272	39.5508	69.7443	39.5508	68.5013	39.5508	69.8282	39.5508	68.3894	39.5508	69.8825	39.5508	68.2934	39.5508	69.9034	39.5508	68.2148	39.5508	69.8888	39.5508	68.1549	39.5508	69.8385	39.5508	68.1147	39.5508	69.7543	39.5508	68.0949	39.5508	69.6403	39.5508	68.0961	39.5508	69.5022	39.5508	68.1187	39.5508	69.3467	39.5508	68.163	39.5508	69.1812	39.5508	68.2288	39.5508	69.0128	39.5508	68.3157	39.5508	68.8478	39.5508	68.423	39.5508	68.6919	39.5508	68.5492
41.0156	70.0928	41.0156	69.9433	41.0156	70.2387	41.0156	69.7949	41.0156	70.3761	41.0156	69.6515	41.0156	70.4995	41.0156	69.5168	41.0156	70.6036	41.0156	69.3936	41.0156	70.6832	41.0156	69.2845	41.0156	70.7338	41.0156	69.1915	41.0156	70.7519	41.0156	69.1162	41.0156	70.7358	41.0156	69.0596	41.0156	70.6854	41.0156	69.0226	41.0156	70.6029	41.0156	69.0058	41.0156	70.4922	41.0156	69.0094	41.0156	70.3589	41.0156	69.0334	41.0156	70.2096	41.0156	69.0777	41.0156	70.0511	41.0156	69.1421	41.0156	69.8903	41.0156	69.2261	41.0156	69.7332	41.0156	69.3288	41.0156	69.5848	41.0156	69.449
42.4805	71.0087	42.4805	70.8631	42.4805	71.1502	42.4805	70.7176	42.4805	71.2828	42.4805	70.5763	42.4805	71.4015	42.4805	70.4424	42.4805	71.5014	42.4805	70.3189	42.4805	71.5776	42.4805	70.2084	42.4805	71.6262	42.4805	70.1129	42.4805	71.644	42.4805	70.0341	42.4805	71.6295	42.4805	69.9734	42.4805	71.5826	42.4805	69.9319	42.4805	71.5051	42.4805	69.9106	42.4805	71.4004	42.4805	69.9102	42.4805	71.273	42.4805	69.9313	42.4805	71.1285	42.4805	69.9743	42.4805	70.9729	42.4805	70.0393	42.4805	70.8123	42.4805	70.1259	42.4805	70.6529	42.4805	70.2331	42.4805	70.5001	42.4805	70.3588
43.9453	71.8195	43.9453	71.6786	43.9453	71.9556	43.9453	71.5374	43.9453	72.0823	43.9453	71.3998	43.9453	72.1944	43.9453	71.2695	43.9453	72.2872	43.9453	71.1495	43.9453	72.3561	43.9453	71.0424	43.9453	72.3972	43.9453	70.9502	43.9453	72.408	43.9453	70.8747	43.9453	72.3871	43.9453	70.8172	43.9453	72.335	43.9453	70.7786	43.9453	72.2541	43.9453	70.7595	43.9453	72.1482	43.9453	70.7602	43.9453	72.0225	43.9453	70.781	43.9453	71.8827	43.9453	70.8217	43.9453	71.7351	43.9453	70.882	43.9453	71.5853	43.9453	70.9612	43.9453	71.4386	43.9453	71.0583	43.9453	71.2995	43.9453	71.1718
45.4102	72.5298	45.4102	72.3925	45.4102	72.6608	45.4102	72.2532	45.4102	72.7809	45.4102	72.1161	45.4102	72.8853	45.4102	71.9847	45.4102	72.9695	45.4102	71.8623	45.4102	73.0293	45.4102	71.7517	45.4102	73.0613	45.4102	71.6552	45.4102	73.0633	45.4102	71.5749	45.4102	73.0344	45.4102	71.5121	45.4102	72.9756	45.4102	71.468	45.4102	72.8895	45.4102	71.4435	45.4102	72.7802	45.4102	71.4389	45.4102	72.6528	45.4102	71.4544	45.4102	72.5132	45.4102	71.49	45.4102	72.3672	45.4102	71.5452	45.4102	72.2204	45.4102	71.6195	45.4102	72.0776	45.4102	71.7116	45.4102	71.9431	45.4102	71.8202
46.875	73.2217	46.875	73.0842	46.875	73.352	46.875	72.9439	46.875	73.4705	46.875	72.8047	46.875	73.5726	46.875	72.6702	46.875	73.6535	46.875	72.5438	46.875	73.7093	46.875	72.4282	46.875	73.7364	46.875	72.3258	46.875	73.7328	46.875	72.2388	46.875	73.6975	46.875	72.1686	46.875	73.6317	46.875	72.1168	46.875	73.538	46.875	72.0842	46.875	73.4209	46.875	72.0716	46.875	73.2856	46.875	72.0795	46.875	73.1384	46.875	72.1081	46.875	72.9855	46.875	72.1574	46.875	72.8327	46.875	72.2271	46.875	72.6853	46.875	72.3164	46.875	72.5479	46.875	72.424
48.3398	73.735	48.3398	73.5996	48.3398	73.8634	48.3398	73.4615	48.3398	73.9801	48.3398	73.3246	48.3398	74.0805	48.3398	73.1925	48.3398	74.16	48.3398	73.0682	48.3398	74.2144	48.3398	72.9544	48.3398	74.2403	48.3398	72.8534	48.3398	74.2354	48.3398	72.767	48.3398	74.1988	48.3398	72.6969	48.3398	74.1316	48.3398	72.6443	48.3398	74.0366	48.3398	72.6101	48.3398	73.918	48.3398	72.5951	48.3398	73.7815	48.3398	72.5999	48.3398	73.6334	48.3398	72.6249	48.3398	73.4802	48.3398	72.6703	48.3398	73.3279	48.3398	72.7359	48.3398	73.1818	48.3398	72.8213	48.3398	73.0465	48.3398	72.9255
51.2695	74.7308	51.2695	74.6007	51.2695	74.8545	51.2695	74.4686	51.2695	74.9673	51.2695	74.3385	51.2695	75.0647	51.2695	74.2144	51.2695	75.1424	51.2695	74.0993	51.2695	75.1967	51.2695	73.9963	51.2695	75.2247	51.2695	73.9075	51.2695	75.2246	51.2695	73.8349	51.2695	75.196	51.2695	73.7798	51.2695	75.1403	51.2695	73.743	51.2695	75.06	51.2695	73.7251	51.2695	74.9593	51.2695	73.726	51.2695	74.8432	51.2695	73.7456	51.2695	74.717	51.2695	73.7833	51.2695	74.5859	51.2695	73.8382	51.2695	74.4545	51.2695	73.9094	51.2695	74.3269	51.2695	73.9955	51.2695	74.2062	51.2695	74.095
52.7344	75.1709	52.7344	75.041	52.7344	75.294	52.7344	74.9086	52.7344	75.4057	52.7344	74.7781	52.7344	75.5017	52.7344	74.6533	52.7344	75.5777	52.7344	74.5377	52.7344	75.6304	52.7344	74.4342	52.7344	75.6571	52.7344	74.3454	52.7344	75.6563	52.7344	74.2732	52.7344	75.6279	52.7344	74.2189	52.7344	75.5732	52.7344	74.1836	52.7344	75.495	52.7344	74.1674	52.7344	75.3973	52.7344	74.1704	52.7344	75.2847	52.7344	74.1922	52.7344	75.162	52.7344	74.232	52.7344	75.0342	52.7344	74.2889	52.7344	74.9054	52.7344	74.3616	52.7344	74.7796	52.7344	74.4488	52.7344	74.6599	52.7344	74.5488
54.1992	75.4794	54.1992	75.3543	54.1992	75.5977	54.1992	75.2269	54.1992	75.705	54.1992	75.1013	54.1992	75.7969	54.1992	74.9812	54.1992	75.8694	54.1992	74.8701	54.1992	75.9192	54.1992	74.771	54.1992	75.9439	54.1992	74.6861	54.1992	75.9422	54.1992	74.6175	54.1992	75.9141	54.1992	74.5665	54.1992	75.8612	54.1992	74.5338	54.1992	75.7863	54.1992	74.5197	54.1992	75.6932	54.1992	74.524	54.1992	75.5863	54.1992	74.5463	54.1992	75.4703	54.1992	74.5857	54.1992	75.3496	54.1992	74.6411	54.1992	75.2281	54.1992	74.7114	54.1992	75.1093	54.1992	74.795	54.1992	74.9959	54.1992	74.8904
55.6641	75.7807	55.6641	75.6535	55.6641	75.8989	55.6641	75.5219	55.6641	76.0037	55.6641	75.3902	55.6641	76.091	55.6641	75.2624	55.6641	76.1569	55.6641	75.1426	55.6641	76.1984	55.6641	75.0339	55.6641	76.2136	55.6641	74.9394	55.6641	76.2016	55.6641	74.8613	55.6641	76.1629	55.6641	74.8016	55.6641	76.0999	55.6641	74.7612	55.6641	76.0157	55.6641	74.7407	55.6641	75.9149	55.6641	74.7402	55.6641	75.802	55.6641	74.7589	55.6641	75.6819	55.6641	74.796	55.6641	75.5587	55.6641	74.8502	55.6641	75.436	55.6641	74.9197	55.6641	75.3168	55.6641	75.003	55.6641	75.2035	55.6641	75.0983
58.5938	76.4521	58.5938	76.3266	58.5938	76.5676	58.5938	76.1955	58.5938	76.6687	58.5938	76.0629	58.5938	76.7514	58.5938	75.9329	58.5938	76.8118	58.5938	75.8091	58.5938	76.8469	58.5938	75.6947	58.5938	76.8547	58.5938	75.5927	58.5938	76.8343	58.5938	75.5051	58.5938	76.7861	58.5938	75.434	58.5938	76.7121	58.5938	75.3804	58.5938	76.6158	58.5938	75.3454	58.5938	76.5016	58.5938	75.3294	58.5938	76.3747	58.5938	75.3324	58.5938	76.2403	58.5938	75.3543	58.5938	76.1038	58.5938	75.3946	58.5938	75.9698	58.5938	75.4528	58.5938	75.8422	58.5938	75.528	58.5938	75.7244	58.5938	75.619
60.0586	76.6344	60.0586	76.5096	60.0586	76.7492	60.0586	76.379	60.0586	76.8495	60.0586	76.2469	60.0586	76.9314	60.0586	76.1173	60.0586	76.9911	60.0586	75.9939	60.0586	77.0258	60.0586	75.88	60.0586	77.0335	60.0586	75.7785	60.0586	77.0133	60.0586	75.6916	60.0586	76.9659	60.0586	75.6213	60.0586	76.8933	60.0586	75.5687	60.0586	76.7987	60.0586	75.5347	60.0586	76.6865	60.0586	75.5197	60.0586	76.5616	60.0586	75.5237	60.0586	76.4292	60.0586	75.5465	60.0586	76.2944	60.0586	75.5876	60.0586	76.1617	60.0586	75.6463	60.0586	76.0352	60.0586	75.7218	60.0586	75.918	60.0586	75.8129
62.9883	77.1212	62.9883	76.9985	62.9883	77.2343	62.9883	76.8706	62.9883	77.3336	62.9883	76.7417	62.9883	77.415	62.9883	76.616	62.9883	77.4752	62.9883	76.4972	62.9883	77.5114	62.9883	76.3885	62.9883	77.5219	62.9883	76.293	62.9883	77.5061	62.9883	76.2128	62.9883	77.4647	62.9883	76.1497	62.9883	77.3996	62.9883	76.1047	62.9883	77.3141	62.9883	76.0784	62.9883	77.212	62.9883	76.071	62.9883	77.0979	62.9883	76.0822	62.9883	76.9761	62.9883	76.1114	62.9883	76.851	62.9883	76.1578	62.9883	76.7266	62.9883	76.2206	62.9883	76.6063	62.9883	76.2984	62.9883	76.4932	62.9883	76.3899
64.4531	77.3376	64.4531	77.2149	64.4531	77.4508	64.4531	77.0872	64.4531	77.5501	64.4531	76.9587	64.4531	77.6317	64.4531	76.8338	64.4531	77.6921	64.4531	76.7162	64.4531	77.7286	64.4531	76.6094	64.4531	77.7396	64.4531	76.5163	64.4531	77.7248	64.4531	76.4391	64.4531	77.6848	64.4531	76.3795	64.4531	77.6218	64.4531	76.3384	64.4531	77.5392	64.4531	76.3163	64.4531	77.4406	64.4531	76.3131	64.4531	77.3306	64.4531	76.3283	64.4531	77.2133	64.4531	76.361	64.4531	77.0928	64.4531	76.4102	64.4531	76.9727	64.4531	76.4747	64.4531	76.8561	64.4531	76.5532	64.4531	76.7458	64.4531	76.6441
67.3828	77.6804	67.3828	77.5574	67.3828	77.7932	67.3828	77.4289	67.3828	77.8915	67.3828	77.2995	67.3828	77.9714	67.3828	77.1735	67.3828	78.0295	67.3828	77.0552	67.3828	78.0634	67.3828	76.9481	67.3828	78.0718	67.3828	76.8555	67.3828	78.0546	67.3828	76.7797	67.3828	78.013	67.3828	76.7224	67.3828	77.9495	67.3828	76.6846	67.3828	77.8676	67.3828	76.6666	67.3828	77.7714	67.3828	76.6678	67.3828	77.6653	67.3828	76.6875	67.3828	77.5533	67.3828	76.7244	67.3828	77.4389	67.3828	76.7769	67.3828	77.3253	67.3828	76.8434	67.3828	77.2148	67.3828	76.9221	67.3828	77.1095	67.3828	77.0114
68.8477	77.7704	68.8477	77.6462	68.8477	77.884	68.8477	77.516	68.8477	77.9827	68.8477	77.3846	68.8477	78.0625	68.8477	77.2565	68.8477	78.1201	68.8477	77.1361	68.8477	78.1532	68.8477	77.027	68.8477	78.1606	68.8477	76.9326	68.8477	78.1422	68.8477	76.8554	68.8477	78.0995	68.8477	76.7972	68.8477	78.0349	68.8477	76.7591	68.8477	77.9522	68.8477	76.7412	68.8477	77.8555	68.8477	76.7431	68.8477	77.7491	68.8477	76.7639	68.8477	77.637	68.8477	76.8022	68.8477	77.5228	68.8477	76.8562	68.8477	77.4093	68.8477	76.9242	68.8477	77.2987	68.8477	77.0042	68.8477	77.1932	68.8477	77.0945
71.7773	78.0917	71.7773	77.9685	71.7773	78.2026	71.7773	77.8377	71.7773	78.297	71.7773	77.7041	71.7773	78.3711	71.7773	77.5726	71.7773	78.4218	71.7773	77.4475	71.7773	78.4471	71.7773	77.3331	71.7773	78.4463	71.7773	77.233	71.7773	78.4199	71.7773	77.15	71.7773	78.3698	71.7773	77.0862	71.7773	78.2992	71.7773	77.043	71.7773	78.212	71.7773	77.0209	71.7773	78.1126	71.7773	77.0195	71.7773	78.0055	71.7773	77.0378	71.7773	77.8942	71.7773	77.0744	71.7773	77.782	71.7773	77.1273	71.7773	77.671	71.7773	77.1945	71.7773	77.563	71.7773	77.2736	71.7773	77.4598	71.7773	77.3627
74.707	78.514	74.707	78.3931	74.707	78.6218	74.707	78.2636	74.707	78.7122	74.707	78.1304	74.707	78.7815	74.707	77.9983	74.707	78.8267	74.707	77.8716	74.707	78.8459	74.707	77.7546	74.707	78.8385	74.707	77.6508	74.707	78.8051	74.707	77.5633	74.707	78.7478	74.707	77.4942	74.707	78.6699	74.707	77.4449	74.707	78.5757	74.707	77.4161	74.707	78.4699	74.707	77.4075	74.707	78.357	74.707	77.4185	74.707	78.2412	74.707	77.4477	74.707	78.1258	74.707	77.4935	74.707	78.0134	74.707	77.5539	74.707	77.9059	74.707	77.6271	74.707	77.8046	74.707	77.7112
77.6367	78.6871	77.6367	78.5685	77.6367	78.7929	77.6367	78.4419	77.6367	78.8817	77.6367	78.312	77.6367	78.9498	77.6367	78.1838	77.6367	78.9945	77.6367	78.0616	77.6367	79.014	77.6367	77.9499	77.6367	79.0079	77.6367	77.852	77.6367	78.977	77.6367	77.7709	77.6367	78.9235	77.6367	77.7085	77.6367	78.8508	77.6367	77.666	77.6367	78.763	77.6367	77.6437	77.6367	78.6646	77.6367	77.6412	77.6367	78.5599	77.6367	77.6572	77.6367	78.4523	77.6367	77.6902	77.6367	78.345	77.6367	77.7383	77.6367	78.2399	77.6367	77.7994	77.6367	78.1387	77.6367	77.8717	77.6367	78.0428	77.6367	77.9534
79.1016	78.6775	79.1016	78.5592	79.1016	78.7831	79.1016	78.4326	79.1016	78.8714	79.1016	78.3028	79.1016	78.939	79.1016	78.1747	79.1016	78.983	79.1016	78.0528	79.1016	79.0018	79.1016	77.9415	79.1016	78.995	79.1016	77.8444	79.1016	78.9637	79.1016	77.7643	79.1016	78.9102	79.1016	77.7032	79.1016	78.838	79.1016	77.6622	79.1016	78.7513	79.1016	77.6415	79.1016	78.6544	79.1016	77.6406	79.1016	78.5517	79.1016	77.6581	79.1016	78.4464	79.1016	77.6924	79.1016	78.3414	79.1016	77.7414	79.1016	78.2385	79.1016	77.803	79.1016	78.1393	79.1016	77.8753	79.1016	78.0449	79.1016	77.9565
82.0313	78.8252	82.0313	78.7079	82.0313	78.9293	82.0313	78.5823	82.0313	79.0161	82.0313	78.4532	82.0313	79.0819	82.0313	78.3256	82.0313	79.1242	82.0313	78.2042	82.0313	79.1413	82.0313	78.0933	82.0313	79.1331	82.0313	77.9967	82.0313	79.1007	82.0313	77.9173	82.0313	79.0465	82.0313	77.8571	82.0313	78.9743	82.0313	77.8172	82.0313	78.8883	82.0313	77.7978	82.0313	78.7931	82.0313	77.7983	82.0313	78.6927	82.0313	77.8172	82.0313	78.5907	82.0313	77.8527	82.0313	78.4892	82.0313	77.9026	82.0313	78.3901	82.0313	77.9646	82.0313	78.2943	82.0313	78.0365	82.0313	78.2027	82.0313	78.1164
84.9609	79.0562	84.9609	78.9402	84.9609	79.1594	84.9609	78.8164	84.9609	79.2457	84.9609	78.6899	84.9609	79.3115	84.9609	78.5658	84.9609	79.3543	84.9609	78.4492	84.9609	79.373	84.9609	78.3445	84.9609	79.3675	84.9609	78.2556	84.9609	79.3394	84.9609	78.1854	84.9609	79.2914	84.9609	78.1358	84.9609	79.2273	84.9609	78.1076	84.9609	79.1514	84.9609	78.1005	84.9609	79.0679	84.9609	78.1133	84.9609	78.9806	84.9609	78.1439	84.9609	78.8923	84.9609	78.1898	84.9609	78.8045	84.9609	78.2479	84.9609	78.7181	84.9609	78.3155	84.9609	78.6332	84.9609	78.3897	84.9609	78.5498	84.9609	78.4683
87.8906	79.1238	87.8906	79.0051	87.8906	79.2259	87.8906	78.8749	87.8906	79.307	87.8906	78.7388	87.8906	79.3639	87.8906	78.6026	87.8906	79.3945	87.8906	78.4721	87.8906	79.3983	87.8906	78.3527	87.8906	79.3764	87.8906	78.2491	87.8906	79.3315	87.8906	78.1649	87.8906	79.2675	87.8906	78.1028	87.8906	79.1893	87.8906	78.064	87.8906	79.1019	87.8906	78.0485	87.8906	79.0098	87.8906	78.0551	87.8906	78.9167	87.8906	78.0814	87.8906	78.8247	87.8906	78.1245	87.8906	78.7351	87.8906	78.1811	87.8906	78.6479	87.8906	78.2476	87.8906	78.563	87.8906	78.3211	87.8906	78.48	87.8906	78.3991
90.8203	79.2874	90.8203	79.1701	90.8203	79.3871	90.8203	79.0401	90.8203	79.4652	90.8203	78.9025	90.8203	79.5186	90.8203	78.7632	90.8203	79.5455	90.8203	78.6279	90.8203	79.5455	90.8203	78.5019	90.8203	79.5195	90.8203	78.3902	90.8203	79.4701	90.8203	78.297	90.8203	79.4011	90.8203	78.2252	90.8203	79.3171	90.8203	78.1768	90.8203	79.2232	90.8203	78.152	90.8203	79.1239	90.8203	78.1501	90.8203	79.0232	90.8203	78.169	90.8203	78.9236	90.8203	78.2059	90.8203	78.8265	90.8203	78.2577	90.8203	78.7327	90.8203	78.3212	90.8203	78.6422	90.8203	78.3933	90.8203	78.5551	90.8203	78.4719
95.2148	79.4128	95.2148	79.2936	95.2148	79.5148	95.2148	79.1622	95.2148	79.5951	95.2148	79.0239	95.2148	79.6505	95.2148	78.8844	95.2148	79.6789	95.2148	78.7491	95.2148	79.6797	95.2148	78.623	95.2148	79.654	95.2148	78.5105	95.2148	79.6044	95.2148	78.4152	95.2148	79.5348	95.2148	78.3397	95.2148	79.4501	95.2148	78.2857	95.2148	79.3551	95.2148	78.254	95.2148	79.2543	95.2148	78.2443	95.2148	79.1513	95.2148	78.2559	95.2148	79.048	95.2148	78.2869	95.2148	78.9455	95.2148	78.3353	95.2148	78.8446	95.2148	78.3986	95.2148	78.7457	95.2148	78.4738	95.2148	78.6497	95.2148	78.5584
98.1445	79.4849	98.1445	79.3676	98.1445	79.5839	98.1445	79.2372	98.1445	79.6601	98.1445	79.0997	98.1445	79.7102	98.1445	78.9611	98.1445	79.7323	98.1445	78.8275	98.1445	79.7262	98.1445	78.7043	98.1445	79.6934	98.1445	78.5965	98.1445	79.637	98.1445	78.5077	98.1445	79.562	98.1445	78.4405	98.1445	79.4737	98.1445	78.3962	98.1445	79.3782	98.1445	78.3747	98.1445	79.2803	98.1445	78.3748	98.1445	79.1841	98.1445	78.3943	98.1445	79.0915	98.1445	78.4304	98.1445	79.003	98.1445	78.4802	98.1445	78.9184	98.1445	78.5404	98.1445	78.8368	98.1445	78.6081	98.1445	78.7577	98.1445	78.6811
101.074	79.5896	101.074	79.4707	101.074	79.6889	101.074	79.3375	101.074	79.7641	101.074	79.1958	101.074	79.8119	101.074	79.052	101.074	79.8303	101.074	78.9121	101.074	79.8189	101.074	78.782	101.074	79.7793	101.074	78.6667	101.074	79.7146	101.074	78.5706	101.074	79.6297	101.074	78.4964	101.074	79.5307	101.074	78.4459	101.074	79.4239	101.074	78.4191	101.074	79.3155	101.074	78.415	101.074	79.2102	101.074	78.4311	101.074	79.111	101.074	78.4646	101.074	79.0188	101.074	78.5118	101.074	78.9333	101.074	78.5693	101.074	78.8531	101.074	78.6341	101.074	78.7768	101.074	78.7037
105.469	79.606	105.469	79.4879	105.469	79.704	105.469	79.3549	105.469	79.7776	105.469	79.213	105.469	79.8235	105.469	79.0686	105.469	79.8404	105.469	78.928	105.469	79.8283	105.469	78.7975	105.469	79.7891	105.469	78.6825	105.469	79.7267	105.469	78.5873	105.469	79.6461	105.469	78.5153	105.469	79.5534	105.469	78.4682	105.469	79.4549	105.469	78.4462	105.469	79.3559	105.469	78.4481	105.469	79.2605	105.469	78.4714	105.469	79.1705	105.469	78.5127	105.469	79.0861	105.469	78.568	105.469	79.0063	105.469	78.633	105.469	78.9292	105.469	78.7041	105.469	78.8534	105.469	78.7782
108.398	79.7456	108.398	79.6308	108.398	79.8394	108.398	79.5003	108.398	79.908	108.398	79.3601	108.398	79.9484	108.398	79.2165	108.398	79.9592	108.398	79.0761	108.398	79.9408	108.398	78.945	108.398	79.8953	108.398	78.8287	108.398	79.8266	108.398	78.7316	108.398	79.7401	108.398	78.657	108.398	79.642	108.398	78.6065	108.398	79.5387	108.398	78.5803	108.398	79.4357	108.398	78.5771	108.398	79.3372	108.398	78.5944	108.398	79.2452	108.398	78.6288	108.398	79.1602	108.398	78.6766	108.398	79.0812	108.398	78.734	108.398	79.0065	108.398	78.7977	108.398	78.9348	108.398	78.8651
112.793	79.7533	112.793	79.6339	112.793	79.8509	112.793	79.4983	112.793	79.9224	112.793	79.3529	112.793	79.9644	112.793	79.2042	112.793	79.9756	112.793	79.0592	112.793	79.9561	112.793	78.9242	112.793	79.9084	112.793	78.805	112.793	79.8365	112.793	78.7061	112.793	79.7462	112.793	78.6308	112.793	79.6443	112.793	78.5808	112.793	79.5375	112.793	78.5563	112.793	79.432	112.793	78.5557	112.793	79.332	112.793	78.5763	112.793	79.2397	112.793	78.6144	112.793	79.1553	112.793	78.6659	112.793	79.0773	112.793	78.7266	112.793	79.0036	112.793	78.7929	112.793	78.9322	112.793	78.8619
117.188	79.7731	117.188	79.6525	117.188	79.8712	117.188	79.5153	117.188	79.9422	117.188	79.3681	117.188	79.9829	117.188	79.2182	117.188	79.9922	117.188	79.0729	117.188	79.9708	117.188	78.939	117.188	79.9214	117.188	78.8227	117.188	79.8488	117.188	78.7285	117.188	79.7593	117.188	78.6596	117.188	79.6599	117.188	78.6173	117.188	79.5576	117.188	78.601	117.188	79.4582	117.188	78.6086	117.188	79.3656	117.188	78.6367	117.188	79.2814	117.188	78.681	117.188	79.2052	117.188	78.737	117.188	79.1348	117.188	78.8004	117.188	79.0677	117.188	78.8672	117.188	79.0015	117.188	78.9347
120.117	79.7473	120.117	79.6247	120.117	79.8457	120.117	79.4838	120.117	79.9151	120.117	79.3317	120.117	79.9528	120.117	79.1761	120.117	79.9579	120.117	79.0251	120.117	79.9314	120.117	78.8863	120.117	79.8771	120.117	78.7667	120.117	79.8003	120.117	78.6719	120.117	79.7082	120.117	78.6054	120.117	79.6086	120.117	78.5687	120.117	79.5089	120.117	78.561	120.117	79.4151	120.117	78.5795	120.117	79.3308	120.117	78.6195	120.117	79.2568	120.117	78.6756	120.117	79.1915	120.117	78.7419	120.117	79.1319	120.117	78.8127	120.117	79.0741	120.117	78.8836	120.117	79.0146	120.117	78.9513
124.512	79.9222	124.512	79.7985	124.512	80.0196	124.512	79.6545	124.512	80.0862	124.512	79.497	124.512	80.119	124.512	79.3335	124.512	80.1168	124.512	79.172	124.512	80.0808	124.512	79.02	124.512	80.0142	124.512	78.8848	124.512	79.9227	124.512	78.7725	124.512	79.8138	124.512	78.6875	124.512	79.696	124.512	78.6323	124.512	79.5778	124.512	78.6073	124.512	79.4662	124.512	78.6105	124.512	79.3659	124.512	78.6379	124.512	79.2785	124.512	78.6843	124.512	79.2029	124.512	78.7437	124.512	79.1357	124.512	78.8102	124.512	79.0728	124.512	78.8788	124.512	79.0104	124.512	78.946
128.906	79.8626	128.906	79.7358	128.906	79.9625	128.906	79.5883	128.906	80.0309	128.906	79.4267	128.906	80.0648	128.906	79.2587	128.906	80.0631	128.906	79.0921	128.906	80.0266	128.906	78.9346	128.906	79.9586	128.906	78.7934	128.906	79.8646	128.906	78.6746	128.906	79.7521	128.906	78.5828	128.906	79.6294	128.906	78.521	128.906	79.5051	128.906	78.4896	128.906	79.3864	128.906	78.4872	128.906	79.2785	128.906	78.5103	128.906	79.1832	128.906	78.5538	128.906	79.0999	128.906	78.6119	128.906	79.0256	128.906	78.6787	128.906	78.9564	128.906	78.7492	128.906	78.8886	128.906	78.8197
133.301	79.7608	133.301	79.633	133.301	79.862	133.301	79.4846	133.301	79.9316	133.301	79.3231	133.301	79.9665	133.301	79.1563	133.301	79.9657	133.301	78.9923	133.301	79.9304	133.301	78.839	133.301	79.8642	133.301	78.7035	133.301	79.7731	133.301	78.5917	133.301	79.6647	133.301	78.5076	133.301	79.5476	133.301	78.4535	133.301	79.4302	133.301	78.4293	133.301	79.3192	133.301	78.4332	133.301	79.2189	133.301	78.4613	133.301	79.1306	133.301	78.5087	133.301	79.053	133.301	78.5696	133.301	78.9829	133.301	78.6384	133.301	78.9163	133.301	78.7101	133.301	78.8498	133.301	78.7812
139.16	79.732	139.16	79.6	139.16	79.8351	139.16	79.4454	139.16	79.9041	139.16	79.276	139.16	79.9362	139.16	79.1003	139.16	79.9306	139.16	78.9274	139.16	79.8889	139.16	78.7658	139.16	79.8154	139.16	78.6237	139.16	79.7167	139.16	78.5077	139.16	79.6012	139.16	78.4225	139.16	79.4783	139.16	78.3706	139.16	79.3571	139.16	78.3517	139.16	79.245	139.16	78.3632	139.16	79.1464	139.16	78.4002	139.16	79.0624	139.16	78.4564	139.16	78.9913	139.16	78.5249	139.16	78.9286	139.16	78.5991	139.16	78.8693	139.16	78.6733	139.16	78.8087	139.16	78.7437
143.555	79.6932	143.555	79.5585	143.555	79.7963	143.555	79.399	143.555	79.8629	143.555	79.2229	143.555	79.89	143.555	79.0391	143.555	79.8769	143.555	78.8572	143.555	79.8256	143.555	78.6864	143.555	79.7411	143.555	78.5354	143.555	79.6308	143.555	78.4115	143.555	79.5041	143.555	78.32	143.555	79.3716	143.555	78.2635	143.555	79.2432	143.555	78.2422	143.555	79.1271	143.555	78.2532	143.555	79.0279	143.555	78.2915	143.555	78.9462	143.555	78.3503	143.555	78.8791	143.555	78.422	143.555	78.8213	143.555	78.499	143.555	78.7666	143.555	78.5751	143.555	78.7093	143.555	78.6458
147.949	79.6217	147.949	79.4783	147.949	79.7318	147.949	79.3087	147.949	79.803	147.949	79.1214	147.949	79.832	147.949	78.9258	147.949	79.8178	147.949	78.7319	147.949	79.7622	147.949	78.5495	147.949	79.6697	147.949	78.3879	147.949	79.548	147.949	78.2546	147.949	79.4072	147.949	78.1553	147.949	79.259	147.949	78.0929	147.949	79.115	147.949	78.0675	147.949	78.985	147.949	78.0763	147.949	78.8748	147.949	78.114	147.949	78.7857	147.949	78.1735	147.949	78.7145	147.949	78.2469	147.949	78.6549	147.949	78.3262	147.949	78.5995	147.949	78.4045	147.949	78.5416	147.949	78.477
153.809	79.5415	153.809	79.3955	153.809	79.6523	153.809	79.2211	153.809	79.7227	153.809	79.0267	153.809	79.75	153.809	78.8221	153.809	79.7334	153.809	78.6177	153.809	79.6751	153.809	78.4241	153.809	79.5797	153.809	78.2513	153.809	79.454	153.809	78.1077	153.809	79.3075	153.809	77.9994	153.809	79.1508	153.809	77.9296	153.809	78.9948	153.809	77.8983	153.809	78.8495	153.809	77.9022	153.809	78.7221	153.809	77.9356	153.809	78.6161	153.809	77.9908	153.809	78.5305	153.809	78.0598	153.809	78.4607	153.809	78.1344	153.809	78.3997	153.809	78.2083	153.809	78.3403	153.809	78.2773
159.668	79.5424	159.668	79.4005	159.668	79.648	159.668	79.2286	159.668	79.7126	159.668	79.0351	159.668	79.7343	159.668	78.8297	159.668	79.7133	159.668	78.6227	159.668	79.6527	159.668	78.4253	159.668	79.5581	159.668	78.2479	159.668	79.4374	159.668	78.0996	159.668	79.3	159.668	77.9875	159.668	79.1559	159.668	77.9155	159.668	79.0145	159.668	77.884	159.668	78.8834	159.668	77.8901	159.668	78.7673	159.668	77.9278	159.668	78.668	159.668	77.9889	159.668	78.5839	159.668	78.0648	159.668	78.511	159.668	78.1469	159.668	78.4438	159.668	78.2286	159.668	78.3767	159.668	78.3056
165.527	79.5124	165.527	79.3685	165.527	79.6182	165.527	79.1935	165.527	79.6809	165.527	78.9961	165.527	79.6986	165.527	78.7866	165.527	79.6719	165.527	78.5762	165.527	79.6047	165.527	78.3764	165.527	79.5041	165.527	78.1983	165.527	79.3799	165.527	78.0515	165.527	79.2438	165.527	77.9435	165.527	79.1076	165.527	77.8785	165.527	78.9815	165.527	77.8571	165.527	78.8724	165.527	77.8763	165.527	78.7828	165.527	77.9298	165.527	78.7109	165.527	78.0091	165.527	78.6513	165.527	78.1043	165.527	78.5965	165.527	78.2057	165.527	78.539	165.527	78.3046	165.527	78.4729	165.527	78.3948
171.387	79.4774	171.387	79.327	171.387	79.5856	171.387	79.1421	171.387	79.6463	171.387	78.9325	171.387	79.6569	171.387	78.7096	171.387	79.6179	171.387	78.4856	171.387	79.5335	171.387	78.2737	171.387	79.4116	171.387	78.0863	171.387	79.2634	171.387	77.9344	171.387	79.103	171.387	77.8263	171.387	78.9452	171.387	77.7665	171.387	78.8035	171.387	77.7547	171.387	78.6875	171.387	77.7865	171.387	78.6013	171.387	77.8537	171.387	78.5426	171.387	77.9454	171.387	78.5036	171.387	78.0497	171.387	78.4734	171.387	78.1553	171.387	78.4407	171.387	78.2523	171.387	78.396	171.387	78.3336
177.246	79.4598	177.246	79.3125	177.246	79.5632	177.246	79.129	177.246	79.6176	177.246	78.9186	177.246	79.6205	177.246	78.6924	177.246	79.5727	177.246	78.4627	177.246	79.4781	177.246	78.2424	177.246	79.3443	177.246	78.0439	177.246	79.1825	177.246	77.8786	177.246	79.0063	177.246	77.7556	177.246	78.831	177.246	77.6801	177.246	78.6708	177.246	77.6532	177.246	78.5367	177.246	77.6713	177.246	78.4345	177.246	77.7264	177.246	78.3634	177.246	77.8077	177.246	78.3169	177.246	77.9027	177.246	78.2844	177.246	77.9994	177.246	78.2539	177.246	78.0875	177.246	78.2149	177.246	78.1602
183.105	79.2713	183.105	79.1116	183.105	79.3825	183.105	78.9111	183.105	79.4401	183.105	78.6798	183.105	79.4419	183.105	78.4297	183.105	79.3887	183.105	78.1748	183.105	79.285	183.105	77.9297	183.105	79.1392	183.105	77.7097	183.105	78.9633	183.105	77.5283	183.105	78.7726	183.105	77.3964	183.105	78.584	183.105	77.3204	183.105	78.4136	183.105	77.3012	183.105	78.2739	183.105	77.3338	183.105	78.1713	183.105	77.4084	183.105	78.1047	183.105	77.5115	183.105	78.0659	183.105	77.6279	183.105	78.0421	183.105	77.7432	183.105	78.0187	183.105	77.8453	183.105	77.9829	183.105	77.9261
188.965	79.1961	188.965	79.0332	188.965	79.3113	188.965	78.8296	188.965	79.3735	188.965	78.5941	188.965	79.3794	188.965	78.3368	188.965	79.3285	188.965	78.0694	188.965	79.2232	188.965	77.8043	188.965	79.0694	188.965	77.5548	188.965	78.8772	188.965	77.3343	188.965	78.6602	188.965	77.1547	188.965	78.4354	188.965	77.0252	188.965	78.2206	188.965	76.9512	188.965	78.0315	188.965	76.9325	188.965	77.8783	188.965	76.9633	188.965	77.7632	188.965	77.0331	188.965	77.6804	188.965	77.1279	188.965	77.6181	188.965	77.2331	188.965	77.5625	188.965	77.3357	188.965	77.5013	188.965	77.4264
196.289	79.0529	196.289	78.8983	196.289	79.1604	196.289	78.7039	196.289	79.2157	196.289	78.4792	196.289	79.2163	196.289	78.2354	196.289	79.1628	196.289	77.9851	196.289	79.0588	196.289	77.7422	196.289	78.9115	196.289	77.5204	196.289	78.7309	196.289	77.3326	196.289	78.5302	196.289	77.189	196.289	78.3245	196.289	77.096	196.289	78.1298	196.289	77.0545	196.289	77.9604	196.289	77.0605	196.289	77.8263	196.289	77.1055	196.289	77.7305	196.289	77.1779	196.289	77.6681	196.289	77.2652	196.289	77.6277	196.289	77.3552	196.289	77.5951	196.289	77.4378	196.289	77.5574	196.289	77.506
203.613	78.9491	203.613	78.8082	203.613	79.0381	203.613	78.6228	203.613	79.0712	203.613	78.4022	203.613	79.0473	203.613	78.1579	203.613	78.9692	203.613	77.9032	203.613	78.8443	203.613	77.6524	203.613	78.684	203.613	77.421	203.613	78.5032	203.613	77.2238	203.613	78.3185	203.613	77.0738	203.613	78.1456	203.613	76.9803	203.613	77.9969	203.613	76.9467	203.613	77.8796	203.613	76.9697	203.613	77.7954	203.613	77.0396	203.613	77.7407	203.613	77.142	203.613	77.7077	203.613	77.2602	203.613	77.6854	203.613	77.3783	203.613	77.6615	203.613	77.4831	203.613	77.6245	203.613	77.5661
210.938	78.8826	210.938	78.7176	210.938	78.9933	210.938	78.5064	210.938	79.0436	210.938	78.2592	210.938	79.0304	210.938	77.9879	210.938	78.954	210.938	77.7061	210.938	78.8186	210.938	77.4288	210.938	78.633	210.938	77.1718	210.938	78.4108	210.938	76.9508	210.938	78.1699	210.938	76.7798	210.938	77.9318	210.938	76.669	210.938	77.7179	210.938	76.6225	210.938	77.5464	210.938	76.6375	210.938	77.4274	210.938	76.7043	210.938	77.3601	210.938	76.8077	210.938	77.3329	210.938	76.9301	210.938	77.3265	210.938	77.0535	210.938	77.3202	210.938	77.162	210.938	77.2965	210.938	77.2447
218.262	78.7328	218.262	78.5722	218.262	78.8382	218.262	78.3648	218.262	78.8823	218.262	78.1212	218.262	78.862	218.262	77.8537	218.262	78.778	218.262	77.5757	218.262	78.6348	218.262	77.3018	218.262	78.4415	218.262	77.0472	218.262	78.2114	218.262	76.8267	218.262	77.9617	218.262	76.6534	218.262	77.7121	218.262	76.537	218.262	77.4829	218.262	76.4816	218.262	77.2924	218.262	76.4845	218.262	77.1526	218.262	76.5365	218.262	77.0666	218.262	76.6228	218.262	77.027	218.262	76.7258	218.262	77.0173	218.262	76.828	218.262	77.0172	218.262	76.9143	218.262	77.0076	218.262	76.9751
225.586	78.6287	225.586	78.461	225.586	78.7362	225.586	78.242	225.586	78.7774	225.586	77.9833	225.586	78.7502	225.586	77.6987	225.586	78.6566	225.586	77.4037	225.586	78.5039	225.586	77.1156	225.586	78.3047	225.586	76.8524	225.586	78.0764	225.586	76.6323	225.586	77.8399	225.586	76.471	225.586	77.6168	225.586	76.379	225.586	77.4263	225.586	76.3595	225.586	77.2821	225.586	76.4062	225.586	77.1894	225.586	76.505	225.586	77.1447	225.586	76.6364	225.586	77.1359	225.586	76.779	225.586	77.1452	225.586	76.9132	225.586	77.1531	225.586	77.0237	225.586	77.1423	225.586	77.1008
232.91	78.7749	232.91	78.5948	232.91	78.8875	232.91	78.3567	232.91	78.9254	232.91	78.0722	232.91	78.8845	232.91	77.7545	232.91	78.7644	232.91	77.4187	232.91	78.5696	232.91	77.0819	232.91	78.3106	232.91	76.7634	232.91	78.0049	232.91	76.4837	232.91	77.6772	232.91	76.2635	232.91	77.3581	232.91	76.1202	232.91	77.0806	232.91	76.0636	232.91	76.8734	232.91	76.092	232.91	76.7528	232.91	76.192	232.91	76.7168	232.91	76.3399	232.91	76.745	232.91	76.5069	232.91	76.8049	232.91	76.6647	232.91	76.8622	232.91	76.7897	232.91	76.8885	232.91	76.8662
241.699	78.6288	241.699	78.4434	241.699	78.7535	241.699	78.2068	241.699	78.8099	241.699	77.9303	241.699	78.7931	241.699	77.6264	241.699	78.7018	241.699	77.3083	241.699	78.5386	241.699	76.9903	241.699	78.3107	241.699	76.6872	241.699	78.0302	241.699	76.4148	241.699	77.7143	241.699	76.1886	241.699	77.3851	241.699	76.0222	241.699	77.068	241.699	75.9247	241.699	76.7897	241.699	75.8975	241.699	76.5732	241.699	75.9328	241.699	76.4317	241.699	76.014	241.699	76.3631	241.699	76.1188	241.699	76.3495	241.699	76.2236	241.699	76.3625	241.699	76.3077	241.699	76.3729	241.699	76.3581
250.488	78.4043	250.488	78.1947	250.488	78.5436	250.488	77.9256	250.488	78.6053	250.488	77.6101	250.488	78.5855	250.488	77.2635	250.488	78.4853	250.488	76.9024	250.488	78.3105	250.488	76.5448	250.488	78.0723	250.488	76.2099	250.488	77.7871	250.488	75.9176	250.488	77.4753	250.488	75.6875	250.488	77.1603	250.488	75.5363	250.488	76.8662	250.488	75.4738	250.488	76.6154	250.488	75.4983	250.488	76.4251	250.488	75.5954	250.488	76.3032	250.488	75.7395	250.488	76.2452	250.488	75.8999	250.488	76.2345	250.488	76.0475	250.488	76.2458	250.488	76.1603	250.488	76.2514	250.488	76.2276
259.277	78.6353	259.277	78.4131	259.277	78.7856	259.277	78.1307	259.277	78.8553	259.277	77.8021	259.277	78.8393	259.277	77.4434	259.277	78.7369	259.277	77.0715	259.277	78.5527	259.277	76.7038	259.277	78.2976	259.277	76.3563	259.277	77.9889	259.277	76.0436	259.277	77.6492	259.277	75.7782	259.277	77.3043	259.277	75.5709	259.277	76.9809	259.277	75.4309	259.277	76.7021	259.277	75.364	259.277	76.4843	259.277	75.3709	259.277	76.3324	259.277	75.4435	259.277	76.2374	259.277	75.5644	259.277	76.1788	259.277	75.7094	259.277	76.1301	259.277	75.8534	259.277	76.0675	259.277	75.9761
268.066	78.392	268.066	78.1717	268.066	78.5406	268.066	77.8901	268.066	78.6096	268.066	77.5601	268.066	78.5938	268.066	77.1975	268.066	78.4916	268.066	76.821	268.066	78.3061	268.066	76.4516	268.066	78.0463	268.066	76.1125	268.066	77.729	268.066	75.826	268.066	77.3786	268.066	75.6112	268.066	77.0262	268.066	75.48	268.066	76.7055	268.066	75.4348	268.066	76.4469	268.066	75.468	268.066	76.2698	268.066	75.5636	268.066	76.1774	268.066	75.6999	268.066	76.1554	268.066	75.8528	268.066	76.1763	268.066	75.9983	268.066	76.2073	268.066	76.1157	268.066	76.2187	268.066	76.1907
276.855	78.3224	276.855	78.0949	276.855	78.473	276.855	77.7959	276.855	78.5438	276.855	77.4345	276.855	78.5341	276.855	77.0234	276.855	78.4447	276.855	76.5803	276.855	78.2782	276.855	76.1284	276.855	78.0397	276.855	75.6962	276.855	77.7375	276.855	75.3162	276.855	77.3855	276.855	75.02	276.855	77.0052	276.855	74.8314	276.855	76.6256	276.855	74.7583	276.855	76.2808	276.855	74.79	276.855	76.0027	276.855	74.9008	276.855	75.8103	276.855	75.0574	276.855	75.7024	276.855	75.2272	276.855	75.6578	276.855	75.3831	276.855	75.6443	276.855	75.5064	276.855	75.6294	276.855	75.5879
287.109	78.5321	287.109	78.3473	287.109	78.6331	287.109	78.0859	287.109	78.6465	287.109	77.7582	287.109	78.5727	287.109	77.3772	287.109	78.4166	287.109	76.9584	287.109	78.1882	287.109	76.5201	287.109	77.9021	287.109	76.0836	287.109	77.577	287.109	75.6732	287.109	77.2347	287.109	75.3167	287.109	76.8976	287.109	75.0428	287.109	76.5881	287.109	74.876	287.109	76.3263	287.109	74.829	287.109	76.128	287.109	74.8957	287.109	75.9995	287.109	75.0501	287.109	75.9337	287.109	75.253	287.109	75.9088	287.109	75.4628	287.109	75.8941	287.109	75.6452	287.109	75.8586	287.109	75.7789
297.363	78.4216	297.363	78.2311	297.363	78.5265	297.363	77.9631	297.363	78.5407	297.363	77.6283	297.363	78.4627	297.363	77.2398	297.363	78.2958	297.363	76.8132	297.363	78.0481	297.363	76.3673	297.363	77.7331	297.363	75.9252	297.363	77.37	297.363	75.5139	297.363	76.9831	297.363	75.1632	297.363	76.6016	297.363	74.9008	297.363	76.2565	297.363	74.7472	297.363	75.9759	297.363	74.7088	297.363	75.7793	297.363	74.7758	297.363	75.6716	297.363	74.9229	297.363	75.6396	297.363	75.1151	297.363	75.6535	297.363	75.3142	297.363	75.6748	297.363	75.4862	297.363	75.6675	297.363	75.6071
307.617	78.4499	307.617	78.2397	307.617	78.5821	307.617	77.9629	307.617	78.6265	307.617	77.6307	307.617	78.5763	307.617	77.2537	307.617	78.43	307.617	76.8424	307.617	78.1926	307.617	76.4089	307.617	77.8761	307.617	75.9699	307.617	77.4993	307.617	75.5491	307.617	77.0877	307.617	75.1781	307.617	76.6735	307.617	74.8921	307.617	76.294	307.617	74.7212	307.617	75.987	307.617	74.6788	307.617	75.7795	307.617	74.7554	307.617	75.6766	307.617	74.9204	307.617	75.658	307.617	75.1319	307.617	75.6855	307.617	75.3468	307.617	75.7163	307.617	75.5287	307.617	75.7137	307.617	75.6539
319.336	78.0691	319.336	77.8552	319.336	78.1999	319.336	77.5717	319.336	78.2377	319.336	77.2343	319.336	78.1768	319.336	76.8598	319.336	78.0168	319.336	76.4652	319.336	77.7645	319.336	76.0666	319.336	77.4342	319.336	75.6797	319.336	77.0477	319.336	75.3216	319.336	76.6325	319.336	75.0122	319.336	76.22	319.336	74.7753	319.336	75.8441	319.336	74.6353	319.336	75.5417	319.336	74.6094	319.336	75.3476	319.336	74.6975	319.336	75.2802	319.336	74.8772	319.336	75.3266	319.336	75.1069	319.336	75.4412	319.336	75.3367	319.336	75.5624	319.336	75.5202	319.336	75.635	319.336	75.6242
329.59	78.1581	329.59	77.9172	329.59	78.3102	329.59	77.6005	329.59	78.3637	329.59	77.2232	329.59	78.3123	329.59	76.8022	329.59	78.154	329.59	76.3553	329.59	77.8923	329.59	75.9011	329.59	77.5381	329.59	75.4601	329.59	77.111	329.59	75.0559	329.59	76.6392	329.59	74.7159	329.59	76.158	329.59	74.468	329.59	75.707	329.59	74.3342	329.59	75.3272	329.59	74.3223	329.59	75.0566	329.59	74.4208	329.59	74.92	329.59	74.5995	329.59	74.9147	329.59	74.8154	329.59	75.0039	329.59	75.0208	329.59	75.1268	329.59	75.1729	329.59	75.2211	329.59	75.2425
341.309	78.0383	341.309	77.7884	341.309	78.2026	341.309	77.4651	341.309	78.2731	341.309	77.0844	341.309	78.2453	341.309	76.6649	341.309	78.1189	341.309	76.2258	341.309	77.8969	341.309	75.7861	341.309	77.5873	341.309	75.3635	341.309	77.204	341.309	74.9759	341.309	76.7698	341.309	74.6441	341.309	76.3172	341.309	74.3926	341.309	75.8872	341.309	74.2456	341.309	75.5234	341.309	74.2185	341.309	75.2607	341.309	74.3079	341.309	75.116	341.309	74.488	341.309	75.0812	341.309	74.7154	341.309	75.1238	341.309	74.9404	341.309	75.1941	341.309	75.1185	341.309	75.2398	341.309	75.2206
353.027	77.8954	353.027	77.6221	353.027	78.06	353.027	77.2516	353.027	78.1094	353.027	76.8001	353.027	78.0414	353.027	76.2894	353.027	77.8591	353.027	75.746	353.027	77.5708	353.027	75.2007	353.027	77.1904	353.027	74.6865	353.027	76.7369	353.027	74.2365	353.027	76.2355	353.027	73.8822	353.027	75.7195	353.027	73.6517	353.027	75.2338	353.027	73.5644	353.027	74.8334	353.027	73.6241	353.027	74.5706	353.027	73.812	353.027	74.4723	353.027	74.0864	353.027	74.5227	353.027	74.3913	353.027	74.6665	353.027	74.6688	353.027	74.83	353.027	74.8704	353.027	74.9451	353.027	74.965
366.211	78.0154	366.211	77.7583	366.211	78.1711	366.211	77.4067	366.211	78.2214	366.211	76.9708	366.211	78.1652	366.211	76.4652	366.211	78.0045	366.211	75.9095	366.211	77.7451	366.211	75.3281	366.211	77.3959	366.211	74.7502	366.211	76.9683	366.211	74.2102	366.211	76.4756	366.211	73.7466	366.211	75.9366	366.211	73.4004	366.211	75.3828	366.211	73.2064	366.211	74.8654	366.211	73.1808	366.211	74.4509	366.211	73.3091	366.211	74.1969	366.211	73.5463	366.211	74.1181	366.211	73.8296	366.211	74.1732	366.211	74.095	366.211	74.285	366.211	74.2906	366.211	74.3748	366.211	74.3853
379.395	78.2928	379.395	78.0451	379.395	78.4425	379.395	77.7084	379.395	78.4865	379.395	77.2922	379.395	78.4206	379.395	76.8057	379.395	78.2464	379.395	76.2592	379.395	77.9725	379.395	75.6669	379.395	77.6147	379.395	75.0511	379.395	77.1934	379.395	74.4452	379.395	76.7285	379.395	73.8951	379.395	76.2377	379.395	73.454	379.395	75.7398	379.395	73.1703	379.395	75.2643	379.395	73.0718	379.395	74.8566	379.395	73.1536	379.395	74.5666	379.395	73.3766	379.395	74.4197	379.395	73.6769	379.395	74.3944	379.395	73.9833	379.395	74.4281	379.395	74.234	379.395	74.4463	379.395	74.3907
392.578	78.0039	392.578	77.7399	392.578	78.1754	392.578	77.3956	392.578	78.2443	392.578	76.9838	392.578	78.2039	392.578	76.5159	392.578	78.0536	392.578	76.0013	392.578	77.8002	392.578	75.449	392.578	77.4588	392.578	74.872	392.578	77.0506	392.578	74.2944	392.578	76.599	392.578	73.7581	392.578	76.1265	392.578	73.3228	392.578	75.657	392.578	73.0539	392.578	75.2221	392.578	72.9961	392.578	74.8635	392.578	73.1484	392.578	74.6239	392.578	73.4592	392.578	74.5262	392.578	73.845	392.578	74.5517	392.578	74.2181	392.578	74.6378	392.578	74.507	392.578	74.7009	392.578	74.6694
405.762	77.4962	405.762	77.2388	405.762	77.6588	405.762	76.8974	405.762	77.7202	405.762	76.4882	405.762	77.6775	405.762	76.032	405.762	77.5306	405.762	75.5513	405.762	77.2842	405.762	75.0658	405.762	76.9495	405.762	74.5898	405.762	76.546	405.762	74.1348	405.762	76.1	405.762	73.7189	405.762	75.6404	405.762	73.3753	405.762	75.1968	405.762	73.1512	405.762	74.8034	405.762	73.0897	405.762	74.5042	405.762	73.2043	405.762	74.3422	405.762	73.465	405.762	74.3299	405.762	73.8069	405.762	74.4266	405.762	74.152	405.762	74.5532	405.762	74.4301	405.762	74.6279	405.762	74.5939
420.41	77.9059	420.41	77.6502	420.41	78.0545	420.41	77.292	420.41	78.0916	420.41	76.835	420.41	78.0152	420.41	76.2831	420.41	77.8282	420.41	75.6437	420.41	77.5388	420.41	74.933	420.41	77.158	420.41	74.1819	420.41	76.6963	420.41	73.4405	420.41	76.1617	420.41	72.7787	420.41	75.5669	420.41	72.2794	420.41	74.9427	420.41	72.0173	420.41	74.3502	420.41	72.0246	420.41	73.876	420.41	72.2685	420.41	73.6	420.41	72.6645	420.41	73.5495	420.41	73.1131	420.41	73.6735	420.41	73.5268	420.41	73.8622	420.41	73.8376	420.41	73.998	420.41	73.9996
435.059	77.6671	435.059	77.4527	435.059	77.7894	435.059	77.1562	435.059	77.8142	435.059	76.7891	435.059	77.7422	435.059	76.3614	435.059	77.5819	435.059	75.8781	435.059	77.3492	435.059	75.3406	435.059	77.0658	435.059	74.7514	435.059	76.7503	435.059	74.1231	435.059	76.4083	435.059	73.4906	435.059	76.0278	435.059	72.92	435.059	75.5922	435.059	72.5041	435.059	75.1042	435.059	72.3294	435.059	74.6071	435.059	72.4218	435.059	74.1823	435.059	72.7213	435.059	73.9113	435.059	73.1148	435.059	73.8202	435.059	73.4897	435.059	73.8558	435.059	73.7658	435.059	73.9163	435.059	73.9052
451.172	77.8392	451.172	77.5309	451.172	78.0118	451.172	77.1075	451.172	78.0363	451.172	76.595	451.172	77.9104	451.172	76.0192	451.172	77.6436	451.172	75.4012	451.172	77.2588	451.172	74.7542	451.172	76.7931	451.172	74.0876	451.172	76.2932	451.172	73.4184	451.172	75.8027	451.172	72.7878	451.172	75.3453	451.172	72.2739	451.172	74.9203	451.172	71.9835	451.172	74.5223	451.172	72.003	451.172	74.1733	451.172	72.331	451.172	73.9366	451.172	72.8636	451.172	73.8791	451.172	73.4511	451.172	74.0033	451.172	73.9617	451.172	74.2218	451.172	74.3095	451.172	74.4076	451.172	74.4557
465.82	78.1309	465.82	77.816	465.82	78.3172	465.82	77.393	465.82	78.3611	465.82	76.8856	465.82	78.257	465.82	76.3177	465.82	78.0102	465.82	75.7075	465.82	77.6385	465.82	75.0635	465.82	77.1738	465.82	74.3836	465.82	76.6583	465.82	73.66	465.82	76.1343	465.82	72.8941	465.82	75.6284	465.82	72.121	465.82	75.1425	465.82	71.4418	465.82	74.6616	465.82	71.0265	465.82	74.1784	465.82	71.0259	465.82	73.7222	465.82	71.4233	465.82	73.3657	465.82	72.024	465.82	73.1837	465.82	72.604	465.82	73.1742	465.82	73.0179	465.82	73.2327	465.82	73.216
483.398	78.3113	483.398	77.9195	483.398	78.5738	483.398	77.4154	483.398	78.6945	483.398	76.8212	483.398	78.6649	483.398	76.1651	483.398	78.4812	483.398	75.4774	483.398	78.1488	483.398	74.7848	483.398	77.6863	483.398	74.1038	483.398	77.1296	483.398	73.4437	483.398	76.5308	483.398	72.8226	483.398	75.951	483.398	72.291	483.398	75.4493	483.398	71.9435	483.398	75.0718	483.398	71.8876	483.398	74.8437	483.398	72.1673	483.398	74.7599	483.398	72.7106	483.398	74.7839	483.398	73.3675	483.398	74.8595	483.398	73.9889	483.398	74.925	483.398	74.4745	483.398	74.9185	483.398	74.7821
499.512	78.1613	499.512	77.7774	499.512	78.4419	499.512	77.3058	499.512	78.6062	499.512	76.7622	499.512	78.6464	499.512	76.1591	499.512	78.5622	499.512	75.5049	499.512	78.3617	499.512	74.8043	499.512	78.0608	499.512	74.0594	499.512	77.6782	499.512	73.2732	499.512	77.2291	499.512	72.4625	499.512	76.7264	499.512	71.6869	499.512	76.195	499.512	71.0843	499.512	75.6871	499.512	70.8582	499.512	75.2758	499.512	71.1427	499.512	75.017	499.512	71.8533	499.512	74.9144	499.512	72.7477	499.512	74.9195	499.512	73.5981	499.512	74.95	499.512	74.2667	499.512	74.9074	499.512	74.6997
517.09	77.511	517.09	76.9936	517.09	77.9093	517.09	76.3862	517.09	78.1718	517.09	75.7222	517.09	78.2957	517.09	75.0263	517.09	78.2905	517.09	74.3045	517.09	78.1744	517.09	73.5438	517.09	77.9688	517.09	72.7233	517.09	77.6898	517.09	71.8261	517.09	77.3396	517.09	70.8546	517.09	76.9067	517.09	69.8638	517.09	76.3867	517.09	69.0377	517.09	75.8217	517.09	68.7419	517.09	75.3278	517.09	69.2835	517.09	75.0497	517.09	70.494	517.09	75.0358	517.09	71.9076	517.09	75.174	517.09	73.185	517.09	75.28	517.09	74.1797	517.09	75.2021	517.09	74.8497
536.133	74.2349	536.133	73.4048	536.133	74.9341	536.133	72.5102	536.133	75.4672	536.133	71.6427	536.133	75.8285	536.133	70.8955	536.133	76.039	536.133	70.3224	536.133	76.1394	536.133	69.9046	536.133	76.1752	536.133	69.5576	536.133	76.1695	536.133	69.1666	536.133	76.1015	536.133	68.6207	536.133	75.9137	536.133	67.8378	536.133	75.552	536.133	66.8195	536.133	75.0215	536.133	65.8327	536.133	74.4305	536.133	65.661	536.133	73.9781	536.133	66.9239	536.133	73.8208	536.133	68.9642	536.133	73.9073	536.133	70.9073	536.133	74.0098	536.133	72.4028	536.133	73.8904	536.133	73.3856
555.176	73.3325	555.176	72.7997	555.176	73.7276	555.176	72.1652	555.176	73.9613	555.176	71.4777	555.176	74.0252	555.176	70.7953	555.176	73.935	555.176	70.1754	555.176	73.7401	555.176	69.6541	555.176	73.5201	555.176	69.224	555.176	73.3474	555.176	68.8267	555.176	73.2271	555.176	68.3674	555.176	73.0774	555.176	67.7424	555.176	72.7846	555.176	66.8699	555.176	72.2898	555.176	65.7533	555.176	71.6611	555.176	64.6837	555.176	71.1194	555.176	64.5038	555.176	70.9149	555.176	65.7821	555.176	71.0502	555.176	67.7165	555.176	71.2352	555.176	69.4173	555.176	71.1443	555.176	70.5695
574.219	74.1425	574.219	73.8204	574.219	74.3045	574.219	73.3691	574.219	74.2953	574.219	72.8456	574.219	74.1178	574.219	72.3278	574.219	73.7893	574.219	71.89	574.219	73.3536	574.219	71.5647	574.219	72.8912	574.219	71.319	574.219	72.499	574.219	71.0673	574.219	72.2176	574.219	70.7048	574.219	71.9708	574.219	70.1354	574.219	71.611	574.219	69.2935	574.219	71.0296	574.219	68.1813	574.219	70.2445	574.219	66.9662	574.219	69.4513	574.219	66.1271	574.219	68.9834	574.219	66.2469	574.219	69.0199	574.219	67.2169	574.219	69.3163	574.219	68.3478	574.219	69.4497	574.219	69.1471
594.727	74.9566	594.727	74.6078	594.727	75.0764	594.727	74.0528	594.727	74.9672	594.727	73.3521	594.727	74.6449	594.727	72.6175	594.727	74.1422	594.727	72.0002	594.727	73.5221	594.727	71.6207	594.727	72.8943	594.727	71.4736	594.727	72.401	594.727	71.419	594.727	72.127	594.727	71.2735	594.727	71.995	594.727	70.8896	594.727	71.797	594.727	70.1779	594.727	71.3365	594.727	69.1215	594.727	70.5381	594.727	67.8565	594.727	69.5181	594.727	66.8491	594.727	68.6489	594.727	66.7646	594.727	68.3851	594.727	67.5635	594.727	68.6994	594.727	68.5016	594.727	69.0675	594.727	69.0502
615.234	75.9461	615.234	75.5237	615.234	76.0812	615.234	74.8394	615.234	75.9226	615.234	73.9465	615.234	75.4794	615.234	72.9455	615.234	74.7807	615.234	72.0083	615.234	73.8926	615.234	71.3607	615.234	72.9476	615.234	71.1409	615.234	72.1526	615.234	71.2358	615.234	71.6944	615.234	71.3533	615.234	71.5591	615.234	71.223	615.234	71.5128	615.234	70.6815	615.234	71.2812	615.234	69.6667	615.234	70.6835	615.234	68.2375	615.234	69.6841	615.234	66.7248	615.234	68.4877	615.234	65.9036	615.234	67.6244	615.234	66.2663	615.234	67.4996	615.234	67.1323	615.234	67.7362	615.234	67.7001
637.207	75.8709	637.207	75.5015	637.207	76.0378	637.207	74.9382	637.207	75.9917	637.207	74.1915	637.207	75.717	637.207	73.2796	637.207	75.191	637.207	72.2505	637.207	74.3998	637.207	71.2266	637.207	73.3833	637.207	70.4333	637.207	72.312	637.207	70.0836	637.207	71.5114	637.207	70.1381	637.207	71.2326	637.207	70.3023	637.207	71.3365	637.207	70.2754	637.207	71.452	637.207	69.8819	637.207	71.3075	637.207	69.0707	637.207	70.7989	637.207	67.9328	637.207	69.9539	637.207	66.7964	637.207	68.9379	637.207	66.1954	637.207	68.0201	637.207	66.3269	637.207	67.3498	637.207	66.8108
659.18	75.5009	659.18	75.2335	659.18	75.5957	659.18	74.8135	659.18	75.498	659.18	74.2522	659.18	75.1929	659.18	73.5499	659.18	74.6736	659.18	72.7098	659.18	73.9473	659.18	71.7719	659.18	73.0524	659.18	70.8569	659.18	72.0883	659.18	70.1611	659.18	71.2298	659.18	69.8252	659.18	70.6521	659.18	69.7731	659.18	70.3836	659.18	69.7665	659.18	70.3031	659.18	69.5951	659.18	70.2809	659.18	69.1793	659.18	70.225	659.18	68.5924	659.18	70.0573	659.18	68.057	659.18	69.7554	659.18	67.8484	659.18	69.3726	659.18	68.0542	659.18	68.9528	659.18	68.492
682.617	75.0719	682.617	74.9324	682.617	75.0216	682.617	74.6161	682.617	74.7866	682.617	74.1527	682.617	74.3845	682.617	73.5794	682.617	73.8329	682.617	72.933	682.617	73.1431	682.617	72.2547	682.617	72.3359	682.617	71.6146	682.617	71.4841	682.617	71.1154	682.617	70.7406	682.617	70.8234	682.617	70.2559	682.617	70.6807	682.617	70.0034	682.617	70.5369	682.617	69.7826	682.617	70.268	682.617	69.4426	682.617	69.8548	682.617	69.0395	682.617	69.3967	682.617	68.7907	682.617	69.0764	682.617	68.8503	682.617	69.0343	682.617	69.1198	682.617	69.2095	682.617	69.3522	682.617	69.3774
707.52	75.6166	707.52	75.5027	707.52	75.5137	707.52	75.1591	707.52	75.2096	707.52	74.5983	707.52	74.7026	707.52	73.8721	707.52	73.9728	707.52	73.0643	707.52	73.007	707.52	72.2575	707.52	71.8435	707.52	71.5027	707.52	70.6206	707.52	70.8483	707.52	69.5948	707.52	70.3954	707.52	69.0328	707.52	70.2338	707.52	68.9647	707.52	70.2781	707.52	69.1215	707.52	70.297	707.52	69.2045	707.52	70.1304	707.52	69.1376	707.52	69.8163	707.52	69.0809	707.52	69.5491	707.52	69.2104	707.52	69.4996	707.52	69.4863	707.52	69.6349	707.52	69.717	707.52	69.7617
732.422	76.6922	732.422	76.6723	732.422	76.4524	732.422	76.3966	732.422	75.9701	732.422	75.887	732.422	75.2777	732.422	75.184	732.422	74.4091	732.422	74.3586	732.422	73.3928	732.422	73.528	732.422	72.2734	732.422	72.8318	732.422	71.1702	732.422	72.3415	732.422	70.3018	732.422	71.9966	732.422	69.8165	732.422	71.6628	732.422	69.5593	732.422	71.2363	732.422	69.2185	732.422	70.7043	732.422	68.6715	732.422	70.1638	732.422	68.1369	732.422	69.7845	732.422	68.0176	732.422	69.6828	732.422	68.4328	732.422	69.7999	732.422	69.0827	732.422	69.9436	732.422	69.6334	732.422	69.9235
757.324	77.6089	757.324	77.5356	757.324	77.3993	757.324	77.1976	757.324	76.9141	757.324	76.6312	757.324	76.1829	757.324	75.8844	757.324	75.2446	757.324	75.0183	757.324	74.134	757.324	74.1189	757.324	72.8949	757.324	73.3158	757.324	71.6449	757.324	72.7581	757.324	70.6371	757.324	72.4935	757.324	70.1203	757.324	72.3719	757.324	70.0121	757.324	72.1563	757.324	69.932	757.324	71.7232	757.324	69.5603	757.324	71.181	757.324	68.8726	757.324	70.8289	757.324	68.2786	757.324	70.8571	757.324	68.4097	757.324	71.0909	757.324	69.2698	757.324	71.1944	757.324	70.2559	757.324	70.9385
785.156	78.5466	785.156	78.3869	785.156	78.3974	785.156	77.9502	785.156	77.9445	785.156	77.3005	785.156	77.2196	785.156	76.5166	785.156	76.2575	785.156	75.6706	785.156	75.0711	785.156	74.8133	785.156	73.6487	785.156	73.9701	785.156	72.0106	785.156	73.1594	785.156	70.3657	785.156	72.4271	785.156	69.2475	785.156	71.853	785.156	69.0274	785.156	71.4582	785.156	69.2525	785.156	71.097	785.156	69.2995	785.156	70.5904	785.156	69.0355	785.156	70.0827	785.156	68.8635	785.156	70.1167	785.156	69.3781	785.156	70.8309	785.156	70.48	785.156	71.6037	785.156	71.47	785.156	71.8796
811.523	78.3522	811.523	78.3566	811.523	78.0833	811.523	78.0909	811.523	77.5684	811.523	77.5602	811.523	76.8348	811.523	76.7821	811.523	75.9014	811.523	75.8006	811.523	74.7657	811.523	74.7065	811.523	73.4203	811.523	73.6706	811.523	71.9365	811.523	72.9513	811.523	70.5971	811.523	72.7192	811.523	69.8456	811.523	72.795	811.523	69.7961	811.523	72.7859	811.523	69.9784	811.523	72.4382	811.523	69.8131	811.523	71.7647	811.523	69.115	811.523	70.9897	811.523	68.4254	811.523	70.4344	811.523	68.6423	811.523	70.3257	811.523	69.5678	811.523	70.541	811.523	70.3645	811.523	70.6676
840.82	78.7775	840.82	78.7982	840.82	78.4895	840.82	78.5471	840.82	77.9534	840.82	78.0209	840.82	77.2193	840.82	77.2301	840.82	76.349	840.82	76.2268	840.82	75.3603	840.82	75.1146	840.82	74.1873	840.82	74.0199	840.82	72.7355	840.82	73.0594	840.82	71.0578	840.82	72.342	840.82	69.6107	840.82	71.9293	840.82	69.0386	840.82	71.7262	840.82	69.1418	840.82	71.4915	840.82	69.1262	840.82	71.0258	840.82	68.5815	840.82	70.3819	840.82	67.7898	840.82	69.986	840.82	67.937	840.82	70.267	840.82	69.3685	840.82	70.9194	840.82	70.7209	840.82	71.2264
870.117	78.6375	870.117	78.7684	870.117	78.2283	870.117	78.5911	870.117	77.5796	870.117	78.0864	870.117	76.7371	870.117	77.2771	870.117	75.7361	870.117	76.2764	870.117	74.5912	870.117	75.269	870.117	73.3203	870.117	74.3745	870.117	71.9997	870.117	73.5865	870.117	70.8025	870.117	72.9089	870.117	69.9376	870.117	72.4018	870.117	69.4857	870.117	72.0213	870.117	69.2207	870.117	71.6256	870.117	68.6627	870.117	71.2034	870.117	67.4824	870.117	70.8571	870.117	66.0263	870.117	70.5851	870.117	65.7145	870.117	70.3419	870.117	67.0966	870.117	70.1064	870.117	68.6949	870.117	69.6744
900.879	79.338	900.879	79.7032	900.879	78.6772	900.879	79.6758	900.879	77.8225	900.879	79.1784	900.879	76.8709	900.879	78.1864	900.879	75.8827	900.879	76.7866	900.879	74.8217	900.879	75.233	900.879	73.5409	900.879	73.8687	900.879	71.8843	900.879	72.888	900.879	69.8978	900.879	72.3466	900.879	68.0683	900.879	72.3156	900.879	67.2695	900.879	72.5545	900.879	67.7721	900.879	72.4867	900.879	68.4809	900.879	71.8112	900.879	68.2628	900.879	70.8925	900.879	66.8913	900.879	70.5701	900.879	66.0225	900.879	70.9965	900.879	67.8286	900.879	71.4248	900.879	70.0364	900.879	71.2219
933.105	80.0792	933.105	80.3679	933.105	79.4385	933.105	80.2875	933.105	78.4849	933.105	79.8141	933.105	77.3172	933.105	78.9147	933.105	76.0872	933.105	77.5878	933.105	74.9002	933.105	75.9692	933.105	73.7147	933.105	74.4202	933.105	72.3881	933.105	73.2862	933.105	70.8182	933.105	72.4696	933.105	69.1009	933.105	71.7551	933.105	67.7564	933.105	71.3555	933.105	67.4112	933.105	71.4403	933.105	67.6615	933.105	71.6053	933.105	67.52	933.105	71.5749	933.105	66.4119	933.105	71.5093	933.105	64.9837	933.105	71.5137	933.105	66.0929	933.105	71.3351	933.105	68.7486	933.105	70.5455
965.332	80.5921	965.332	80.9017	965.332	79.9068	965.332	80.7599	965.332	79.0099	965.332	80.1627	965.332	78.1012	965.332	79.1484	965.332	77.2668	965.332	77.7846	965.332	76.3727	965.332	76.206	965.332	75.1791	965.332	74.688	965.332	73.5697	965.332	73.5458	965.332	71.6808	965.332	72.7416	965.332	69.7963	965.332	71.9801	965.332	68.1822	965.332	71.4368	965.332	67.6246	965.332	71.4601	965.332	68.4076	965.332	71.4822	965.332	68.9221	965.332	71.0008	965.332	68.3382	965.332	70.6959	965.332	67.5204	965.332	71.4015	965.332	68.5196	965.332	72.2347	965.332	70.677	965.332	72.0919
1,000.49	81.1718	1,000.49	81.175	1,000.49	80.6828	1,000.49	80.7502	1,000.49	79.7758	1,000.49	79.9785	1,000.49	78.6832	1,000.49	78.8801	1,000.49	77.681	1,000.49	77.4269	1,000.49	76.8445	1,000.49	75.6593	1,000.49	75.9834	1,000.49	73.8188	1,000.49	74.8904	1,000.49	72.344	1,000.49	73.6054	1,000.49	71.5003	1,000.49	72.3307	1,000.49	70.9726	1,000.49	70.9641	1,000.49	70.296	1,000.49	69.4375	1,000.49	69.6215	1,000.49	68.6223	1,000.49	69.57	1,000.49	68.5309	1,000.49	70.0555	1,000.49	67.8752	1,000.49	70.6832	1,000.49	66.7881	1,000.49	71.436	1,000.49	67.6137	1,000.49	71.9872	1,000.49	70.0383	1,000.49	71.6606
1,035.64	80.7953	1,035.64	80.7078	1,035.64	80.3515	1,035.64	80.0846	1,035.64	79.5403	1,035.64	78.9886	1,035.64	78.6929	1,035.64	77.4722	1,035.64	78.097	1,035.64	75.5448	1,035.64	77.6885	1,035.64	73.2379	1,035.64	77.0838	1,035.64	70.9577	1,035.64	75.9714	1,035.64	69.9105	1,035.64	74.5474	1,035.64	70.4444	1,035.64	73.5517	1,035.64	71.0091	1,035.64	72.9589	1,035.64	70.4813	1,035.64	72.0849	1,035.64	68.8803	1,035.64	71.3305	1,035.64	67.8801	1,035.64	70.9805	1,035.64	68.5308	1,035.64	70.1243	1,035.64	69.5001	1,035.64	69.1391	1,035.64	70.6054	1,035.64	70.162	1,035.64	71.8052	1,035.64	71.8483	1,035.64	72.4128
1,072.27	79.3589	1,072.27	79.011	1,072.27	79.267	1,072.27	78.1195	1,072.27	78.8396	1,072.27	76.6024	1,072.27	78.1936	1,072.27	74.4239	1,072.27	77.5243	1,072.27	71.7183	1,072.27	76.9735	1,072.27	69.0722	1,072.27	76.3681	1,072.27	67.4679	1,072.27	75.375	1,072.27	67.0702	1,072.27	73.9615	1,072.27	66.5018	1,072.27	72.6979	1,072.27	64.7471	1,072.27	71.948	1,072.27	63.1419	1,072.27	71.4418	1,072.27	62.858	1,072.27	71.5996	1,072.27	62.4422	1,072.27	71.9667	1,072.27	63.1333	1,072.27	71.1616	1,072.27	65.3548	1,072.27	69.1051	1,072.27	67.7483	1,072.27	68.7689	1,072.27	69.7984	1,072.27	70.4387	1,072.27	70.9129
1,108.89	78.1813	1,108.89	77.9343	1,108.89	78.0749	1,108.89	77.3226	1,108.89	77.5899	1,108.89	76.3192	1,108.89	76.8402	1,108.89	75.0449	1,108.89	76.149	1,108.89	73.7541	1,108.89	75.7303	1,108.89	72.4942	1,108.89	75.3287	1,108.89	71.032	1,108.89	74.4131	1,108.89	69.5964	1,108.89	72.6567	1,108.89	69.0879	1,108.89	70.6551	1,108.89	69.2022	1,108.89	69.9967	1,108.89	68.9109	1,108.89	70.3781	1,108.89	67.7003	1,108.89	70.9997	1,108.89	65.0262	1,108.89	71.4055	1,108.89	60.9781	1,108.89	70.4976	1,108.89	61.8104	1,108.89	68.1774	1,108.89	66.3654	1,108.89	68.3336	1,108.89	69.5323	1,108.89	70.5269	1,108.89	71.0082
1,148.44	77.9957	1,148.44	77.8844	1,148.44	77.7863	1,148.44	77.4697	1,148.44	77.1681	1,148.44	76.745	1,148.44	76.1654	1,148.44	75.8537	1,148.44	75.0555	1,148.44	75.0322	1,148.44	74.1825	1,148.44	74.2567	1,148.44	73.5295	1,148.44	73.1016	1,148.44	72.6638	1,148.44	71.2486	1,148.44	71.2148	1,148.44	69.5893	1,148.44	69.4648	1,148.44	69.5318	1,148.44	68.194	1,148.44	69.6449	1,148.44	67.5657	1,148.44	68.6221	1,148.44	68.0677	1,148.44	66.6143	1,148.44	69.202	1,148.44	64.5734	1,148.44	69.26	1,148.44	64.42	1,148.44	67.3753	1,148.44	66.598	1,148.44	66.0537	1,148.44	68.8891	1,148.44	68.58	1,148.44	69.8253
1,189.45	78.1914	1,189.45	78.2113	1,189.45	77.7661	1,189.45	77.8754	1,189.45	76.8391	1,189.45	77.2325	1,189.45	75.449	1,189.45	76.4161	1,189.45	74.0132	1,189.45	75.5794	1,189.45	73.2072	1,189.45	74.7885	1,189.45	73.0252	1,189.45	73.8941	1,189.45	72.5912	1,189.45	72.5179	1,189.45	71.2016	1,189.45	70.8844	1,189.45	68.9267	1,189.45	70.5854	1,189.45	66.8739	1,189.45	71.1432	1,189.45	65.8351	1,189.45	70.5956	1,189.45	66.7513	1,189.45	68.6891	1,189.45	68.4295	1,189.45	66.2225	1,189.45	68.6016	1,189.45	64.7726	1,189.45	66.8786	1,189.45	66.3452	1,189.45	66.326	1,189.45	68.946	1,189.45	68.8048	1,189.45	69.9916
1,230.47	78.582	1,230.47	78.7354	1,230.47	77.9491	1,230.47	78.4981	1,230.47	76.7975	1,230.47	77.9706	1,230.47	75.2695	1,230.47	77.22	1,230.47	73.78	1,230.47	76.203	1,230.47	72.8062	1,230.47	74.8872	1,230.47	72.3105	1,230.47	73.4146	1,230.47	71.5717	1,230.47	71.7102	1,230.47	70.0253	1,230.47	69.62	1,230.47	68.3435	1,230.47	69.1181	1,230.47	67.2387	1,230.47	70.7183	1,230.47	65.6789	1,230.47	71.2854	1,230.47	66.1866	1,230.47	70.1562	1,230.47	68.2851	1,230.47	67.9396	1,230.47	68.4219	1,230.47	66.6139	1,230.47	66.5374	1,230.47	67.6529	1,230.47	65.6091	1,230.47	69.0535	1,230.47	67.8803	1,230.47	69.3527
1,274.41	79.3378	1,274.41	79.5214	1,274.41	78.6582	1,274.41	79.349	1,274.41	77.3522	1,274.41	78.8557	1,274.41	75.494	1,274.41	77.9728	1,274.41	73.5057	1,274.41	76.6111	1,274.41	72.0802	1,274.41	74.7765	1,274.41	71.6254	1,274.41	72.8005	1,274.41	71.4695	1,274.41	71.19	1,274.41	70.6497	1,274.41	69.213	1,274.41	69.0375	1,274.41	65.8209	1,274.41	66.9576	1,274.41	66.8943	1,274.41	63.8727	1,274.41	69.9222	1,274.41	61.5137	1,274.41	70.3856	1,274.41	64.9163	1,274.41	68.7915	1,274.41	67.2519	1,274.41	66.9698	1,274.41	66.2393	1,274.41	68.4576	1,274.41	64.351	1,274.41	70.0256	1,274.41	67.5046	1,274.41	69.8463
1,319.82	79.4745	1,319.82	79.9708	1,319.82	78.4944	1,319.82	79.8817	1,319.82	77.1072	1,319.82	79.1769	1,319.82	75.3366	1,319.82	77.9744	1,319.82	73.0867	1,319.82	76.4677	1,319.82	70.7356	1,319.82	74.7693	1,319.82	69.9624	1,319.82	73.0074	1,319.82	70.7113	1,319.82	71.8159	1,319.82	70.4174	1,319.82	71.0914	1,319.82	68.2601	1,319.82	68.781	1,319.82	66.7386	1,319.82	64.9901	1,319.82	65.5643	1,319.82	67.1363	1,319.82	63.3088	1,319.82	69.9105	1,319.82	65.3406	1,319.82	70.2472	1,319.82	67.7688	1,319.82	68.3297	1,319.82	67.0092	1,319.82	68.1626	1,319.82	64.8848	1,319.82	69.93	1,319.82	67.7912	1,319.82	70.0813
1,366.7	79.4405	1,366.7	80.19	1,366.7	78.415	1,366.7	80.42	1,366.7	77.0389	1,366.7	79.9186	1,366.7	75.1357	1,366.7	78.6689	1,366.7	73.0491	1,366.7	76.6941	1,366.7	71.5528	1,366.7	74.1636	1,366.7	71.161	1,366.7	71.7107	1,366.7	71.2643	1,366.7	69.946	1,366.7	70.4858	1,366.7	68.9749	1,366.7	68.4166	1,366.7	67.7049	1,366.7	65.9251	1,366.7	64.8841	1,366.7	63.4362	1,366.7	64.8886	1,366.7	62.6459	1,366.7	68.7476	1,366.7	64.169	1,366.7	70.4378	1,366.7	66.2036	1,366.7	69.0655	1,366.7	66.8625	1,366.7	67.9288	1,366.7	65.4516	1,366.7	69.668	1,366.7	67.6465	1,366.7	70.0113
1,413.57	79.737	1,413.57	80.3003	1,413.57	78.2677	1,413.57	80.207	1,413.57	76.1761	1,413.57	79.7603	1,413.57	74.3698	1,413.57	78.9672	1,413.57	73.339	1,413.57	77.522	1,413.57	72.1515	1,413.57	75.0488	1,413.57	70.3832	1,413.57	71.4581	1,413.57	68.889	1,413.57	67.1618	1,413.57	67.5096	1,413.57	63.2127	1,413.57	64.3376	1,413.57	62.6905	1,413.57	62.6872	1,413.57	63.8993	1,413.57	64.1139	1,413.57	65.1502	1,413.57	62.1803	1,413.57	68.1698	1,413.57	59.5972	1,413.57	70.4073	1,413.57	64.1117	1,413.57	69.9244	1,413.57	65.2184	1,413.57	68.7831	1,413.57	64.2263	1,413.57	69.3669	1,413.57	66.6115	1,413.57	69.0796
1,463.38	80.2152	1,463.38	80.7772	1,463.38	78.5422	1,463.38	80.3991	1,463.38	76.4632	1,463.38	79.6127	1,463.38	74.7808	1,463.38	78.61	1,463.38	72.9622	1,463.38	77.2199	1,463.38	70.572	1,463.38	75.2418	1,463.38	68.8214	1,463.38	72.4274	1,463.38	68.4591	1,463.38	68.8766	1,463.38	67.6433	1,463.38	67.0285	1,463.38	64.5548	1,463.38	66.8718	1,463.38	60.8492	1,463.38	65.1987	1,463.38	59.9366	1,463.38	64.1241	1,463.38	56.6934	1,463.38	67.5069	1,463.38	57.9863	1,463.38	70.0503	1,463.38	62.8009	1,463.38	69.2063	1,463.38	63.2836	1,463.38	67.4302	1,463.38	62.8367	1,463.38	68.0262	1,463.38	65.8415	1,463.38	67.8979
1,516.11	80.9024	1,516.11	81.3281	1,516.11	79.2455	1,516.11	80.6528	1,516.11	77.0317	1,516.11	79.4979	1,516.11	74.8483	1,516.11	78.2613	1,516.11	72.2643	1,516.11	76.8425	1,516.11	69.6086	1,516.11	75.1114	1,516.11	68.4538	1,516.11	73.0723	1,516.11	68.6139	1,516.11	70.291	1,516.11	68.2605	1,516.11	66.8122	1,516.11	65.4798	1,516.11	65.8311	1,516.11	59.5396	1,516.11	65.2372	1,516.11	57.9325	1,516.11	63.0999	1,516.11	60.2082	1,516.11	65.7062	1,516.11	59.5628	1,516.11	68.9835	1,516.11	61.1979	1,516.11	68.7273	1,516.11	62.9088	1,516.11	67.6557	1,516.11	61.0819	1,516.11	68.0922	1,516.11	64.6606	1,516.11	67.7111
1,568.85	80.9544	1,568.85	81.3791	1,568.85	79.5075	1,568.85	80.8349	1,568.85	77.4752	1,568.85	79.6181	1,568.85	75.0396	1,568.85	77.8165	1,568.85	72.0374	1,568.85	75.6855	1,568.85	69.741	1,568.85	73.8463	1,568.85	69.0161	1,568.85	72.3624	1,568.85	68.5121	1,568.85	70.4894	1,568.85	67.4139	1,568.85	67.5113	1,568.85	65.2436	1,568.85	65.3547	1,568.85	62.0977	1,568.85	66.1085	1,568.85	60.2247	1,568.85	65.819	1,568.85	61.4756	1,568.85	64.4612	1,568.85	60.2712	1,568.85	67.7488	1,568.85	57.6908	1,568.85	67.9849	1,568.85	61.0289	1,568.85	65.9135	1,568.85	60.8978	1,568.85	66.478	1,568.85	64.2614	1,568.85	66.9665
1,624.51	80.6864	1,624.51	80.9003	1,624.51	79.4244	1,624.51	80.3379	1,624.51	77.5887	1,624.51	79.2669	1,624.51	75.5617	1,624.51	77.1159	1,624.51	73.2248	1,624.51	73.7399	1,624.51	71.3231	1,624.51	71.0656	1,624.51	70.0504	1,624.51	69.8333	1,624.51	69.0947	1,624.51	67.4601	1,624.51	68.438	1,624.51	62.7232	1,624.51	67.1919	1,624.51	59.5185	1,624.51	65.1448	1,624.51	64.2632	1,624.51	62.994	1,624.51	66.1334	1,624.51	62.2124	1,624.51	63.8403	1,624.51	61.1832	1,624.51	63.8083	1,624.51	58.5373	1,624.51	64.8651	1,624.51	62.2013	1,624.51	64.3197	1,624.51	62.9816	1,624.51	66.6631	1,624.51	65.3954	1,624.51	67.7218
1,681.64	80.0848	1,681.64	79.6892	1,681.64	79.3493	1,681.64	78.8561	1,681.64	77.5337	1,681.64	77.6119	1,681.64	75.2	1,681.64	75.0942	1,681.64	72.9322	1,681.64	71.4367	1,681.64	71.7668	1,681.64	69.2293	1,681.64	71.2341	1,681.64	69.2556	1,681.64	70.5417	1,681.64	67.4527	1,681.64	70.2991	1,681.64	62.1504	1,681.64	70.0556	1,681.64	50.7543	1,681.64	68.6503	1,681.64	59.6516	1,681.64	66.7184	1,681.64	64.2519	1,681.64	65.1717	1,681.64	64.1915	1,681.64	62.8275	1,681.64	61.9421	1,681.64	61.5526	1,681.64	61.9311	1,681.64	60.6253	1,681.64	60.5938	1,681.64	60.6277	1,681.64	64.5405	1,681.64	65.3906	1,681.64	67.1086
1,741.7	80.0087	1,741.7	79.3466	1,741.7	79.7706	1,741.7	78.7482	1,741.7	77.7429	1,741.7	77.5742	1,741.7	75.122	1,741.7	75.3161	1,741.7	73.1037	1,741.7	73.2789	1,741.7	70.6117	1,741.7	70.7574	1,741.7	69.6718	1,741.7	64.294	1,741.7	71.2933	1,741.7	60.5597	1,741.7	72.5178	1,741.7	38.4432	1,741.7	72.5568	1,741.7	60.7456	1,741.7	71.6033	1,741.7	62.0678	1,741.7	68.8689	1,741.7	56.5913	1,741.7	63.0027	1,741.7	59.2702	1,741.7	64.4863	1,741.7	63.1954	1,741.7	66.707	1,741.7	64.0863	1,741.7	63.5764	1,741.7	62.1675	1,741.7	61.6913	1,741.7	61.7858	1,741.7	66.8195	1,741.7	65.8193
1,803.22	80.4853	1,803.22	80.5653	1,803.22	79.5833	1,803.22	79.9193	1,803.22	77.6217	1,803.22	78.0754	1,803.22	74.822	1,803.22	75.3884	1,803.22	71.0698	1,803.22	72.6563	1,803.22	68.1323	1,803.22	69.9013	1,803.22	67.8204	1,803.22	66.6957	1,803.22	67.2521	1,803.22	61.9098	1,803.22	67.5297	1,803.22	60.47	1,803.22	68.1939	1,803.22	63.1048	1,803.22	67.1499	1,803.22	63.6051	1,803.22	67.0842	1,803.22	56.4488	1,803.22	66.5676	1,803.22	62.593	1,803.22	61.0931	1,803.22	65.2018	1,803.22	61.0511	1,803.22	64.6714	1,803.22	64.4668	1,803.22	61.5583	1,803.22	59.728	1,803.22	61.4024	1,803.22	66.7221	1,803.22	67.2889
1,866.21	79.9765	1,866.21	80.1658	1,866.21	79.3448	1,866.21	79.5495	1,866.21	77.5745	1,866.21	77.4168	1,866.21	74.3535	1,866.21	74.5866	1,866.21	69.9388	1,866.21	71.7638	1,866.21	65.9857	1,866.21	68.0174	1,866.21	64.6626	1,866.21	64.3925	1,866.21	63.2887	1,866.21	63.0619	1,866.21	62.5706	1,866.21	62.6942	1,866.21	64.0695	1,866.21	62.5561	1,866.21	62.9794	1,866.21	64.9062	1,866.21	59.5903	1,866.21	58.8618	1,866.21	64.4304	1,866.21	62.7277	1,866.21	64.0935	1,866.21	62.0686	1,866.21	56.3519	1,866.21	58.6291	1,866.21	60.1767	1,866.21	62.5798	1,866.21	63.8704	1,866.21	64.0524	1,866.21	65.1696	1,866.21	66.989
1,932.13	79.9085	1,932.13	79.6284	1,932.13	78.896	1,932.13	78.2436	1,932.13	76.9058	1,932.13	76.4447	1,932.13	73.7251	1,932.13	74.5927	1,932.13	67.86	1,932.13	71.279	1,932.13	59.3618	1,932.13	65.8584	1,932.13	60.765	1,932.13	61.0438	1,932.13	63.2486	1,932.13	59.5676	1,932.13	65.4431	1,932.13	60.101	1,932.13	67.1074	1,932.13	59.8678	1,932.13	65.8387	1,932.13	64.0482	1,932.13	61.5748	1,932.13	58.3964	1,932.13	55.6411	1,932.13	54.7112	1,932.13	58.6057	1,932.13	55.9895	1,932.13	61.3637	1,932.13	59.958	1,932.13	58.3413	1,932.13	64.146	1,932.13	62.9764	1,932.13	64.512	1,932.13	66.3371	1,932.13	65.2197
1,999.51	80.1312	1,999.51	79.5924	1,999.51	79.0063	1,999.51	77.6998	1,999.51	76.8462	1,999.51	75.8351	1,999.51	73.2852	1,999.51	74.3531	1,999.51	65.537	1,999.51	70.9416	1,999.51	47.3782	1,999.51	62.7568	1,999.51	56.6957	1,999.51	54.2245	1,999.51	60.1122	1,999.51	57.3194	1,999.51	64.14	1,999.51	58.4318	1,999.51	66.7502	1,999.51	49.565	1,999.51	65.8809	1,999.51	60.4463	1,999.51	62.4015	1,999.51	55.612	1,999.51	57.5209	1,999.51	53.6598	1,999.51	60.8801	1,999.51	61.1025	1,999.51	56.381	1,999.51	61.3923	1,999.51	57.1142	1,999.51	61.1935	1,999.51	58.8411	1,999.51	62.8606	1,999.51	66.142	1,999.51	66.3686
2,069.82	79.6508	2,069.82	79.6606	2,069.82	78.7062	2,069.82	78.0141	2,069.82	76.6074	2,069.82	75.025	2,069.82	71.6058	2,069.82	71.5884	2,069.82	63.1127	2,069.82	68.5461	2,069.82	58.474	2,069.82	62.4026	2,069.82	59.7361	2,069.82	49.8148	2,069.82	62.5147	2,069.82	52.516	2,069.82	65.3761	2,069.82	57.569	2,069.82	66.2882	2,069.82	58.0163	2,069.82	66.4015	2,069.82	53.8313	2,069.82	64.8928	2,069.82	55.4826	2,069.82	56.0168	2,069.82	57.8755	2,069.82	59.7623	2,069.82	62.16	2,069.82	60.3425	2,069.82	56.7498	2,069.82	50.8584	2,069.82	57.7445	2,069.82	62.4596	2,069.82	63.1012	2,069.82	64.1756	2,069.82	65.1621
2,143.07	79.9795	2,143.07	79.1014	2,143.07	78.1465	2,143.07	77.0962	2,143.07	74.8456	2,143.07	74.8801	2,143.07	71.5339	2,143.07	68.4905	2,143.07	66.0775	2,143.07	56.9432	2,143.07	66.5581	2,143.07	61.7981	2,143.07	66.7506	2,143.07	57.4876	2,143.07	66.4894	2,143.07	48.1524	2,143.07	67.1182	2,143.07	47.1931	2,143.07	67.5291	2,143.07	52.4056	2,143.07	67.7497	2,143.07	59.9657	2,143.07	67.2551	2,143.07	63.2406	2,143.07	63.1288	2,143.07	61.3163	2,143.07	53.0906	2,143.07	61.2744	2,143.07	52.6293	2,143.07	52.422	2,143.07	49.0257	2,143.07	53.6524	2,143.07	61.0885	2,143.07	61.3448	2,143.07	64.5052	2,143.07	64.1183
2,219.24	80.3846	2,219.24	79.0999	2,219.24	78.9285	2,219.24	76.3234	2,219.24	75.0327	2,219.24	72.28	2,219.24	70.6545	2,219.24	63.8888	2,219.24	66.694	2,219.24	62.6869	2,219.24	68.1487	2,219.24	63.2141	2,219.24	67.5231	2,219.24	57.8442	2,219.24	64.9176	2,219.24	48.3647	2,219.24	64.6844	2,219.24	56.5373	2,219.24	63.0329	2,219.24	59.06	2,219.24	63.3617	2,219.24	64.0384	2,219.24	67.1507	2,219.24	65.3957	2,219.24	64.6935	2,219.24	61.3397	2,219.24	60.9775	2,219.24	62.1349	2,219.24	55.6372	2,219.24	55.7823	2,219.24	54.2238	2,219.24	46.0598	2,219.24	59.3982	2,219.24	57.9785	2,219.24	64.0369	2,219.24	64.9027
2,296.88	79.6879	2,296.88	78.6694	2,296.88	79.0825	2,296.88	76.0174	2,296.88	75.882	2,296.88	71.3436	2,296.88	70.5218	2,296.88	65.0364	2,296.88	69.0692	2,296.88	65.665	2,296.88	69.8335	2,296.88	64.2286	2,296.88	65.8548	2,296.88	66.8095	2,296.88	59.1647	2,296.88	66.5433	2,296.88	61.1124	2,296.88	61.3413	2,296.88	64.571	2,296.88	61.0114	2,296.88	63.2357	2,296.88	61.976	2,296.88	61.2359	2,296.88	63.0869	2,296.88	67.0861	2,296.88	65.0934	2,296.88	66.537	2,296.88	65.0008	2,296.88	59.5039	2,296.88	51.3772	2,296.88	57.1833	2,296.88	56.4862	2,296.88	60.5647	2,296.88	50.329	2,296.88	66.3258	2,296.88	61.9533
2,378.91	79.3557	2,378.91	78.5453	2,378.91	78.2254	2,378.91	75.1094	2,378.91	75.7168	2,378.91	69.9763	2,378.91	70.9726	2,378.91	70.1731	2,378.91	69.7936	2,378.91	67.9804	2,378.91	69.8573	2,378.91	68.1713	2,378.91	70.9198	2,378.91	68.9717	2,378.91	69.763	2,378.91	69.2554	2,378.91	70.5943	2,378.91	69.2954	2,378.91	73.8903	2,378.91	68.4558	2,378.91	72.3047	2,378.91	69.4942	2,378.91	66.574	2,378.91	68.6316	2,378.91	54.7777	2,378.91	65.6906	2,378.91	66.7909	2,378.91	62.8671	2,378.91	68.8522	2,378.91	46.0067	2,378.91	54.3503	2,378.91	33.7296	2,378.91	57.0616	2,378.91	53.9226	2,378.91	64.7442	2,378.91	64.4159
2,462.4	79.276	2,462.4	78.2545	2,462.4	78.9721	2,462.4	75.4742	2,462.4	75.4003	2,462.4	72.3448	2,462.4	69.6147	2,462.4	65.8694	2,462.4	70.3377	2,462.4	65.2307	2,462.4	70.3264	2,462.4	70.4002	2,462.4	72.2076	2,462.4	69.7614	2,462.4	69.8496	2,462.4	68.036	2,462.4	68.2739	2,462.4	66.6085	2,462.4	71.2465	2,462.4	66.406	2,462.4	70.389	2,462.4	65.8607	2,462.4	62.9396	2,462.4	62.0502	2,462.4	65.4508	2,462.4	65.3757	2,462.4	65.0169	2,462.4	60.3217	2,462.4	62.8603	2,462.4	59.9543	2,462.4	56.9134	2,462.4	49.8229	2,462.4	59.4712	2,462.4	58.7637	2,462.4	66.5305	2,462.4	64.7954
2,548.83	78.3953	2,548.83	77.9272	2,548.83	77.7544	2,548.83	75.9899	2,548.83	76.0082	2,548.83	72.4395	2,548.83	69.1031	2,548.83	65.019	2,548.83	72.2041	2,548.83	71.1071	2,548.83	72.3348	2,548.83	70.878	2,548.83	72.5903	2,548.83	71.2664	2,548.83	71.2038	2,548.83	70.8713	2,548.83	65.5068	2,548.83	69.5914	2,548.83	69.0948	2,548.83	67.2915	2,548.83	70.6214	2,548.83	65.8284	2,548.83	68.5075	2,548.83	62.9535	2,548.83	65.5037	2,548.83	64.918	2,548.83	66.2122	2,548.83	64.0681	2,548.83	62.9275	2,548.83	60.6599	2,548.83	57.5751	2,548.83	51.0597	2,548.83	60.1008	2,548.83	59.3436	2,548.83	66.6169	2,548.83	63.9933
2,639.65	78.9209	2,639.65	78.2802	2,639.65	77.0223	2,639.65	76.2472	2,639.65	74.5113	2,639.65	69.4175	2,639.65	71.6579	2,639.65	70.8314	2,639.65	71.7545	2,639.65	71.9729	2,639.65	73.4545	2,639.65	72.2134	2,639.65	72.1231	2,639.65	71.2479	2,639.65	71.2	2,639.65	69.4334	2,639.65	67.6386	2,639.65	68.5943	2,639.65	68.9261	2,639.65	68.0018	2,639.65	70.5617	2,639.65	68.1442	2,639.65	68.96	2,639.65	64.6838	2,639.65	66.7386	2,639.65	64.7822	2,639.65	66.8052	2,639.65	65.8004	2,639.65	65.2376	2,639.65	62.0484	2,639.65	59.9385	2,639.65	56.0312	2,639.65	59.5322	2,639.65	58.6193	2,639.65	63.894	2,639.65	63.5149
2,731.93	79.2572	2,731.93	79.0909	2,731.93	77.7177	2,731.93	75.3806	2,731.93	73.4992	2,731.93	71.7894	2,731.93	71.2192	2,731.93	72.4536	2,731.93	73.4089	2,731.93	74.0632	2,731.93	74.6882	2,731.93	73.7109	2,731.93	73.3065	2,731.93	73.1441	2,731.93	71.9666	2,731.93	72.255	2,731.93	70.0781	2,731.93	70.4775	2,731.93	71.1357	2,731.93	69.4693	2,731.93	71.1699	2,731.93	65.9196	2,731.93	67.6923	2,731.93	65.9047	2,731.93	67.3722	2,731.93	64.2486	2,731.93	65.341	2,731.93	65.6145	2,731.93	64.9449	2,731.93	62.2069	2,731.93	59.9605	2,731.93	57.1364	2,731.93	59.2796	2,731.93	60.3083	2,731.93	67.6846	2,731.93	65.9204
2,828.61	78.8489	2,828.61	77.9205	2,828.61	77.288	2,828.61	74.7984	2,828.61	73.759	2,828.61	72.9481	2,828.61	70.4288	2,828.61	74.3677	2,828.61	73.6191	2,828.61	74.2931	2,828.61	74.88	2,828.61	74.5091	2,828.61	73.6061	2,828.61	73.1336	2,828.61	71.1317	2,828.61	72.126	2,828.61	68.8515	2,828.61	69.8651	2,828.61	70.1121	2,828.61	67.2108	2,828.61	71.5057	2,828.61	66.0878	2,828.61	69.53	2,828.61	63.2985	2,828.61	68.2248	2,828.61	64.3407	2,828.61	67.7316	2,828.61	64.9152	2,828.61	64.4873	2,828.61	63.136	2,828.61	58.8854	2,828.61	56.0189	2,828.61	60.8701	2,828.61	60.128	2,828.61	65.864	2,828.61	63.3003
2,928.22	79.4103	2,928.22	78.258	2,928.22	77.8345	2,928.22	75.0031	2,928.22	73.5095	2,928.22	74.3881	2,928.22	71.1507	2,928.22	74.2375	2,928.22	73.33	2,928.22	75.2065	2,928.22	75.0548	2,928.22	75.012	2,928.22	74.66	2,928.22	73.3615	2,928.22	72.9382	2,928.22	70.8174	2,928.22	71.5347	2,928.22	67.8992	2,928.22	71.4491	2,928.22	68.8168	2,928.22	69.1363	2,928.22	67.5031	2,928.22	68.0276	2,928.22	65.2197	2,928.22	71.5284	2,928.22	63.9099	2,928.22	66.0561	2,928.22	65.9682	2,928.22	66.5921	2,928.22	62.9625	2,928.22	58.9546	2,928.22	57.4367	2,928.22	59.7814	2,928.22	62.0171	2,928.22	68.9457	2,928.22	66.6294
3,030.76	78.9463	3,030.76	77.7417	3,030.76	78.0496	3,030.76	76.0004	3,030.76	74.4449	3,030.76	75.2637	3,030.76	70.4428	3,030.76	75.4507	3,030.76	74.9848	3,030.76	76.0165	3,030.76	75.6541	3,030.76	75.8519	3,030.76	75.7502	3,030.76	73.707	3,030.76	75.1561	3,030.76	71.9232	3,030.76	73.163	3,030.76	72.3534	3,030.76	69.5258	3,030.76	69.3049	3,030.76	68.5785	3,030.76	67.6903	3,030.76	60.0117	3,030.76	64.7726	3,030.76	69.3686	3,030.76	65.5377	3,030.76	64.7699	3,030.76	65.091	3,030.76	65.0691	3,030.76	64.3945	3,030.76	62.0513	3,030.76	58.7405	3,030.76	56.2011	3,030.76	60.4411	3,030.76	68.2517	3,030.76	64.5591
3,137.7	78.9709	3,137.7	77.5736	3,137.7	77.8887	3,137.7	76.2109	3,137.7	75.4442	3,137.7	75.6937	3,137.7	70.6544	3,137.7	76.2436	3,137.7	75.8853	3,137.7	77.0834	3,137.7	77.4388	3,137.7	75.7579	3,137.7	76.9049	3,137.7	73.9237	3,137.7	76.5312	3,137.7	74.3696	3,137.7	73.9208	3,137.7	71.1279	3,137.7	66.781	3,137.7	67.5718	3,137.7	68.8042	3,137.7	66.1298	3,137.7	67.8821	3,137.7	63.6903	3,137.7	69.1255	3,137.7	61.6226	3,137.7	66.971	3,137.7	64.9254	3,137.7	66.3372	3,137.7	64.5826	3,137.7	60.3794	3,137.7	59.3978	3,137.7	56.8073	3,137.7	60.4346	3,137.7	68.3827	3,137.7	65.2905
3,249.02	79.0586	3,249.02	77.9898	3,249.02	78.3484	3,249.02	76.6255	3,249.02	74.8989	3,249.02	76.4647	3,249.02	72.788	3,249.02	77.4054	3,249.02	74.3914	3,249.02	77.8796	3,249.02	78.0006	3,249.02	76.4144	3,249.02	77.6428	3,249.02	75.3337	3,249.02	76.6071	3,249.02	70.1311	3,249.02	74.0128	3,249.02	68.3544	3,249.02	64.9272	3,249.02	67.568	3,249.02	66.795	3,249.02	66.8613	3,249.02	63.8599	3,249.02	64.6964	3,249.02	70.4237	3,249.02	63.8646	3,249.02	68.2573	3,249.02	63.788	3,249.02	67.0294	3,249.02	63.2249	3,249.02	62.7689	3,249.02	59.1742	3,249.02	55.6132	3,249.02	62.2155	3,249.02	67.2296	3,249.02	61.1022
3,363.28	78.8996	3,363.28	78.1994	3,363.28	79.4841	3,363.28	76.6044	3,363.28	75.4558	3,363.28	77.6604	3,363.28	73.5404	3,363.28	78.2758	3,363.28	75.8225	3,363.28	76.7765	3,363.28	78.1651	3,363.28	75.6995	3,363.28	77.7122	3,363.28	72.801	3,363.28	76.2483	3,363.28	72.0051	3,363.28	73.8538	3,363.28	73.014	3,363.28	62.4679	3,363.28	68.9353	3,363.28	59.9463	3,363.28	66.1245	3,363.28	64.6586	3,363.28	65.3829	3,363.28	70.2689	3,363.28	63.5601	3,363.28	71.3018	3,363.28	64.429	3,363.28	67.5246	3,363.28	64.2263	3,363.28	59.4893	3,363.28	58.5511	3,363.28	53.6609	3,363.28	61.2977	3,363.28	67.8545	3,363.28	63.9097
3,481.93	78.8397	3,481.93	78.0331	3,481.93	79.194	3,481.93	76.9364	3,481.93	77.8362	3,481.93	78.0653	3,481.93	71.9878	3,481.93	78.1497	3,481.93	77.1814	3,481.93	76.6396	3,481.93	78.732	3,481.93	75.739	3,481.93	78.5323	3,481.93	74.0783	3,481.93	77.679	3,481.93	74.8116	3,481.93	74.3611	3,481.93	70.7247	3,481.93	62.0373	3,481.93	67.9664	3,481.93	65.899	3,481.93	67.9536	3,481.93	62.2046	3,481.93	66.3805	3,481.93	67.7854	3,481.93	63.5985	3,481.93	70.2198	3,481.93	64.3622	3,481.93	68.3194	3,481.93	63.6273	3,481.93	52.5281	3,481.93	57.6428	3,481.93	59.4842	3,481.93	60.6836	3,481.93	68.0905	3,481.93	65.1091
3,604.98	79.0668	3,604.98	77.9126	3,604.98	78.9608	3,604.98	77.6323	3,604.98	78.4729	3,604.98	78.8073	3,604.98	74.0397	3,604.98	77.315	3,604.98	77.2126	3,604.98	77.2277	3,604.98	79.7666	3,604.98	75.5464	3,604.98	79.3835	3,604.98	76.687	3,604.98	77.9518	3,604.98	71.3688	3,604.98	74.0941	3,604.98	71.2064	3,604.98	66.2997	3,604.98	69.9628	3,604.98	68.5925	3,604.98	67.6622	3,604.98	65.6216	3,604.98	67.6777	3,604.98	65.0044	3,604.98	64.5102	3,604.98	69.4093	3,604.98	66.7425	3,604.98	68.6903	3,604.98	64.3244	3,604.98	43.4437	3,604.98	59.5128	3,604.98	58.9687	3,604.98	58.3319	3,604.98	67.7052	3,604.98	63.7796
3,732.42	78.5476	3,732.42	77.5501	3,732.42	79.0758	3,732.42	78.284	3,732.42	78.3836	3,732.42	78.4954	3,732.42	74.3051	3,732.42	77.7034	3,732.42	76.3155	3,732.42	76.6985	3,732.42	79.7752	3,732.42	77.9704	3,732.42	79.8893	3,732.42	74.5584	3,732.42	78.6676	3,732.42	73.7864	3,732.42	75.7034	3,732.42	73.1847	3,732.42	69.2896	3,732.42	69.4989	3,732.42	72.1378	3,732.42	68.2806	3,732.42	69.1259	3,732.42	66.2357	3,732.42	60.7344	3,732.42	65.0953	3,732.42	67.7344	3,732.42	66.6988	3,732.42	68.5547	3,732.42	65.0998	3,732.42	52.2714	3,732.42	59.2838	3,732.42	59.4746	3,732.42	60.5605	3,732.42	68.123	3,732.42	64.0581
3,864.26	79.0683	3,864.26	77.3318	3,864.26	78.4338	3,864.26	79.0004	3,864.26	79.1973	3,864.26	78.4547	3,864.26	74.214	3,864.26	77.7967	3,864.26	75.1648	3,864.26	78.4553	3,864.26	79.6299	3,864.26	77.3123	3,864.26	80.278	3,864.26	76.3582	3,864.26	79.2299	3,864.26	76.0363	3,864.26	75.9969	3,864.26	71.5543	3,864.26	68.6705	3,864.26	70.1691	3,864.26	73.0928	3,864.26	68.0502	3,864.26	71.7178	3,864.26	67.123	3,864.26	66.9725	3,864.26	64.4352	3,864.26	67.6665	3,864.26	66.4087	3,864.26	67.8774	3,864.26	64.8876	3,864.26	48.2341	3,864.26	58.1616	3,864.26	60.1258	3,864.26	57.4103	3,864.26	67.1505	3,864.26	64.773
4,000.49	78.0673	4,000.49	77.0827	4,000.49	79.04	4,000.49	79.0128	4,000.49	79.5353	4,000.49	77.8456	4,000.49	76.7197	4,000.49	78.0647	4,000.49	74.6611	4,000.49	79.0107	4,000.49	79.271	4,000.49	77.6552	4,000.49	81.023	4,000.49	77.2869	4,000.49	79.8426	4,000.49	71.0205	4,000.49	74.755	4,000.49	70.103	4,000.49	69.0522	4,000.49	67.9827	4,000.49	72.2207	4,000.49	67.0859	4,000.49	72.5125	4,000.49	66.8666	4,000.49	67.261	4,000.49	63.725	4,000.49	69.1725	4,000.49	66.0778	4,000.49	67.5033	4,000.49	64.4825	4,000.49	56.7185	4,000.49	58.4759	4,000.49	64.263	4,000.49	53.707	4,000.49	66.3626	4,000.49	62.2674
4,141.11	77.5528	4,141.11	78.4268	4,141.11	79.4361	4,141.11	78.7185	4,141.11	79.9021	4,141.11	77.5742	4,141.11	78.6243	4,141.11	78.9372	4,141.11	73.17	4,141.11	78.54	4,141.11	78.3367	4,141.11	78.5562	4,141.11	80.5567	4,141.11	74.3174	4,141.11	80.0242	4,141.11	75.6915	4,141.11	73.5396	4,141.11	74.2601	4,141.11	74.4182	4,141.11	70.3177	4,141.11	74.0303	4,141.11	68.5304	4,141.11	70.2495	4,141.11	63.7481	4,141.11	66.9664	4,141.11	64.5487	4,141.11	69.1999	4,141.11	64.6629	4,141.11	66.3964	4,141.11	65.1408	4,141.11	59.8024	4,141.11	59.0025	4,141.11	64.4621	4,141.11	59.7557	4,141.11	64.1307	4,141.11	63.4697
4,287.6	77.4175	4,287.6	79.0051	4,287.6	78.836	4,287.6	78.6259	4,287.6	79.8875	4,287.6	77.1986	4,287.6	79.3568	4,287.6	79.698	4,287.6	72.4411	4,287.6	79.251	4,287.6	77.0678	4,287.6	77.02	4,287.6	79.4206	4,287.6	76.7654	4,287.6	78.4452	4,287.6	75.5489	4,287.6	74.6158	4,287.6	65.5249	4,287.6	76.8983	4,287.6	69.3596	4,287.6	69.5388	4,287.6	65.9608	4,287.6	63.0472	4,287.6	66.29	4,287.6	61.4045	4,287.6	64.7381	4,287.6	67.9027	4,287.6	65.7869	4,287.6	64.0322	4,287.6	64.8213	4,287.6	61.3256	4,287.6	57.675	4,287.6	59.2602	4,287.6	58.2407	4,287.6	66.7406	4,287.6	64.5685
4,438.48	78.0746	4,438.48	80.1389	4,438.48	78.5671	4,438.48	76.3814	4,438.48	79.3927	4,438.48	79.7506	4,438.48	79.749	4,438.48	79.3431	4,438.48	75.2138	4,438.48	78.9217	4,438.48	75.963	4,438.48	79.0273	4,438.48	77.9214	4,438.48	77.0291	4,438.48	75.9665	4,438.48	72.6901	4,438.48	75.7771	4,438.48	74.98	4,438.48	76.2127	4,438.48	70.1076	4,438.48	66.4114	4,438.48	67.5046	4,438.48	51.0806	4,438.48	65.1839	4,438.48	55.4718	4,438.48	64.8162	4,438.48	65.0116	4,438.48	64.9421	4,438.48	65.5345	4,438.48	65.5007	4,438.48	63.4111	4,438.48	60.4884	4,438.48	51.0476	4,438.48	51.17	4,438.48	67.2214	4,438.48	65.4616
4,595.21	79.8508	4,595.21	79.1525	4,595.21	79.9552	4,595.21	78.7898	4,595.21	79.6173	4,595.21	79.5318	4,595.21	80.5116	4,595.21	79.3891	4,595.21	76.5791	4,595.21	78.8418	4,595.21	74.9342	4,595.21	78.2604	4,595.21	76.8541	4,595.21	74.261	4,595.21	76.4301	4,595.21	76.1814	4,595.21	76.7479	4,595.21	68.4043	4,595.21	72.0924	4,595.21	69.0774	4,595.21	30.4051	4,595.21	66.8529	4,595.21	60.8828	4,595.21	65.6797	4,595.21	66.2999	4,595.21	62.461	4,595.21	67.0092	4,595.21	63.2384	4,595.21	66.8933	4,595.21	64.8042	4,595.21	61.944	4,595.21	56.8816	4,595.21	56.5548	4,595.21	50.739	4,595.21	66.287	4,595.21	59.3196
4,756.35	79.576	4,756.35	78.7557	4,756.35	79.0571	4,756.35	78.7461	4,756.35	81.2763	4,756.35	79.5102	4,756.35	79.7509	4,756.35	79.285	4,756.35	78.1488	4,756.35	79.2581	4,756.35	71.9733	4,756.35	76.9371	4,756.35	77.7388	4,756.35	76.2402	4,756.35	77.0917	4,756.35	67.6176	4,756.35	77.3094	4,756.35	72.3555	4,756.35	68.8825	4,756.35	67.0016	4,756.35	63.2752	4,756.35	66.8521	4,756.35	67.616	4,756.35	63.9799	4,756.35	67.9539	4,756.35	63.4193	4,756.35	64.7604	4,756.35	62.4848	4,756.35	67.2977	4,756.35	63.5474	4,756.35	60.7522	4,756.35	56.064	4,756.35	58.2115	4,756.35	56.6399	4,756.35	66.9749	4,756.35	63.6921
4,924.8	79.6866	4,924.8	78.7091	4,924.8	77.7397	4,924.8	79.3141	4,924.8	80.3418	4,924.8	79.5579	4,924.8	79.8478	4,924.8	79.4233	4,924.8	78.1952	4,924.8	77.2737	4,924.8	74.2687	4,924.8	77.0812	4,924.8	78.5758	4,924.8	72.3422	4,924.8	78.8634	4,924.8	75.4886	4,924.8	76.5538	4,924.8	68.8942	4,924.8	67.3037	4,924.8	69.7528	4,924.8	66.8839	4,924.8	65.3904	4,924.8	61.6688	4,924.8	64.7781	4,924.8	64.2016	4,924.8	64.8089	4,924.8	62.8782	4,924.8	64.4553	4,924.8	65.3659	4,924.8	60.9419	4,924.8	60.4069	4,924.8	61.0903	4,924.8	60.9419	4,924.8	54.1181	4,924.8	64.2008	4,924.8	65.9684
5,097.66	81.0704	5,097.66	78.2294	5,097.66	78.6759	5,097.66	80.1721	5,097.66	79.7922	5,097.66	79.5092	5,097.66	80.8199	5,097.66	78.6516	5,097.66	78.1371	5,097.66	78.154	5,097.66	76.8197	5,097.66	74.8988	5,097.66	78.1155	5,097.66	74.3072	5,097.66	79.3771	5,097.66	69.9676	5,097.66	73.2179	5,097.66	71.0892	5,097.66	68.5469	5,097.66	67.4893	5,097.66	62.7682	5,097.66	66.0907	5,097.66	61.3169	5,097.66	64.7822	5,097.66	65.2827	5,097.66	64.9543	5,097.66	64.0817	5,097.66	64.0299	5,097.66	64.5338	5,097.66	63.9288	5,097.66	59.886	5,097.66	57.0996	5,097.66	61.8926	5,097.66	52.8215	5,097.66	63.1766	5,097.66	61.4114
5,277.83	79.0999	5,277.83	78.9646	5,277.83	80.0252	5,277.83	79.633	5,277.83	79.3347	5,277.83	79.3585	5,277.83	81.6271	5,277.83	78.6601	5,277.83	78.0005	5,277.83	76.9331	5,277.83	74.9539	5,277.83	76.4161	5,277.83	78.4781	5,277.83	73.7672	5,277.83	78.4826	5,277.83	75.2819	5,277.83	67.0548	5,277.83	71.1301	5,277.83	67.8689	5,277.83	69.802	5,277.83	62.5637	5,277.83	65.4861	5,277.83	60.0365	5,277.83	64.0626	5,277.83	66.7633	5,277.83	65.4113	5,277.83	66.1669	5,277.83	64.1013	5,277.83	64.0973	5,277.83	64.521	5,277.83	59.6978	5,277.83	62.2667	5,277.83	59.1538	5,277.83	39.3575	5,277.83	63.8583	5,277.83	60.0688
5,463.87	78.9034	5,463.87	79.5555	5,463.87	79.6726	5,463.87	80.1103	5,463.87	78.0004	5,463.87	79.4319	5,463.87	80.7611	5,463.87	78.0126	5,463.87	78.0222	5,463.87	77.6103	5,463.87	73.7692	5,463.87	76.7441	5,463.87	77.5341	5,463.87	75.8871	5,463.87	77.1673	5,463.87	72.7854	5,463.87	69.583	5,463.87	71.2138	5,463.87	71.4194	5,463.87	68.2717	5,463.87	61.3834	5,463.87	66.3503	5,463.87	57.5005	5,463.87	64.5914	5,463.87	63.2084	5,463.87	64.8872	5,463.87	65.6281	5,463.87	65.0077	5,463.87	62.0915	5,463.87	64.6066	5,463.87	63.0648	5,463.87	62.0467	5,463.87	52.2644	5,463.87	50.2964	5,463.87	60.7815	5,463.87	58.7437
5,657.23	78.934	5,657.23	79.6576	5,657.23	79.7045	5,657.23	79.3004	5,657.23	77.7734	5,657.23	78.5378	5,657.23	80.4226	5,657.23	78.253	5,657.23	78.7098	5,657.23	77.557	5,657.23	73.8239	5,657.23	77.3954	5,657.23	76.3867	5,657.23	75.1256	5,657.23	72.6268	5,657.23	74.5542	5,657.23	71.8509	5,657.23	70.9521	5,657.23	66.8826	5,657.23	68.3356	5,657.23	62.0804	5,657.23	65.774	5,657.23	60.7471	5,657.23	63.4406	5,657.23	61.5891	5,657.23	64.5796	5,657.23	65.4433	5,657.23	61.1319	5,657.23	60.6854	5,657.23	65.3447	5,657.23	61.4842	5,657.23	60.9344	5,657.23	49.8904	5,657.23	50.2445	5,657.23	61.2904	5,657.23	60.4953
5,856.45	78.8679	5,856.45	79.8722	5,856.45	80.2031	5,856.45	79.6054	5,856.45	78.3285	5,856.45	78.5615	5,856.45	80.5954	5,856.45	78.1945	5,856.45	79.4709	5,856.45	78.0563	5,856.45	73.7036	5,856.45	77.1717	5,856.45	72.5618	5,856.45	74.6553	5,856.45	72.6904	5,856.45	70.5468	5,856.45	73.9721	5,856.45	69.158	5,856.45	66.7604	5,856.45	66.3763	5,856.45	61.4199	5,856.45	63.0977	5,856.45	58.0381	5,856.45	62.7559	5,856.45	58.0901	5,856.45	62.6226	5,856.45	65.818	5,856.45	60.6363	5,856.45	60.9667	5,856.45	64.7698	5,856.45	58.146	5,856.45	60.6267	5,856.45	54.0254	5,856.45	45.6053	5,856.45	61.5284	5,856.45	54.5017
6,062.99	78.6584	6,062.99	80.1569	6,062.99	79.7057	6,062.99	78.2836	6,062.99	77.1923	6,062.99	78.8708	6,062.99	80.2507	6,062.99	77.783	6,062.99	79.4685	6,062.99	78.6817	6,062.99	72.3508	6,062.99	76.3477	6,062.99	71.5482	6,062.99	72.4928	6,062.99	74.0368	6,062.99	71.0091	6,062.99	75.9753	6,062.99	67.8264	6,062.99	67.8055	6,062.99	66.379	6,062.99	58.5744	6,062.99	62.2325	6,062.99	56.555	6,062.99	61.4337	6,062.99	61.0006	6,062.99	62.1868	6,062.99	64.9897	6,062.99	61.2874	6,062.99	55.561	6,062.99	64.1637	6,062.99	58.6257	6,062.99	62.9548	6,062.99	53.5999	6,062.99	56.4067	6,062.99	62.6941	6,062.99	41.0679
6,276.86	79.4722	6,276.86	79.174	6,276.86	79.363	6,276.86	79.2704	6,276.86	78.2361	6,276.86	78.5105	6,276.86	78.8438	6,276.86	79.017	6,276.86	79.394	6,276.86	78.1621	6,276.86	73.1811	6,276.86	75.5543	6,276.86	73.0453	6,276.86	73.1228	6,276.86	75.301	6,276.86	71.9334	6,276.86	75.8242	6,276.86	70.0721	6,276.86	67.1339	6,276.86	67.1083	6,276.86	61.8852	6,276.86	63.6086	6,276.86	60.0252	6,276.86	62.3009	6,276.86	58.6823	6,276.86	63.1316	6,276.86	61.8876	6,276.86	62.9417	6,276.86	49.3926	6,276.86	64.7824	6,276.86	54.8548	6,276.86	63.7299	6,276.86	55.0572	6,276.86	58.7784	6,276.86	62.3986	6,276.86	51.3083
6,498.05	79.6724	6,498.05	79.7404	6,498.05	79.5615	6,498.05	78.5691	6,498.05	78.4802	6,498.05	78.3497	6,498.05	77.9775	6,498.05	78.8363	6,498.05	79.1538	6,498.05	77.4109	6,498.05	75.7002	6,498.05	76.2117	6,498.05	73.6637	6,498.05	74.6526	6,498.05	75.8345	6,498.05	72.0281	6,498.05	74.618	6,498.05	68.2985	6,498.05	69.255	6,498.05	66.7828	6,498.05	62.5238	6,498.05	63.0507	6,498.05	63.028	6,498.05	63.5814	6,498.05	57.499	6,498.05	62.9689	6,498.05	64.5156	6,498.05	63.0426	6,498.05	57.1127	6,498.05	64.3019	6,498.05	54.8108	6,498.05	63.4615	6,498.05	55.3946	6,498.05	57.5308	6,498.05	56.7262	6,498.05	53.7582
6,726.56	79.8864	6,726.56	79.1672	6,726.56	79.3893	6,726.56	79.0815	6,726.56	78.7195	6,726.56	78.4513	6,726.56	77.8893	6,726.56	78.5289	6,726.56	79.5916	6,726.56	77.2246	6,726.56	75.8642	6,726.56	76.8095	6,726.56	73.8105	6,726.56	74.9037	6,726.56	74.9024	6,726.56	72.1661	6,726.56	70.2895	6,726.56	69.1786	6,726.56	69.9637	6,726.56	65.9265	6,726.56	63.8401	6,726.56	62.2493	6,726.56	58.3286	6,726.56	62.0376	6,726.56	56.5985	6,726.56	62.6918	6,726.56	63.4655	6,726.56	61.8219	6,726.56	62.1293	6,726.56	64.0701	6,726.56	54.6163	6,726.56	63.6399	6,726.56	57.3824	6,726.56	58.8357	6,726.56	59.9831	6,726.56	52.3559
6,963.87	80.0933	6,963.87	79.3004	6,963.87	79.6849	6,963.87	78.4366	6,963.87	78.9746	6,963.87	78.6251	6,963.87	77.4817	6,963.87	77.3054	6,963.87	78.9488	6,963.87	77.8187	6,963.87	73.847	6,963.87	76.7143	6,963.87	73.5158	6,963.87	74.0589	6,963.87	74.1729	6,963.87	70.0996	6,963.87	67.1602	6,963.87	68.1947	6,963.87	66.4505	6,963.87	64.72	6,963.87	61.1228	6,963.87	60.8706	6,963.87	43.8158	6,963.87	60.421	6,963.87	53.0933	6,963.87	60.8958	6,963.87	62.5811	6,963.87	61.0616	6,963.87	61.3559	6,963.87	63.4635	6,963.87	51.4244	6,963.87	63.0893	6,963.87	56.9349	6,963.87	58.2607	6,963.87	56.6073	6,963.87	46.2797
7,209.96	79.7692	7,209.96	79.1621	7,209.96	79.5679	7,209.96	78.5924	7,209.96	79.2273	7,209.96	78.6666	7,209.96	76.8698	7,209.96	76.9541	7,209.96	77.1945	7,209.96	78.1883	7,209.96	71.9672	7,209.96	75.9639	7,209.96	72.7732	7,209.96	73.7969	7,209.96	74.9112	7,209.96	70.4744	7,209.96	68.2822	7,209.96	67.9741	7,209.96	69.4049	7,209.96	64.9369	7,209.96	61.4454	7,209.96	61.6724	7,209.96	35.1792	7,209.96	61.2766	7,209.96	50.6797	7,209.96	60.0623	7,209.96	63.0914	7,209.96	61.3393	7,209.96	60.6284	7,209.96	63.5197	7,209.96	53.4552	7,209.96	63.3283	7,209.96	56.3429	7,209.96	59.7794	7,209.96	56.7528	7,209.96	50.3679
7,464.84	80.3867	7,464.84	79.0653	7,464.84	79.813	7,464.84	78.8138	7,464.84	79.5422	7,464.84	78.0491	7,464.84	78.5922	7,464.84	76.622	7,464.84	78.3091	7,464.84	78.0863	7,464.84	72.962	7,464.84	75.9248	7,464.84	71.7943	7,464.84	73.9436	7,464.84	73.0958	7,464.84	71.1465	7,464.84	72.289	7,464.84	68.6052	7,464.84	67.9503	7,464.84	64.7598	7,464.84	62.2215	7,464.84	61.3448	7,464.84	53.5825	7,464.84	60.9338	7,464.84	53.1531	7,464.84	59.5687	7,464.84	55.345	7,464.84	60.5275	7,464.84	55.3659	7,464.84	63.2756	7,464.84	51.5748	7,464.84	63.8441	7,464.84	54.9247	7,464.84	57.9063	7,464.84	55.0479	7,464.84	49.1495
7,727.05	79.8132	7,727.05	78.8096	7,727.05	79.9042	7,727.05	79.3951	7,727.05	78.9006	7,727.05	77.2855	7,727.05	77.9546	7,727.05	77.5499	7,727.05	79.3846	7,727.05	77.094	7,727.05	75.6442	7,727.05	76.5943	7,727.05	69.9699	7,727.05	74.4022	7,727.05	73.6857	7,727.05	70.3402	7,727.05	74.5636	7,727.05	67.4693	7,727.05	66.9623	7,727.05	63.3792	7,727.05	59.0397	7,727.05	61.161	7,727.05	53.8224	7,727.05	59.3269	7,727.05	58.8299	7,727.05	57.7924	7,727.05	53.8039	7,727.05	60.0925	7,727.05	45.5674	7,727.05	61.7025	7,727.05	48.8098	7,727.05	63.1877	7,727.05	56.1936	7,727.05	59.4085	7,727.05	56.1986	7,727.05	47.3536
7,999.51	80.4433	7,999.51	79.0639	7,999.51	79.6918	7,999.51	79.0986	7,999.51	80.3421	7,999.51	77.2561	7,999.51	75.8502	7,999.51	77.6791	7,999.51	78.9896	7,999.51	77.2608	7,999.51	76.4724	7,999.51	75.9254	7,999.51	68.638	7,999.51	73.2715	7,999.51	75.6455	7,999.51	68.76	7,999.51	74.323	7,999.51	65.1378	7,999.51	67.8708	7,999.51	61.732	7,999.51	60.2175	7,999.51	60.3272	7,999.51	59.1363	7,999.51	57.5698	7,999.51	59.7916	7,999.51	56.0101	7,999.51	54.2753	7,999.51	59.2119	7,999.51	54.502	7,999.51	62.0385	7,999.51	47.4199	7,999.51	61.5438	7,999.51	56.8573	7,999.51	59.4937	7,999.51	55.1411	7,999.51	47.2882
8,282.23	80.0251	8,282.23	80.0248	8,282.23	80.1326	8,282.23	78.3638	8,282.23	79.5352	8,282.23	77.9714	8,282.23	77.9268	8,282.23	77.5092	8,282.23	76.8859	8,282.23	76.9218	8,282.23	76.7797	8,282.23	74.9683	8,282.23	69.1886	8,282.23	71.1156	8,282.23	75.5608	8,282.23	68.2563	8,282.23	74.1979	8,282.23	65.8397	8,282.23	67.8992	8,282.23	62.0433	8,282.23	51.5903	8,282.23	60.0778	8,282.23	57.0495	8,282.23	57.7899	8,282.23	56.432	8,282.23	57.2465	8,282.23	54.9435	8,282.23	59.0141	8,282.23	57.8232	8,282.23	60.6709	8,282.23	34.4713	8,282.23	62.0718	8,282.23	55.892	8,282.23	61.0119	8,282.23	52.2634	8,282.23	43.845
8,573.73	80.006	8,573.73	79.9443	8,573.73	80.5584	8,573.73	78.2693	8,573.73	79.5853	8,573.73	78.9006	8,573.73	76.7008	8,573.73	76.7235	8,573.73	77.978	8,573.73	76.9127	8,573.73	77.6417	8,573.73	73.5133	8,573.73	71.2381	8,573.73	73.2883	8,573.73	75.3578	8,573.73	70.3858	8,573.73	70.5556	8,573.73	67.0788	8,573.73	64.6351	8,573.73	63.1615	8,573.73	54.1783	8,573.73	59.3783	8,573.73	54.3801	8,573.73	58.4716	8,573.73	54.9576	8,573.73	56.6131	8,573.73	57.512	8,573.73	59.3093	8,573.73	57.6985	8,573.73	60.9091	8,573.73	49.3675	8,573.73	62.6857	8,573.73	52.2536	8,573.73	60.4318	8,573.73	54.0411	8,573.73	40.9584
8,876.95	80.245	8,876.95	80.0102	8,876.95	80.403	8,876.95	79.0475	8,876.95	79.6258	8,876.95	78.9278	8,876.95	78.3351	8,876.95	76.9757	8,876.95	77.9372	8,876.95	75.9424	8,876.95	78.7369	8,876.95	75.1079	8,876.95	70.5195	8,876.95	73.4711	8,876.95	75.3095	8,876.95	69.2925	8,876.95	63.9788	8,876.95	66.485	8,876.95	63.9724	8,876.95	61.8981	8,876.95	57.0587	8,876.95	59.4658	8,876.95	59.3295	8,876.95	56.4516	8,876.95	52.7404	8,876.95	55.1099	8,876.95	54.5327	8,876.95	58.7868	8,876.95	51.963	8,876.95	60.1823	8,876.95	40.4119	8,876.95	62.6124	8,876.95	56.685	8,876.95	61.18	8,876.95	54.3959	8,876.95	31.7357
9,188.96	80.4624	9,188.96	79.5069	9,188.96	80.7118	9,188.96	80.2419	9,188.96	79.3716	9,188.96	78.4565	9,188.96	78.6542	9,188.96	77.303	9,188.96	77.2823	9,188.96	75.5411	9,188.96	78.9764	9,188.96	75.8774	9,188.96	71.2043	9,188.96	72.2672	9,188.96	72.4942	9,188.96	68.3268	9,188.96	66.6958	9,188.96	66.7772	9,188.96	67.5249	9,188.96	62.0489	9,188.96	62.9538	9,188.96	60.0486	9,188.96	61.3752	9,188.96	54.8216	9,188.96	50.8343	9,188.96	56.5894	9,188.96	51.6372	9,188.96	57.0861	9,188.96	55.7595	9,188.96	58.893	9,188.96	45.198	9,188.96	62.2217	9,188.96	57.9273	9,188.96	59.9111	9,188.96	49.6873	9,188.96	42.2436
9,514.16	80.5294	9,514.16	79.7806	9,514.16	80.7148	9,514.16	80.5772	9,514.16	79.7558	9,514.16	78.5276	9,514.16	79.3017	9,514.16	76.8357	9,514.16	77.8732	9,514.16	76.8411	9,514.16	78.1657	9,514.16	74.5242	9,514.16	72.0689	9,514.16	73.7422	9,514.16	69.6763	9,514.16	68.3878	9,514.16	70.8009	9,514.16	66.7092	9,514.16	66.5858	9,514.16	61.186	9,514.16	64.1962	9,514.16	59.4877	9,514.16	60.8885	9,514.16	53.1284	9,514.16	40.9731	9,514.16	58.2944	9,514.16	54.3273	9,514.16	56.0148	9,514.16	58.4103	9,514.16	58.2891	9,514.16	47.8682	9,514.16	61.467	9,514.16	51.6661	9,514.16	59.5035	9,514.16	48.5888	9,514.16	45.5658
9,849.61	80.1911	9,849.61	80.412	9,849.61	81.218	9,849.61	80.2698	9,849.61	80.0821	9,849.61	78.7875	9,849.61	78.909	9,849.61	76.4174	9,849.61	78.1127	9,849.61	76.8485	9,849.61	77.6369	9,849.61	74.4115	9,849.61	72.8676	9,849.61	73.3408	9,849.61	68.4415	9,849.61	68.1153	9,849.61	73.9178	9,849.61	65.4936	9,849.61	64.7079	9,849.61	60.5244	9,849.61	63.4666	9,849.61	58.3387	9,849.61	57.7781	9,849.61	54.4807	9,849.61	50.3815	9,849.61	57.0096	9,849.61	51.8313	9,849.61	55.9513	9,849.61	59.7428	9,849.61	57.8826	9,849.61	50.4771	9,849.61	60.2508	9,849.61	51.7044	9,849.61	59.3279	9,849.61	50.6191	9,849.61	38.3221
10,196.8	79.9434	10,196.8	80.2251	10,196.8	81.2585	10,196.8	79.8016	10,196.8	80.6667	10,196.8	77.9362	10,196.8	79.2411	10,196.8	76.5175	10,196.8	77.7308	10,196.8	76.2721	10,196.8	76.4035	10,196.8	74.3872	10,196.8	73.0704	10,196.8	71.2951	10,196.8	71.3543	10,196.8	68.1165	10,196.8	73.3355	10,196.8	63.2657	10,196.8	61.1964	10,196.8	59.9229	10,196.8	63.7634	10,196.8	57.5115	10,196.8	52.7739	10,196.8	54.8744	10,196.8	51.4793	10,196.8	54.4749	10,196.8	46.0447	10,196.8	56.538	10,196.8	56.1478	10,196.8	56.2207	10,196.8	53.978	10,196.8	59.4297	10,196.8	53.1713	10,196.8	57.2203	10,196.8	51.0463	10,196.8	43.9061
10,555.7	79.6572	10,555.7	80.167	10,555.7	80.3273	10,555.7	79.6455	10,555.7	80.5363	10,555.7	77.2288	10,555.7	79.0316	10,555.7	76.2982	10,555.7	78.3445	10,555.7	75.5348	10,555.7	76.5329	10,555.7	72.7137	10,555.7	74.1143	10,555.7	71.1981	10,555.7	72.1574	10,555.7	67.1256	10,555.7	71.3537	10,555.7	63.5627	10,555.7	62.7913	10,555.7	59.7555	10,555.7	57.7214	10,555.7	55.1576	10,555.7	53.7781	10,555.7	54.0563	10,555.7	36.181	10,555.7	52.6765	10,555.7	34.6853	10,555.7	55.1194	10,555.7	55.2095	10,555.7	52.5489	10,555.7	51.3739	10,555.7	57.9825	10,555.7	45.734	10,555.7	56.9781	10,555.7	51.59	10,555.7	46.8058
10,927.7	79.5172	10,927.7	80.2199	10,927.7	79.3747	10,927.7	79.0987	10,927.7	80.2363	10,927.7	77.139	10,927.7	78.5093	10,927.7	75.7035	10,927.7	77.0317	10,927.7	73.9742	10,927.7	75.8937	10,927.7	72.5684	10,927.7	74.4373	10,927.7	70.9082	10,927.7	70.7364	10,927.7	66.3628	10,927.7	65.9384	10,927.7	62.4926	10,927.7	62.1652	10,927.7	59.0184	10,927.7	55.4046	10,927.7	56.0516	10,927.7	53.3462	10,927.7	49.4513	10,927.7	46.2752	10,927.7	51.4955	10,927.7	50.8343	10,927.7	53.3077	10,927.7	51.1319	10,927.7	51.6749	10,927.7	39.2715	10,927.7	56.674	10,927.7	44.289	10,927.7	56.2686	10,927.7	51.7502	10,927.7	46.9023
11,313	79.5701	11,313	79.9496	11,313	79.0863	11,313	78.688	11,313	79.7305	11,313	77.2116	11,313	78.5483	11,313	74.431	11,313	75.6034	11,313	74.0471	11,313	75.1632	11,313	72.165	11,313	74.5436	11,313	69.9799	11,313	65.742	11,313	65.3249	11,313	68.495	11,313	59.4022	11,313	62.7224	11,313	56.1762	11,313	47.6537	11,313	53.9572	11,313	57.2059	11,313	49.3341	11,313	47.6551	11,313	50.4646	11,313	49.6571	11,313	53.1984	11,313	51.3918	11,313	49.6393	11,313	49.9323	11,313	54.859	11,313	46.2561	11,313	54.9332	11,313	49.1361	11,313	42.1681
11,712.9	79.7874	11,712.9	79.494	11,712.9	78.7816	11,712.9	78.7771	11,712.9	79.2204	11,712.9	76.8403	11,712.9	77.7296	11,712.9	74.6075	11,712.9	74.4122	11,712.9	74.2177	11,712.9	74.019	11,712.9	70.5505	11,712.9	72.3649	11,712.9	68.9622	11,712.9	64.3801	11,712.9	63.2046	11,712.9	67.6918	11,712.9	59.2084	11,712.9	59.8962	11,712.9	56.5124	11,712.9	54.368	11,712.9	52.1151	11,712.9	54.1139	11,712.9	48.2598	11,712.9	50.0306	11,712.9	49.4584	11,712.9	50.1614	11,712.9	52.7324	11,712.9	47.9229	11,712.9	51.5915	11,712.9	48.4521	11,712.9	53.2192	11,712.9	41.1336	11,712.9	54.2072	11,712.9	47.3795	11,712.9	45.0087
12,126	79.5158	12,126	79.4111	12,126	78.6739	12,126	78.7025	12,126	78.5358	12,126	76.4681	12,126	76.9503	12,126	75.0071	12,126	73.4249	12,126	73.0098	12,126	71.9927	12,126	69.9706	12,126	69.4942	12,126	68.298	12,126	64.4011	12,126	63.5138	12,126	64.7357	12,126	59.313	12,126	55.4967	12,126	55.2097	12,126	47.6544	12,126	52.2847	12,126	46.9162	12,126	44.9211	12,126	41.2073	12,126	48.6783	12,126	37.7679	12,126	51.8575	12,126	46.5246	12,126	50.8906	12,126	31.0129	12,126	51.4224	12,126	43.9724	12,126	52.729	12,126	48.4716	12,126	41.8462
12,553.7	79.2751	12,553.7	79.1714	12,553.7	78.749	12,553.7	78.0763	12,553.7	77.794	12,553.7	76.3759	12,553.7	76.4887	12,553.7	74.133	12,553.7	72.9296	12,553.7	72.4388	12,553.7	71.3478	12,553.7	68.9181	12,553.7	68.5074	12,553.7	66.9822	12,553.7	62.7225	12,553.7	61.1134	12,553.7	64.9155	12,553.7	56.7364	12,553.7	54.3562	12,553.7	52.3628	12,553.7	44.9699	12,553.7	50.46	12,553.7	51.5005	12,553.7	44.1698	12,553.7	29.7161	12,553.7	47.5079	12,553.7	39.2332	12,553.7	49.8494	12,553.7	45.0836	12,553.7	48.7603	12,553.7	36.2376	12,553.7	49.0281	12,553.7	40.4031	12,553.7	51.1149	12,553.7	46.6581	12,553.7	42.5551
12,996.1	79.2563	12,996.1	78.5494	12,996.1	78.5933	12,996.1	77.7015	12,996.1	77.4612	12,996.1	75.7657	12,996.1	75.754	12,996.1	73.3847	12,996.1	72.9683	12,996.1	71.4704	12,996.1	70.8967	12,996.1	67.3686	12,996.1	69.449	12,996.1	64.9854	12,996.1	61.1406	12,996.1	59.8466	12,996.1	63.5206	12,996.1	54.1106	12,996.1	56.6235	12,996.1	50.5232	12,996.1	50.5508	12,996.1	46.0463	12,996.1	44.1872	12,996.1	44.614	12,996.1	40.068	12,996.1	45.7523	12,996.1	29.2525	12,996.1	47.1036	12,996.1	42.7722	12,996.1	45.5917	12,996.1	24.4529	12,996.1	47.9995	12,996.1	45.7273	12,996.1	49.3618	12,996.1	46.3097	12,996.1	40.7675
13,454.6	79.155	13,454.6	78.0513	13,454.6	78.5572	13,454.6	77.2146	13,454.6	77.3041	13,454.6	75.0417	13,454.6	75.4904	13,454.6	72.61	13,454.6	74.0344	13,454.6	70.1241	13,454.6	70.9081	13,454.6	66.3735	13,454.6	69.0737	13,454.6	63.0694	13,454.6	60.6366	13,454.6	58.8474	13,454.6	58.2968	13,454.6	54.1468	13,454.6	55.7764	13,454.6	49.8149	13,454.6	51.7122	13,454.6	44.7825	13,454.6	45.1725	13,454.6	43.3529	13,454.6	24.6917	13,454.6	41.6438	13,454.6	29.9581	13,454.6	44.3425	13,454.6	38.416	13,454.6	45.0498	13,454.6	44.281	13,454.6	46.7275	13,454.6	41.9698	13,454.6	47.2845	13,454.6	42.6049	13,454.6	40.9021
13,929.2	78.9396	13,929.2	78.0262	13,929.2	78.4417	13,929.2	77.129	13,929.2	77.344	13,929.2	74.6566	13,929.2	75.366	13,929.2	71.7157	13,929.2	73.4647	13,929.2	69.6628	13,929.2	69.5686	13,929.2	64.8297	13,929.2	66.2527	13,929.2	62.3451	13,929.2	62.0273	13,929.2	58.002	13,929.2	58.3076	13,929.2	50.7991	13,929.2	54.5706	13,929.2	48.8964	13,929.2	49.9899	13,929.2	44.1854	13,929.2	45.6859	13,929.2	40.7562	13,929.2	36.9406	13,929.2	34.9166	13,929.2	32.7997	13,929.2	45.1899	13,929.2	38.6017	13,929.2	45.4322	13,929.2	41.8066	13,929.2	47.6878	13,929.2	43.1738	13,929.2	46.8329	13,929.2	40.3041	13,929.2	39.4478
14,419.9	78.7566	14,419.9	77.9473	14,419.9	78.1188	14,419.9	77.4303	14,419.9	76.8763	14,419.9	74.2537	14,419.9	74.9083	14,419.9	71.8417	14,419.9	72.6644	14,419.9	68.6429	14,419.9	68.485	14,419.9	64.8128	14,419.9	64.3621	14,419.9	61.8795	14,419.9	59.4365	14,419.9	57.269	14,419.9	57.8751	14,419.9	49.7701	14,419.9	52.5659	14,419.9	48.5183	14,419.9	43.3012	14,419.9	41.9734	14,419.9	45.2021	14,419.9	37.0051	14,419.9	40.6651	14,419.9	41.1154	14,419.9	35.2677	14,419.9	44.5509	14,419.9	32.7384	14,419.9	44.9307	14,419.9	38.9542	14,419.9	47.8344	14,419.9	39.0795	14,419.9	43.3289	14,419.9	40.7709	14,419.9	38.1291
14,928.2	78.52	14,928.2	77.8603	14,928.2	77.6488	14,928.2	77.1738	14,928.2	76.1126	14,928.2	74.4009	14,928.2	74.166	14,928.2	71.156	14,928.2	70.9938	14,928.2	68.5068	14,928.2	66.975	14,928.2	63.5907	14,928.2	63.2064	14,928.2	60.8683	14,928.2	57.7445	14,928.2	56.138	14,928.2	53.0034	14,928.2	48.9357	14,928.2	47.5727	14,928.2	44.9235	14,928.2	32.2649	14,928.2	37.8602	14,928.2	42.4206	14,928.2	34.7342	14,928.2	41.317	14,928.2	38.3074	14,928.2	36.3324	14,928.2	43.2043	14,928.2	26.3607	14,928.2	43.1689	14,928.2	32.3429	14,928.2	44.4944	14,928.2	42.0334	14,928.2	40.5883	14,928.2	32.1511	14,928.2	36.5284
15,455.6	78.336	15,455.6	77.8841	15,455.6	77.3575	15,455.6	76.7825	15,455.6	75.6341	15,455.6	74.1035	15,455.6	73.0338	15,455.6	70.6879	15,455.6	70.1483	15,455.6	67.6348	15,455.6	65.6718	15,455.6	62.2338	15,455.6	59.1242	15,455.6	58.7053	15,455.6	56.3202	15,455.6	53.0212	15,455.6	46.0307	15,455.6	44.0191	15,455.6	44.0255	15,455.6	42.5401	15,455.6	42.8693	15,455.6	35.8068	15,455.6	38.119	15,455.6	31.3451	15,455.6	39.9198	15,455.6	35.2169	15,455.6	32.1125	15,455.6	40.0895	15,455.6	25.7934	15,455.6	39.8562	15,455.6	22.3432	15,455.6	42.8364	15,455.6	37.4491	15,455.6	38.2373	15,455.6	33.1922	15,455.6	36.928
16,000.5	78.1985	16,000.5	77.6412	16,000.5	77.2563	16,000.5	76.4021	16,000.5	75.6149	16,000.5	73.3624	16,000.5	72.2144	16,000.5	70.0174	16,000.5	68.9814	16,000.5	66.3233	16,000.5	63.4165	16,000.5	59.7483	16,000.5	59.3493	16,000.5	55.0594	16,000.5	55.2031	16,000.5	49.1606	16,000.5	45.8857	16,000.5	35.6747	16,000.5	42.7528	16,000.5	37.8117	16,000.5	41.6882	16,000.5	28.6434	16,000.5	39.8621	16,000.5	28.5162	16,000.5	38.663	16,000.5	30.8724	16,000.5	34.76	16,000.5	33.5432	16,000.5	23.2986	16,000.5	32.7297	16,000.5	24.7648	16,000.5	36.6067	16,000.5	32.4555	16,000.5	36.7791	16,000.5	31.1009	16,000.5	38.0522
16,564.5	78.033	16,564.5	77.2062	16,564.5	76.8792	16,564.5	75.9995	16,564.5	75.4009	16,564.5	72.8024	16,564.5	71.4299	16,564.5	69.192	16,564.5	67.3768	16,564.5	64.9242	16,564.5	62.6652	16,564.5	57.1986	16,564.5	58.0809	16,564.5	51.635	16,564.5	55.1185	16,564.5	44.7184	16,564.5	42.7278	16,564.5	26.8632	16,564.5	37.6834	16,564.5	32.6578	16,564.5	36.803	16,564.5	22.3475	16,564.5	43.2315	16,564.5	27.2939	16,564.5	34.3143	16,564.5	23.8826	16,564.5	36.5338	16,564.5	31.0917	16,564.5	31.3587	16,564.5	18.8455	16,564.5	23.3263	16,564.5	35.9713	16,564.5	34.1127	16,564.5	35.2681	16,564.5	26.5804	16,564.5	36.7578
17,148.9	77.7342	17,148.9	76.7821	17,148.9	76.4333	17,148.9	75.4573	17,148.9	74.867	17,148.9	72.2179	17,148.9	70.8773	17,148.9	67.9782	17,148.9	65.6542	17,148.9	63.339	17,148.9	59.8505	17,148.9	53.6418	17,148.9	55.0452	17,148.9	46.7835	17,148.9	53.5746	17,148.9	38.3554	17,148.9	32.9908	17,148.9	34.652	17,148.9	38.7493	17,148.9	13.2528	17,148.9	34.1285	17,148.9	29.9644	17,148.9	43.1761	17,148.9	26.0595	17,148.9	33.1103	17,148.9	20.8287	17,148.9	35.1336	17,148.9	26.9557	17,148.9	33.0954	17,148.9	26.9672	17,148.9	24.6097	17,148.9	30.2656	17,148.9	28.7851	17,148.9	31.9841	17,148.9	23.5137	17,148.9	35.7537
17,752.4	77.5697	17,752.4	76.8688	17,752.4	76.142	17,752.4	75.3834	17,752.4	74.0462	17,752.4	71.5389	17,752.4	70.412	17,752.4	67.0277	17,752.4	64.0068	17,752.4	61.1719	17,752.4	56.4274	17,752.4	50.0694	17,752.4	52.1734	17,752.4	43.2763	17,752.4	49.9707	17,752.4	38.8099	17,752.4	44.5782	17,752.4	41.6861	17,752.4	41.6914	17,752.4	32.0522	17,752.4	38.7033	17,752.4	35.439	17,752.4	42.2749	17,752.4	24.8665	17,752.4	30.592	17,752.4	17.022	17,752.4	34.327	17,752.4	33.3193	17,752.4	32.9004	17,752.4	33.6052	17,752.4	14.8734	17,752.4	31.2177	17,752.4	25.0457	17,752.4	32.1266	17,752.4	28.4213	17,752.4	35.2768
18,379.4	77.4748	18,379.4	76.7061	18,379.4	75.8043	18,379.4	74.9871	18,379.4	73.3021	18,379.4	70.9431	18,379.4	69.2233	18,379.4	65.5647	18,379.4	62.7845	18,379.4	59.4015	18,379.4	52.8756	18,379.4	43.3909	18,379.4	53.5739	18,379.4	46.1205	18,379.4	47.9209	18,379.4	44.8129	18,379.4	45.3299	18,379.4	42.5745	18,379.4	36.3639	18,379.4	36.4618	18,379.4	36.8609	18,379.4	36.602	18,379.4	36.7773	18,379.4	20.1728	18,379.4	29.2323	18,379.4	18.6369	18,379.4	32.5754	18,379.4	35.8017	18,379.4	23.2731	18,379.4	35.1102	18,379.4	24.8896	18,379.4	35.7145	18,379.4	20.626	18,379.4	34.2113	18,379.4	27.1365	18,379.4	34.9866
19,026.9	77.0528	19,026.9	76.1484	19,026.9	75.4098	19,026.9	74.1988	19,026.9	72.6561	19,026.9	69.6657	19,026.9	67.6975	19,026.9	63.9713	19,026.9	60.5231	19,026.9	57.0846	19,026.9	46.5862	19,026.9	41.6382	19,026.9	50.0398	19,026.9	49.334	19,026.9	52.9284	19,026.9	46.3817	19,026.9	39.7003	19,026.9	43.2286	19,026.9	40.5425	19,026.9	36.1917	19,026.9	26.9262	19,026.9	38.5503	19,026.9	40.1017	19,026.9	25.1742	19,026.9	32.8069	19,026.9	18.1735	19,026.9	33.1764	19,026.9	35.3508	19,026.9	27.6193	19,026.9	35.951	19,026.9	30.3161	19,026.9	36.134	19,026.9	24.4196	19,026.9	32.6822	19,026.9	27.8012	19,026.9	33.8749
19,697.8	76.4613	19,697.8	75.4556	19,697.8	74.9717	19,697.8	73.3194	19,697.8	71.8599	19,697.8	68.1903	19,697.8	66.5572	19,697.8	62.115	19,697.8	58.0708	19,697.8	52.4974	19,697.8	43.5917	19,697.8	47.8244	19,697.8	54.488	19,697.8	49.9035	19,697.8	54.0794	19,697.8	48.1126	19,697.8	45.3001	19,697.8	44.1831	19,697.8	39.3356	19,697.8	38.6824	19,697.8	33.9812	19,697.8	38.3308	19,697.8	43.1792	19,697.8	20.9367	19,697.8	32.3536	19,697.8	23.0511	19,697.8	31.3012	19,697.8	34.0499	19,697.8	23.1489	19,697.8	34.8046	19,697.8	27.6855	19,697.8	34.9924	19,697.8	27.4973	19,697.8	32.2011	19,697.8	31.9927	19,697.8	33.393
19,999.5	76.2302	19,999.5	75.1302	19,999.5	74.7349	19,999.5	73.0048	19,999.5	71.5961	19,999.5	67.0742	19,999.5	65.6887	19,999.5	61.2351	19,999.5	58.7422	19,999.5	49.0503	19,999.5	46.8902	19,999.5	48.7725	19,999.5	57.0752	19,999.5	50.3136	19,999.5	54.8877	19,999.5	50.4215	19,999.5	44.609	19,999.5	43.2569	19,999.5	40.2235	19,999.5	41.3848	19,999.5	40.2542	19,999.5	37.1163	19,999.5	45.7357	19,999.5	26.0325	19,999.5	36.6041	19,999.5	30.6446	19,999.5	33.6525	19,999.5	43.5477	19,999.5	33.8066	19,999.5	31.6094	19,999.5	18.3939	19,999.5	44.656	19,999.5	40.3061	19,999.5	39.7853	19,999.5	35.3128	19,999.5	35.3701
