"SPL Vertical"																																																																							
"On-Axis"		"10°"		"-10°"		"20°"		"-20°"		"30°"		"-30°"		"40°"		"-40°"		"50°"		"-50°"		"60°"		"-60°"		"70°"		"-70°"		"80°"		"-80°"		"90°"		"-90°"		"100°"		"-100°"		"110°"		"-110°"		"120°"		"-120°"		"130°"		"-130°"		"140°"		"-140°"		"150°"		"-150°"		"160°"		"-160°"		"170°"		"-170°"		"180°"	
"Frequency [Hz]"	"Sound Pessure Level [dB]  / [2.83V 1m] "	"Frequency [Hz]"	"Sound Pessure Level [dB]  / [2.83V 1m] "	"Frequency [Hz]"	"Sound Pessure Level [dB]  / [2.83V 1m] "	"Frequency [Hz]"	"Sound Pessure Level [dB]  / [2.83V 1m] "	"Frequency [Hz]"	"Sound Pessure Level [dB]  / [2.83V 1m] "	"Frequency [Hz]"	"Sound Pessure Level [dB]  / [2.83V 1m] "	"Frequency [Hz]"	"Sound Pessure Level [dB]  / [2.83V 1m] "	"Frequency [Hz]"	"Sound Pessure Level [dB]  / [2.83V 1m] "	"Frequency [Hz]"	"Sound Pessure Level [dB]  / [2.83V 1m] "	"Frequency [Hz]"	"Sound Pessure Level [dB]  / [2.83V 1m] "	"Frequency [Hz]"	"Sound Pessure Level [dB]  / [2.83V 1m] "	"Frequency [Hz]"	"Sound Pessure Level [dB]  / [2.83V 1m] "	"Frequency [Hz]"	"Sound Pessure Level [dB]  / [2.83V 1m] "	"Frequency [Hz]"	"Sound Pessure Level [dB]  / [2.83V 1m] "	"Frequency [Hz]"	"Sound Pessure Level [dB]  / [2.83V 1m] "	"Frequency [Hz]"	"Sound Pessure Level [dB]  / [2.83V 1m] "	"Frequency [Hz]"	"Sound Pessure Level [dB]  / [2.83V 1m] "	"Frequency [Hz]"	"Sound Pessure Level [dB]  / [2.83V 1m] "	"Frequency [Hz]"	"Sound Pessure Level [dB]  / [2.83V 1m] "	"Frequency [Hz]"	"Sound Pessure Level [dB]  / [2.83V 1m] "	"Frequency [Hz]"	"Sound Pessure Level [dB]  / [2.83V 1m] "	"Frequency [Hz]"	"Sound Pessure Level [dB]  / [2.83V 1m] "	"Frequency [Hz]"	"Sound Pessure Level [dB]  / [2.83V 1m] "	"Frequency [Hz]"	"Sound Pessure Level [dB]  / [2.83V 1m] "	"Frequency [Hz]"	"Sound Pessure Level [dB]  / [2.83V 1m] "	"Frequency [Hz]"	"Sound Pessure Level [dB]  / [2.83V 1m] "	"Frequency [Hz]"	"Sound Pessure Level [dB]  / [2.83V 1m] "	"Frequency [Hz]"	"Sound Pessure Level [dB]  / [2.83V 1m] "	"Frequency [Hz]"	"Sound Pessure Level [dB]  / [2.83V 1m] "	"Frequency [Hz]"	"Sound Pessure Level [dB]  / [2.83V 1m] "	"Frequency [Hz]"	"Sound Pessure Level [dB]  / [2.83V 1m] "	"Frequency [Hz]"	"Sound Pessure Level [dB]  / [2.83V 1m] "	"Frequency [Hz]"	"Sound Pessure Level [dB]  / [2.83V 1m] "	"Frequency [Hz]"	"Sound Pessure Level [dB]  / [2.83V 1m] "	"Frequency [Hz]"	"Sound Pessure Level [dB]  / [2.83V 1m] "	"Frequency [Hz]"	"Sound Pessure Level [dB]  / [2.83V 1m] "
20.5078	45.4473	20.5078	45.7572	20.5078	45.3519	20.5078	46.2899	20.5078	45.4338	20.5078	47.0157	20.5078	45.6518	20.5078	47.8792	20.5078	45.9858	20.5078	48.8205	20.5078	46.4481	20.5078	49.7894	20.5078	47.0746	20.5078	50.7502	20.5078	47.8984	20.5078	51.679	20.5078	48.9166	20.5078	52.5608	20.5078	50.0776	20.5078	53.3852	20.5078	51.2987	20.5078	54.1441	20.5078	52.4952	20.5078	54.8299	20.5078	53.6001	20.5078	55.4344	20.5078	54.5685	20.5078	55.9482	20.5078	55.3745	20.5078	56.3605	20.5078	56.0063	20.5078	56.6593	20.5078	56.4617	20.5078	56.8317	20.5078	56.7449	20.5078	56.8645
21.9727	43.191	21.9727	44.3451	21.9727	42.323	21.9727	45.6693	21.9727	41.8558	21.9727	47.0637	21.9727	41.8952	21.9727	48.4571	21.9727	42.5265	21.9727	49.8063	21.9727	43.7545	21.9727	51.0884	21.9727	45.4476	21.9727	52.2932	21.9727	47.3886	21.9727	53.4168	21.9727	49.3786	21.9727	54.458	21.9727	51.2844	21.9727	55.4163	21.9727	53.0312	21.9727	56.29	21.9727	54.5811	21.9727	57.0759	21.9727	55.9169	21.9727	57.7682	21.9727	57.0329	21.9727	58.359	21.9727	57.9298	21.9727	58.8382	21.9727	58.6129	21.9727	59.1935	21.9727	59.0907	21.9727	59.411	21.9727	59.3741	21.9727	59.4761
23.4375	39.6191	23.4375	38.1152	23.4375	40.8809	23.4375	37.458	23.4375	41.6166	23.4375	38.9282	23.4375	41.7649	23.4375	41.6267	23.4375	41.2633	23.4375	44.3141	23.4375	40.0207	23.4375	46.6565	23.4375	38.193	23.4375	48.6568	23.4375	37.6854	23.4375	50.3731	23.4375	40.7514	23.4375	51.8574	23.4375	44.676	23.4375	53.1474	23.4375	47.9687	23.4375	54.2686	23.4375	50.59	23.4375	55.2362	23.4375	52.6702	23.4375	56.0578	23.4375	54.3123	23.4375	56.7342	23.4375	55.5868	23.4375	57.2611	23.4375	56.543	23.4375	57.6294	23.4375	57.2179	23.4375	57.8266	23.4375	57.6409	23.4375	57.8367
24.9023	32.5963	24.9023	20.8167	24.9023	36.4474	24.9023	29.6393	24.9023	38.1085	24.9023	37.6614	24.9023	38.4083	24.9023	42.1534	24.9023	37.3418	24.9023	45.3264	24.9023	34.1299	24.9023	47.789	24.9023	26.2801	24.9023	49.7988	24.9023	33.8741	24.9023	51.4891	24.9023	41.2974	24.9023	52.9368	24.9023	45.9173	24.9023	54.1886	24.9023	49.2494	24.9023	55.2735	24.9023	51.8043	24.9023	56.2084	24.9023	53.809	24.9023	57.0017	24.9023	55.3842	24.9023	57.6551	24.9023	56.603	24.9023	58.165	24.9023	57.5146	24.9023	58.5233	24.9023	58.1552	24.9023	58.7181	24.9023	58.5536	24.9023	58.7343
26.3672	38.0088	26.3672	35.6321	26.3672	39.867	26.3672	35.8328	26.3672	40.7689	26.3672	39.5644	26.3672	40.7037	26.3672	43.3162	26.3672	39.4703	26.3672	46.3448	26.3672	36.3555	26.3672	48.7967	26.3672	30.4264	26.3672	50.8319	26.3672	36.1905	26.3672	52.5576	26.3672	43.0545	26.3672	54.0426	26.3672	47.5408	26.3672	55.3312	26.3672	50.8103	26.3672	56.4515	26.3672	53.3264	26.3672	57.4203	26.3672	55.3036	26.3672	58.2461	26.3672	56.8575	26.3672	58.9304	26.3672	58.058	26.3672	59.4696	26.3672	58.9523	26.3672	59.8553	26.3672	59.5753	26.3672	60.0754	26.3672	59.9548	26.3672	60.1146
27.832	42.9473	27.832	41.8275	27.832	43.9378	27.832	41.4672	27.832	44.4777	27.832	42.76	27.832	44.4601	27.832	45.1282	27.832	43.8037	27.832	47.6107	27.832	42.4637	27.832	49.8489	27.832	40.9403	27.832	51.7969	27.832	41.6019	27.832	53.4866	27.832	45.0559	27.832	54.9576	27.832	48.7169	27.832	56.2417	27.832	51.7585	27.832	57.3614	27.832	54.2028	27.832	58.3306	27.832	56.1579	27.832	59.1563	27.832	57.7079	27.832	59.8394	27.832	58.9124	27.832	60.3758	27.832	59.814	27.832	60.757	27.832	60.4458	27.832	60.971	27.832	60.8343	27.832	61.0027
29.2969	47.6496	29.2969	47.1155	29.2969	48.1704	29.2969	46.9146	29.2969	48.4825	29.2969	47.4135	29.2969	48.493	29.2969	48.6491	29.2969	48.1701	29.2969	50.3023	29.2969	47.5758	29.2969	52.0482	29.2969	47.0337	29.2969	53.715	29.2969	47.3142	29.2969	55.2408	29.2969	48.9598	29.2969	56.6129	29.2969	51.3912	29.2969	57.8353	29.2969	53.8471	29.2969	58.9154	29.2969	56.0144	29.2969	59.859	29.2969	57.8296	29.2969	60.6681	29.2969	59.304	29.2969	61.3408	29.2969	60.4653	29.2969	61.8712	29.2969	61.3412	29.2969	62.2498	29.2969	61.9571	29.2969	62.4639	29.2969	62.3359	29.2969	62.4984
30.7617	52.3802	30.7617	51.861	30.7617	52.8204	30.7617	51.4207	30.7617	53.0912	30.7617	51.2869	30.7617	53.1434	30.7617	51.6613	30.7617	52.9555	30.7617	52.5623	30.7617	52.5457	30.7617	53.8154	30.7617	52.0303	30.7617	55.208	30.7617	51.7316	30.7617	56.5949	30.7617	52.156	30.7617	57.902	30.7617	53.5086	30.7617	59.098	30.7617	55.3962	30.7617	60.1711	30.7617	57.3348	30.7617	61.1167	30.7617	59.0746	30.7617	61.9316	30.7617	60.534	30.7617	62.6108	30.7617	61.7018	30.7617	63.1467	30.7617	62.5901	30.7617	63.5287	30.7617	63.2182	30.7617	63.7434	30.7617	63.6066	30.7617	63.7753
32.2266	55.5347	32.2266	55.1062	32.2266	55.8923	32.2266	54.7075	32.2266	56.1173	32.2266	54.4825	32.2266	56.1744	32.2266	54.5846	32.2266	56.0497	32.2266	55.096	32.2266	55.7606	32.2266	55.97	32.2266	55.389	32.2266	57.0714	32.2266	55.1356	32.2266	58.2622	32.2266	55.3209	32.2266	59.4455	32.2266	56.1744	32.2266	60.5655	32.2266	57.5738	32.2266	61.5927	32.2266	59.1804	32.2266	62.5111	32.2266	60.7242	32.2266	63.3104	32.2266	62.0711	32.2266	63.9814	32.2266	63.1729	32.2266	64.5141	32.2266	64.0212	32.2266	64.8966	32.2266	64.624	32.2266	65.1151	32.2266	64.9959	32.2266	65.1538
33.6914	58.5316	33.6914	58.1009	33.6914	58.8812	33.6914	57.6538	33.6914	59.109	33.6914	57.2875	33.6914	59.1903	33.6914	57.1256	33.6914	59.1136	33.6914	57.2795	33.6914	58.886	33.6914	57.788	33.6914	58.5517	33.6914	58.5928	33.6914	58.2253	33.6914	59.5796	33.6914	58.1172	33.6914	60.637	33.6914	58.4677	33.6914	61.6845	33.6914	59.353	33.6914	62.6719	33.6914	60.5965	33.6914	63.5696	33.6914	61.9352	33.6914	64.3585	33.6914	63.1796	33.6914	65.0244	33.6914	64.2341	33.6914	65.5545	33.6914	65.0626	33.6914	65.9352	33.6914	65.6586	33.6914	66.1518	33.6914	66.0296	33.6914	66.1887
35.1563	60.3858	35.1563	59.953	35.1563	60.7322	35.1563	59.486	35.1563	60.9588	35.1563	59.0644	35.1563	61.0443	35.1563	58.7959	35.1563	60.9774	35.1563	58.7934	35.1563	60.7609	35.1563	59.1241	35.1563	60.426	35.1563	59.7687	35.1563	60.0594	35.1563	60.6357	35.1563	59.8317	35.1563	61.6144	35.1563	59.9702	35.1563	62.6141	35.1563	60.6106	35.1563	63.5733	35.1563	61.6591	35.1563	64.4542	35.1563	62.879	35.1563	65.2324	35.1563	64.0618	35.1563	65.8907	35.1563	65.0877	35.1563	66.4144	35.1563	65.9048	35.1563	66.7895	35.1563	66.4979	35.1563	67.0008	35.1563	66.8703	35.1563	67.033
36.6211	62.1299	36.6211	61.7531	36.6211	62.4366	36.6211	61.3543	36.6211	62.641	36.6211	61.0029	36.6211	62.7228	36.6211	60.7875	36.6211	62.6721	36.6211	60.7973	36.6211	62.4935	36.6211	61.0866	36.6211	62.2187	36.6211	61.646	36.6211	61.9264	36.6211	62.409	36.6211	61.7608	36.6211	63.2868	36.6211	61.9051	36.6211	64.2	36.6211	62.4708	36.6211	65.0899	36.6211	63.3951	36.6211	65.9167	36.6211	64.4909	36.6211	66.6538	36.6211	65.5755	36.6211	67.2814	36.6211	66.5319	36.6211	67.783	36.6211	67.3026	36.6211	68.1433	36.6211	67.8665	36.6211	68.3467	36.6211	68.2222	36.6211	68.378
38.0859	64.1137	38.0859	63.7929	38.0859	64.3793	38.0859	63.4577	38.0859	64.5619	38.0859	63.1635	38.0859	64.6432	38.0859	62.9784	38.0859	64.6155	38.0859	62.9707	38.0859	64.4847	38.0859	63.1867	38.0859	64.2794	38.0859	63.63	38.0859	64.0655	38.0859	64.2605	38.0859	63.9548	38.0859	65.0133	38.0859	64.0849	38.0859	65.8213	38.0859	64.5466	38.0859	66.629	38.0859	65.3111	38.0859	67.3948	38.0859	66.246	38.0859	68.0881	38.0859	67.2003	38.0859	68.6858	38.0859	68.0624	38.0859	69.1686	38.0859	68.7685	38.0859	69.5191	38.0859	69.2898	38.0859	69.721	38.0859	69.6185	38.0859	69.7587
39.5508	66.0529	39.5508	65.7614	39.5508	66.2978	39.5508	65.4554	39.5508	66.4732	39.5508	65.1779	39.5508	66.5641	39.5508	64.9811	39.5508	66.5643	39.5508	64.9195	39.5508	66.4787	39.5508	65.0361	39.5508	66.33	39.5508	65.3465	39.5508	66.1675	39.5508	65.8328	39.5508	66.0728	39.5508	66.451	39.5508	66.1479	39.5508	67.1461	39.5508	66.4719	39.5508	67.8659	39.5508	67.0476	39.5508	68.5669	39.5508	67.7939	39.5508	69.2148	39.5508	68.5925	39.5508	69.7824	39.5508	69.3394	39.5508	70.2475	39.5508	69.965	39.5508	70.5907	39.5508	70.4319	39.5508	70.7944	39.5508	70.725	39.5508	70.8433
41.0156	68.0347	41.0156	67.7758	41.0156	68.2542	41.0156	67.5036	41.0156	68.4156	41.0156	67.2511	41.0156	68.506	41.0156	67.0583	41.0156	68.5198	41.0156	66.9673	41.0156	68.461	41.0156	67.0148	41.0156	68.3478	41.0156	67.2211	41.0156	68.2191	41.0156	67.5832	41.0156	68.1383	41.0156	68.0753	41.0156	68.1848	41.0156	68.6574	41.0156	68.4254	41.0156	69.2848	41.0156	68.8751	41.0156	69.9159	41.0156	69.4825	41.0156	70.5146	41.0156	70.1557	41.0156	71.0508	41.0156	70.802	41.0156	71.4992	41.0156	71.3523	41.0156	71.8376	41.0156	71.7647	41.0156	72.0471	41.0156	72.0193	41.0156	72.1116
42.4805	68.9783	42.4805	68.7139	42.4805	69.2017	42.4805	68.4321	42.4805	69.3669	42.4805	68.1635	42.4805	69.4621	42.4805	67.9455	42.4805	69.4819	42.4805	67.8192	42.4805	69.4294	42.4805	67.8222	42.4805	69.3196	42.4805	67.9783	42.4805	69.1858	42.4805	68.2897	42.4805	69.0829	42.4805	68.7354	42.4805	69.0825	42.4805	69.278	42.4805	69.2502	42.4805	69.8733	42.4805	69.612	42.4805	70.4786	42.4805	70.1338	42.4805	71.0565	42.4805	70.737	42.4805	71.5754	42.4805	71.3338	42.4805	72.009	42.4805	71.8534	42.4805	72.335	42.4805	72.2496	42.4805	72.5346	42.4805	72.4986	42.4805	72.5926
43.9453	69.9871	43.9453	69.7443	43.9453	70.1961	43.9453	69.4894	43.9453	70.3551	43.9453	69.2503	43.9453	70.4533	43.9453	69.0598	43.9453	70.4861	43.9453	68.9538	43.9453	70.4565	43.9453	68.9642	43.9453	70.379	43.9453	69.1118	43.9453	70.2837	43.9453	69.3991	43.9453	70.2184	43.9453	69.8093	43.9453	70.2431	43.9453	70.3108	43.9453	70.4122	43.9453	70.8649	43.9453	70.7472	43.9453	71.4327	43.9453	71.2207	43.9453	71.9788	43.9453	71.7674	43.9453	72.4725	43.9453	72.3109	43.9453	72.8878	43.9453	72.7864	43.9453	73.2024	43.9453	73.15	43.9453	73.3978	43.9453	73.3772	43.9453	73.4592
45.4102	70.9893	45.4102	70.7694	45.4102	71.1821	45.4102	70.5422	45.4102	71.3327	45.4102	70.3325	45.4102	71.4312	45.4102	70.169	45.4102	71.4732	45.4102	70.0819	45.4102	71.4617	45.4102	70.098	45.4102	71.4099	45.4102	70.2346	45.4102	71.3444	45.4102	70.4946	45.4102	71.3064	45.4102	70.8649	45.4102	71.3468	45.4102	71.3196	45.4102	71.5108	45.4102	71.8258	45.4102	71.8168	45.4102	72.3488	45.4102	72.2431	45.4102	72.8561	45.4102	72.7349	45.4102	73.3183	45.4102	73.2259	45.4102	73.7101	45.4102	73.6574	45.4102	74.0095	45.4102	73.9875	45.4102	74.1983	45.4102	74.1923	45.4102	74.2621
46.875	72.1139	46.875	71.9212	46.875	72.2859	46.875	71.7255	46.875	72.4237	46.875	71.5484	46.875	72.5183	46.875	71.4141	46.875	72.5659	46.875	71.3478	46.875	72.5697	46.875	71.3716	46.875	72.5417	46.875	71.4998	46.875	72.5054	46.875	71.7356	46.875	72.4962	46.875	72.0692	46.875	72.5562	46.875	72.4801	46.875	72.7223	46.875	72.9406	46.875	73.0089	46.875	73.4205	46.875	73.398	46.875	73.8901	46.875	73.8439	46.875	74.3218	46.875	74.289	46.875	74.6907	46.875	74.6809	46.875	74.9754	46.875	74.9807	46.875	75.1577	46.875	75.1648	46.875	75.2236
48.3398	73.1684	48.3398	72.9898	48.3398	73.3307	48.3398	72.8109	48.3398	73.4648	48.3398	72.6511	48.3398	73.5627	48.3398	72.5322	48.3398	73.6215	48.3398	72.4765	48.3398	73.6445	48.3398	72.5036	48.3398	73.6434	48.3398	72.6269	48.3398	73.6394	48.3398	72.8496	48.3398	73.6631	48.3398	73.1642	48.3398	73.7498	48.3398	73.5528	48.3398	73.9291	48.3398	73.9909	48.3398	74.211	48.3398	74.4507	48.3398	74.579	48.3398	74.904	48.3398	74.993	48.3398	75.3243	48.3398	75.4027	48.3398	75.6872	48.3398	75.7609	48.3398	75.9713	48.3398	76.0318	48.3398	76.1585	48.3398	76.1931	48.3398	76.2352
51.2695	74.811	51.2695	74.6598	51.2695	74.9559	51.2695	74.5149	51.2695	75.0849	51.2695	74.3909	51.2695	75.1916	51.2695	74.3039	51.2695	75.2733	51.2695	74.2699	51.2695	75.3323	51.2695	74.3028	51.2695	75.3766	51.2695	74.4121	51.2695	75.4208	51.2695	74.601	51.2695	75.4855	51.2695	74.8647	51.2695	75.5936	51.2695	75.1913	51.2695	75.7638	51.2695	75.563	51.2695	76.0031	51.2695	75.9582	51.2695	76.3007	51.2695	76.3536	51.2695	76.6296	51.2695	76.7259	51.2695	76.9533	51.2695	77.0532	51.2695	77.2353	51.2695	77.3152	51.2695	77.4454	51.2695	77.4952	51.2695	77.5636	51.2695	77.5803
52.7344	75.6229	52.7344	75.4852	52.7344	75.7584	52.7344	75.356	52.7344	75.8831	52.7344	75.2482	52.7344	75.9911	52.7344	75.1754	52.7344	76.0798	52.7344	75.151	52.7344	76.1511	52.7344	75.1868	52.7344	76.2113	52.7344	75.2908	52.7344	76.2725	52.7344	75.4657	52.7344	76.3511	52.7344	75.7078	52.7344	76.4657	52.7344	76.0074	52.7344	76.6312	52.7344	76.3492	52.7344	76.853	52.7344	76.7143	52.7344	77.1224	52.7344	77.0818	52.7344	77.4168	52.7344	77.4301	52.7344	77.7052	52.7344	77.7384	52.7344	77.9554	52.7344	77.9877	52.7344	78.1403	52.7344	78.1617	52.7344	78.241	52.7344	78.2484
54.1992	76.462	54.1992	76.3382	54.1992	76.5872	54.1992	76.2253	54.1992	76.7062	54.1992	76.1345	54.1992	76.8136	54.1992	76.0773	54.1992	76.907	54.1992	76.0651	54.1992	76.9878	54.1992	76.1076	54.1992	77.0612	54.1992	76.2113	54.1992	77.1372	54.1992	76.3786	54.1992	77.2293	54.1992	76.6062	54.1992	77.3525	54.1992	76.8857	54.1992	77.5186	54.1992	77.2041	54.1992	77.7316	54.1992	77.5446	54.1992	77.9835	54.1992	77.8885	54.1992	78.2548	54.1992	78.216	54.1992	78.5183	54.1992	78.5076	54.1992	78.7455	54.1992	78.7453	54.1992	78.9116	54.1992	78.9133	54.1992	78.9994	54.1992	79.0001
55.6641	77.2281	55.6641	77.117	55.6641	77.3434	55.6641	77.0185	55.6641	77.4564	55.6641	76.9417	55.6641	77.5623	55.6641	76.8965	55.6641	77.659	55.6641	76.8923	55.6641	77.7474	55.6641	76.9372	55.6641	77.8318	55.6641	77.0369	55.6641	77.9201	55.6641	77.1931	55.6641	78.0233	55.6641	77.4037	55.6641	78.153	55.6641	77.6617	55.6641	78.3184	55.6641	77.9561	55.6641	78.522	55.6641	78.2723	55.6641	78.7566	55.6641	78.5935	55.6641	79.0052	55.6641	78.9016	55.6641	79.244	55.6641	79.1782	55.6641	79.4478	55.6641	79.4062	55.6641	79.5941	55.6641	79.5704	55.6641	79.6674	55.6641	79.6596
58.5938	78.5495	58.5938	78.4509	58.5938	78.6558	58.5938	78.3662	58.5938	78.7651	58.5938	78.3021	58.5938	78.8734	58.5938	78.2656	58.5938	78.9789	58.5938	78.2635	58.5938	79.0814	58.5938	78.3018	58.5938	79.1832	58.5938	78.3849	58.5938	79.2887	58.5938	78.5149	58.5938	79.4045	58.5938	78.6908	58.5938	79.5374	58.5938	78.9082	58.5938	79.6926	58.5938	79.1595	58.5938	79.8712	58.5938	79.4334	58.5938	80.0672	58.5938	79.7164	58.5938	80.2681	58.5938	79.993	58.5938	80.4558	58.5938	80.2471	58.5938	80.6105	58.5938	80.4626	58.5938	80.7145	58.5938	80.6256	58.5938	80.7548	58.5938	80.725
60.0586	79.1277	60.0586	79.0314	60.0586	79.233	60.0586	78.9495	60.0586	79.3429	60.0586	78.8878	60.0586	79.4539	60.0586	78.8526	60.0586	79.564	60.0586	78.85	60.0586	79.6728	60.0586	78.8851	60.0586	79.7817	60.0586	78.9622	60.0586	79.894	60.0586	79.0832	60.0586	80.0146	60.0586	79.2477	60.0586	80.1488	60.0586	79.4519	60.0586	80.3003	60.0586	79.6889	60.0586	80.4696	60.0586	79.949	60.0586	80.6512	60.0586	80.2195	60.0586	80.834	60.0586	80.4858	60.0586	81.002	60.0586	80.7326	60.0586	81.1375	60.0586	80.9445	60.0586	81.2246	60.0586	81.108	60.0586	81.2514	60.0586	81.2124
62.9883	80.223	62.9883	80.14	62.9883	80.3185	62.9883	80.0733	62.9883	80.4233	62.9883	80.0271	62.9883	80.5348	62.9883	80.0054	62.9883	80.6508	62.9883	80.0125	62.9883	80.7705	62.9883	80.0519	62.9883	80.8937	62.9883	80.1265	62.9883	81.0214	62.9883	80.2377	62.9883	81.1553	62.9883	80.3852	62.9883	81.2971	62.9883	80.5663	62.9883	81.4479	62.9883	80.7759	62.9883	81.6061	62.9883	81.0064	62.9883	81.7668	62.9883	81.2477	62.9883	81.9211	62.9883	81.4876	62.9883	82.0568	62.9883	81.7131	62.9883	82.1605	62.9883	81.9107	62.9883	82.22	62.9883	82.068	62.9883	82.2263	62.9883	82.1752
64.4531	80.6582	64.4531	80.581	64.4531	80.7497	64.4531	80.521	64.4531	80.8528	64.4531	80.4816	64.4531	80.9652	64.4531	80.466	64.4531	81.0849	64.4531	80.4775	64.4531	81.2106	64.4531	80.5189	64.4531	81.3415	64.4531	80.5926	64.4531	81.4774	64.4531	80.6996	64.4531	81.6185	64.4531	80.8398	64.4531	81.7651	64.4531	81.0109	64.4531	81.9165	64.4531	81.2086	64.4531	82.0706	64.4531	81.4263	64.4531	82.2226	64.4531	81.6551	64.4531	82.3644	64.4531	81.884	64.4531	82.4856	64.4531	82.1009	64.4531	82.5746	64.4531	82.2931	64.4531	82.6207	64.4531	82.4489	64.4531	82.6165	64.4531	82.5587
67.3828	81.221	67.3828	81.1458	67.3828	81.3129	67.3828	81.0892	67.3828	81.4192	67.3828	81.0534	67.3828	81.5379	67.3828	81.0404	67.3828	81.6666	67.3828	81.0522	67.3828	81.8032	67.3828	81.0908	67.3828	81.9454	67.3828	81.1576	67.3828	82.0913	67.3828	81.2535	67.3828	82.2391	67.3828	81.3783	67.3828	82.3868	67.3828	81.5308	67.3828	82.5326	67.3828	81.7079	67.3828	82.6735	67.3828	81.9044	67.3828	82.805	67.3828	82.1133	67.3828	82.9208	67.3828	82.3255	67.3828	83.013	67.3828	82.5305	67.3828	83.0727	67.3828	82.717	67.3828	83.0922	67.3828	82.8741	67.3828	83.0661	67.3828	82.9925
68.8477	81.4833	68.8477	81.4096	68.8477	81.5745	68.8477	81.3553	68.8477	81.6814	68.8477	81.3219	68.8477	81.8019	68.8477	81.3109	68.8477	81.9339	68.8477	81.3241	68.8477	82.0748	68.8477	81.3627	68.8477	82.222	68.8477	81.428	68.8477	82.3729	68.8477	81.5207	68.8477	82.525	68.8477	81.6409	68.8477	82.6754	68.8477	81.7872	68.8477	82.8214	68.8477	81.957	68.8477	82.9596	68.8477	82.146	68.8477	83.0854	68.8477	82.3478	68.8477	83.1929	68.8477	82.5539	68.8477	83.2749	68.8477	82.7545	68.8477	83.324	68.8477	82.9389	68.8477	83.3333	68.8477	83.0966	68.8477	83.2985	68.8477	83.2187
71.7773	82.525	71.7773	82.4589	71.7773	82.6101	71.7773	82.4128	71.7773	82.7131	71.7773	82.3869	71.7773	82.8326	71.7773	82.382	71.7773	82.9661	71.7773	82.3984	71.7773	83.111	71.7773	82.4366	71.7773	83.2635	71.7773	82.4972	71.7773	83.4197	71.7773	82.5805	71.7773	83.5752	71.7773	82.6865	71.7773	83.7255	71.7773	82.8146	71.7773	83.8663	71.7773	82.963	71.7773	83.9933	71.7773	83.1288	71.7773	84.102	71.7773	83.3072	71.7773	84.1879	71.7773	83.4918	71.7773	84.246	71.7773	83.6745	71.7773	84.2714	71.7773	83.8464	71.7773	84.2601	71.7773	83.9981	71.7773	84.2099	71.7773	84.1214
74.707	83.0982	74.707	83.035	74.707	83.1814	74.707	82.9919	74.707	83.284	74.707	82.9686	74.707	83.4044	74.707	82.9647	74.707	83.5403	74.707	82.9798	74.707	83.6881	74.707	83.0137	74.707	83.8433	74.707	83.0664	74.707	84.0008	74.707	83.1378	74.707	84.1549	74.707	83.2282	74.707	84.2998	74.707	83.3373	74.707	84.4304	74.707	83.4643	74.707	84.5421	74.707	83.6075	74.707	84.6308	74.707	83.7637	74.707	84.6932	74.707	83.9283	74.707	84.7262	74.707	84.0949	74.707	84.7273	74.707	84.256	74.707	84.6947	74.707	84.4035	74.707	84.6282	74.707	84.5297
77.6367	83.2563	77.6367	83.1934	77.6367	83.3406	77.6367	83.1517	77.6367	83.446	77.6367	83.1304	77.6367	83.571	77.6367	83.1283	77.6367	83.713	77.6367	83.1446	77.6367	83.8681	77.6367	83.1786	77.6367	84.0311	77.6367	83.2297	77.6367	84.1962	77.6367	83.2977	77.6367	84.3566	77.6367	83.3828	77.6367	84.5058	77.6367	83.485	77.6367	84.6376	77.6367	83.6039	77.6367	84.7468	77.6367	83.7385	77.6367	84.8293	77.6367	83.8867	77.6367	84.8817	77.6367	84.0448	77.6367	84.9019	77.6367	84.2075	77.6367	84.8885	77.6367	84.368	77.6367	84.8412	77.6367	84.5187	77.6367	84.7613	77.6367	84.6521
79.1016	83.6862	79.1016	83.6241	79.1016	83.7701	79.1016	83.5833	79.1016	83.8756	79.1016	83.5628	79.1016	84.0011	79.1016	83.5612	79.1016	84.1441	79.1016	83.5773	79.1016	84.3006	79.1016	83.6102	79.1016	84.465	79.1016	83.6591	79.1016	84.6312	79.1016	83.7239	79.1016	84.7921	79.1016	83.8045	79.1016	84.9407	79.1016	83.901	79.1016	85.0704	79.1016	84.0134	79.1016	85.1758	79.1016	84.141	79.1016	85.2526	79.1016	84.2821	79.1016	85.2978	79.1016	84.4338	79.1016	85.3097	79.1016	84.5913	79.1016	85.2878	79.1016	84.7485	79.1016	85.2327	79.1016	84.8983	79.1016	85.1466	79.1016	85.0333
82.0313	84.4903	82.0313	84.4265	82.0313	84.5757	82.0313	84.3834	82.0313	84.6823	82.0313	84.3598	82.0313	84.8087	82.0313	84.3539	82.0313	84.9521	82.0313	84.364	82.0313	85.1082	82.0313	84.3888	82.0313	85.2711	82.0313	84.427	82.0313	85.4339	82.0313	84.4781	82.0313	85.5888	82.0313	84.542	82.0313	85.728	82.0313	84.6191	82.0313	85.8442	82.0313	84.7099	82.0313	85.9316	82.0313	84.8147	82.0313	85.9862	82.0313	84.9331	82.0313	86.0059	82.0313	85.064	82.0313	85.9906	82.0313	85.2045	82.0313	85.942	82.0313	85.3503	82.0313	85.8633	82.0313	85.4957	82.0313	85.7588	82.0313	85.6341
84.9609	84.6852	84.9609	84.6208	84.9609	84.7684	84.9609	84.574	84.9609	84.8706	84.9609	84.5431	84.9609	84.9905	84.9609	84.526	84.9609	85.1255	84.9609	84.5208	84.9609	85.2713	84.9609	84.5259	84.9609	85.4221	84.9609	84.5401	84.9609	85.5705	84.9609	84.5632	84.9609	85.7085	84.9609	84.5956	84.9609	85.8277	84.9609	84.6386	84.9609	85.9206	84.9609	84.6941	84.9609	85.9814	84.9609	84.7639	84.9609	86.0061	84.9609	84.8499	84.9609	85.9936	84.9609	84.9529	84.9609	85.9454	84.9609	85.0721	84.9609	85.8651	84.9609	85.205	84.9609	85.758	84.9609	85.3468	84.9609	85.6309	84.9609	85.4912
87.8906	85.3078	87.8906	85.2381	87.8906	85.3941	87.8906	85.1838	87.8906	85.4973	87.8906	85.1429	87.8906	85.6162	87.8906	85.1132	87.8906	85.748	87.8906	85.0928	87.8906	85.8882	87.8906	85.0799	87.8906	86.0308	87.8906	85.0739	87.8906	86.168	87.8906	85.0748	87.8906	86.2915	87.8906	85.0836	87.8906	86.3929	87.8906	85.1024	87.8906	86.4647	87.8906	85.1339	87.8906	86.5013	87.8906	85.1812	87.8906	86.4997	87.8906	85.2471	87.8906	86.4598	87.8906	85.3334	87.8906	86.3845	87.8906	85.4403	87.8906	86.279	87.8906	85.566	87.8906	86.1503	87.8906	85.7065	87.8906	86.0064	87.8906	85.8558
90.8203	85.474	90.8203	85.3982	90.8203	85.5727	90.8203	85.3446	90.8203	85.6941	90.8203	85.3114	90.8203	85.8365	90.8203	85.2965	90.8203	85.9966	90.8203	85.2979	90.8203	86.169	90.8203	85.3138	90.8203	86.3471	90.8203	85.3429	90.8203	86.5225	90.8203	85.3846	90.8203	86.6862	90.8203	85.4389	90.8203	86.8291	90.8203	85.5066	90.8203	86.943	90.8203	85.5887	90.8203	87.0213	90.8203	85.6863	90.8203	87.0599	90.8203	85.8002	90.8203	87.0574	90.8203	85.9299	90.8203	87.0153	90.8203	86.0737	90.8203	86.9371	90.8203	86.2281	90.8203	86.8284	90.8203	86.3878	90.8203	86.6956	90.8203	86.5462
95.2148	85.8537	95.2148	85.7866	95.2148	85.9401	95.2148	85.7368	95.2148	86.0468	95.2148	85.7013	95.2148	86.1732	95.2148	85.677	95.2148	86.3167	95.2148	85.661	95.2148	86.473	95.2148	85.6509	95.2148	86.6352	95.2148	85.6451	95.2148	86.7949	95.2148	85.6434	95.2148	86.9422	95.2148	85.6465	95.2148	87.0666	95.2148	85.6568	95.2148	87.1579	95.2148	85.6777	95.2148	87.2079	95.2148	85.7137	95.2148	87.211	95.2148	85.7694	95.2148	87.1654	95.2148	85.8491	95.2148	87.0736	95.2148	85.9555	95.2148	86.9424	95.2148	86.0889	95.2148	86.7815	95.2148	86.2462	95.2148	86.6035	95.2148	86.421
98.1445	86.0168	98.1445	85.9417	98.1445	86.1118	98.1445	85.8853	98.1445	86.2268	98.1445	85.8453	98.1445	86.3603	98.1445	85.8188	98.1445	86.5091	98.1445	85.8029	98.1445	86.668	98.1445	85.7949	98.1445	86.8301	98.1445	85.7928	98.1445	86.9869	98.1445	85.7957	98.1445	87.1285	98.1445	85.8038	98.1445	87.2449	98.1445	85.8184	98.1445	87.3264	98.1445	85.8424	98.1445	87.3655	98.1445	85.8795	98.1445	87.3576	98.1445	85.934	98.1445	87.302	98.1445	86.0101	98.1445	87.2024	98.1445	86.1106	98.1445	87.0665	98.1445	86.2364	98.1445	86.9047	98.1445	86.3855	98.1445	86.7294	98.1445	86.5527
101.074	86.4355	101.074	86.3589	101.074	86.5318	101.074	86.3007	101.074	86.6479	101.074	86.2586	101.074	86.7823	101.074	86.2299	101.074	86.9316	101.074	86.2115	101.074	87.0909	101.074	86.2009	101.074	87.2531	101.074	86.196	101.074	87.4095	101.074	86.1958	101.074	87.5504	101.074	86.2006	101.074	87.6654	101.074	86.2119	101.074	87.745	101.074	86.2326	101.074	87.7813	101.074	86.2667	101.074	87.7697	101.074	86.3185	101.074	87.7096	101.074	86.3924	101.074	87.605	101.074	86.4916	101.074	87.4637	101.074	86.6171	101.074	87.2968	101.074	86.7672	101.074	87.1169	101.074	86.9366
105.469	86.2057	105.469	86.1276	105.469	86.3031	105.469	86.0678	105.469	86.4195	105.469	86.0242	105.469	86.5532	105.469	85.9942	105.469	86.701	105.469	85.975	105.469	86.8579	105.469	85.9637	105.469	87.0172	105.469	85.9584	105.469	87.1706	105.469	85.9579	105.469	87.3085	105.469	85.9622	105.469	87.421	105.469	85.9728	105.469	87.4982	105.469	85.9922	105.469	87.5325	105.469	86.0243	105.469	87.5189	105.469	86.0735	105.469	87.4567	105.469	86.1442	105.469	87.3498	105.469	86.2398	105.469	87.2064	105.469	86.362	105.469	87.0378	105.469	86.5094	105.469	86.8571	105.469	86.6772
108.398	86.3697	108.398	86.2844	108.398	86.4725	108.398	86.2161	108.398	86.5924	108.398	86.1634	108.398	86.7275	108.398	86.1243	108.398	86.8745	108.398	86.0963	108.398	87.0289	108.398	86.0774	108.398	87.1842	108.398	86.0656	108.398	87.3326	108.398	86.06	108.398	87.4648	108.398	86.0604	108.398	87.5711	108.398	86.0681	108.398	87.6419	108.398	86.0853	108.398	87.6694	108.398	86.1157	108.398	87.6488	108.398	86.1634	108.398	87.5793	108.398	86.2328	108.398	87.465	108.398	86.3276	108.398	87.3143	108.398	86.4497	108.398	87.139	108.398	86.5982	108.398	86.9527	108.398	86.7686
112.793	86.9862	112.793	86.8964	112.793	87.0904	112.793	86.8207	112.793	87.2081	112.793	86.7582	112.793	87.3372	112.793	86.7067	112.793	87.4744	112.793	86.6642	112.793	87.6151	112.793	86.6282	112.793	87.7532	112.793	86.5969	112.793	87.8811	112.793	86.569	112.793	87.9901	112.793	86.5445	112.793	88.0709	112.793	86.525	112.793	88.1146	112.793	86.5134	112.793	88.1136	112.793	86.5141	112.793	88.064	112.793	86.5327	112.793	87.9657	112.793	86.5755	112.793	87.824	112.793	86.6478	112.793	87.6488	112.793	86.7533	112.793	87.4533	112.793	86.8925	112.793	87.2527	112.793	87.0618
117.188	86.7083	117.188	86.6276	117.188	86.8029	117.188	86.56	117.188	86.9114	117.188	86.5037	117.188	87.0325	117.188	86.4565	117.188	87.1635	117.188	86.4161	117.188	87.3001	117.188	86.38	117.188	87.4363	117.188	86.3465	117.188	87.5642	117.188	86.3146	117.188	87.6742	117.188	86.2844	117.188	87.7562	117.188	86.2577	117.188	87.8002	117.188	86.2375	117.188	87.7982	117.188	86.2286	117.188	87.7455	117.188	86.2368	117.188	87.6426	117.188	86.2687	117.188	87.4952	117.188	86.3304	117.188	87.3143	117.188	86.4264	117.188	87.1145	117.188	86.5582	117.188	86.9122	117.188	86.7227
120.117	87.0463	120.117	86.9653	120.117	87.1407	120.117	86.8969	120.117	87.2487	120.117	86.8394	120.117	87.3691	120.117	86.7907	120.117	87.4995	120.117	86.7486	120.117	87.6359	120.117	86.7109	120.117	87.7728	120.117	86.6761	120.117	87.9027	120.117	86.6436	120.117	88.0165	120.117	86.6137	120.117	88.1041	120.117	86.5883	120.117	88.1551	120.117	86.5706	120.117	88.1609	120.117	86.5654	120.117	88.1161	120.117	86.5784	120.117	88.0199	120.117	86.616	120.117	87.8773	120.117	86.6843	120.117	87.6985	120.117	86.7874	120.117	87.4981	120.117	86.9263	120.117	87.2924	120.117	87.0975
124.512	87.0617	124.512	86.971	124.512	87.1636	124.512	86.8912	124.512	87.2762	124.512	86.821	124.512	87.3978	124.512	86.7583	124.512	87.5257	124.512	86.7008	124.512	87.6558	124.512	86.6461	124.512	87.783	124.512	86.5926	124.512	87.9006	124.512	86.5395	124.512	88.0001	124.512	86.4875	124.512	88.0722	124.512	86.4391	124.512	88.107	124.512	86.3986	124.512	88.0959	124.512	86.3719	124.512	88.0331	124.512	86.3667	124.512	87.9176	124.512	86.391	124.512	87.7539	124.512	86.4522	124.512	87.5527	124.512	86.5555	124.512	87.3291	124.512	86.702	124.512	87.1014	124.512	86.8873
128.906	86.8581	128.906	86.7608	128.906	86.9642	128.906	86.6722	128.906	87.0779	128.906	86.5914	128.906	87.1967	128.906	86.5163	128.906	87.3173	128.906	86.4443	128.906	87.4353	128.906	86.373	128.906	87.5452	128.906	86.3003	128.906	87.6404	128.906	86.2251	128.906	87.7132	128.906	86.1481	128.906	87.7551	128.906	86.0719	128.906	87.7573	128.906	86.0012	128.906	87.7122	128.906	85.9432	128.906	87.6153	128.906	85.9067	128.906	87.4667	128.906	85.9017	128.906	87.2724	128.906	85.9374	128.906	87.0443	128.906	86.0212	128.906	86.7995	128.906	86.1557	128.906	86.5577	128.906	86.3379
133.301	87.0042	133.301	86.9116	133.301	87.1049	133.301	86.8274	133.301	87.2125	133.301	86.7503	133.301	87.325	133.301	86.6785	133.301	87.439	133.301	86.6092	133.301	87.5507	133.301	86.5397	133.301	87.6549	133.301	86.4675	133.301	87.7451	133.301	86.3913	133.301	87.8134	133.301	86.3113	133.301	87.8509	133.301	86.2298	133.301	87.848	133.301	86.1513	133.301	87.7968	133.301	86.083	133.301	87.6926	133.301	86.0337	133.301	87.5359	133.301	86.0141	133.301	87.3336	133.301	86.0343	133.301	87.0993	133.301	86.103	133.301	86.8514	133.301	86.2243	133.301	86.6106	133.301	86.3964
139.16	86.6887	139.16	86.5908	139.16	86.7962	139.16	86.5025	139.16	86.912	139.16	86.4229	139.16	87.0341	139.16	86.35	139.16	87.1595	139.16	86.2811	139.16	87.2844	139.16	86.2132	139.16	87.4035	139.16	86.1438	139.16	87.5099	139.16	86.0713	139.16	87.5945	139.16	85.9957	139.16	87.6466	139.16	85.9192	139.16	87.6552	139.16	85.8462	139.16	87.6106	139.16	85.7836	139.16	87.5074	139.16	85.7405	139.16	87.346	139.16	85.7273	139.16	87.1345	139.16	85.7546	139.16	86.8877	139.16	85.8313	139.16	86.6259	139.16	85.9618	139.16	86.3714	139.16	86.1448
143.555	86.893	143.555	86.7879	143.555	87.0074	143.555	86.6929	143.555	87.1296	143.555	86.6078	143.555	87.2574	143.555	86.5311	143.555	87.3885	143.555	86.4607	143.555	87.5198	143.555	86.3937	143.555	87.6471	143.555	86.3275	143.555	87.7644	143.555	86.2606	143.555	87.8633	143.555	86.1928	143.555	87.9326	143.555	86.1261	143.555	87.9602	143.555	86.0649	143.555	87.9347	143.555	86.016	143.555	87.8485	143.555	85.9883	143.555	87.7	143.555	85.9918	143.555	87.4958	143.555	86.0368	143.555	87.2501	143.555	86.1313	143.555	86.9835	143.555	86.2794	143.555	86.719	143.555	86.4786
147.949	86.5302	147.949	86.424	147.949	86.6437	147.949	86.3264	147.949	86.7633	147.949	86.2377	147.949	86.8875	147.949	86.1573	147.949	87.0152	147.949	86.0838	147.949	87.1446	147.949	86.0152	147.949	87.2733	147.949	85.9497	147.949	87.3965	147.949	85.886	147.949	87.5068	147.949	85.8243	147.949	87.5933	147.949	85.7669	147.949	87.6429	147.949	85.7181	147.949	87.6427	147.949	85.6846	147.949	87.5825	147.949	85.6749	147.949	87.4583	147.949	85.6987	147.949	87.2739	147.949	85.765	147.949	87.0415	147.949	85.8808	147.949	86.7803	147.949	86.0483	147.949	86.5133	147.949	86.263
153.809	86.6399	153.809	86.519	153.809	86.7602	153.809	86.3996	153.809	86.8777	153.809	86.2831	153.809	86.9899	153.809	86.1701	153.809	87.0949	153.809	86.0607	153.809	87.1911	153.809	85.9545	153.809	87.2767	153.809	85.8514	153.809	87.3499	153.809	85.7518	153.809	87.4072	153.809	85.6576	153.809	87.443	153.809	85.5724	153.809	87.4495	153.809	85.5017	153.809	87.4176	153.809	85.4532	153.809	87.3389	153.809	85.4354	153.809	87.2083	153.809	85.4575	153.809	87.027	153.809	85.5272	153.809	86.8028	153.809	85.6492	153.809	86.5505	153.809	85.8227	153.809	86.2895	153.809	86.0407
159.668	86.8379	159.668	86.7028	159.668	86.9723	159.668	86.5703	159.668	87.1022	159.668	86.4424	159.668	87.2233	159.668	86.3198	159.668	87.3313	159.668	86.202	159.668	87.4225	159.668	86.088	159.668	87.4933	159.668	85.9765	159.668	87.5401	159.668	85.8669	159.668	87.5587	159.668	85.7597	159.668	87.5443	159.668	85.6575	159.668	87.4912	159.668	85.5649	159.668	87.3948	159.668	85.489	159.668	87.2525	159.668	85.4384	159.668	87.0656	159.668	85.423	159.668	86.8408	159.668	85.4519	159.668	86.59	159.668	85.5322	159.668	86.3291	159.668	85.6662	159.668	86.0768	159.668	85.8509
165.527	86.8181	165.527	86.6967	165.527	86.9373	165.527	86.5759	165.527	87.051	165.527	86.4574	165.527	87.1563	165.527	86.3418	165.527	87.2508	165.527	86.2282	165.527	87.3326	165.527	86.1151	165.527	87.4002	165.527	86.0009	165.527	87.4509	165.527	85.8849	165.527	87.4799	165.527	85.7682	165.527	87.4805	165.527	85.6542	165.527	87.4443	165.527	85.5487	165.527	87.3632	165.527	85.4604	165.527	87.2321	165.527	85.3997	165.527	87.0512	165.527	85.3777	165.527	86.8271	165.527	85.4041	165.527	86.573	165.527	85.4856	165.527	86.3065	165.527	85.6239	165.527	86.0473	165.527	85.8146
171.387	86.6407	171.387	86.5228	171.387	86.7572	171.387	86.4068	171.387	86.8692	171.387	86.295	171.387	86.9738	171.387	86.1885	171.387	87.0693	171.387	86.0866	171.387	87.1546	171.387	85.9877	171.387	87.2285	171.387	85.8896	171.387	87.2881	171.387	85.7906	171.387	87.3283	171.387	85.6904	171.387	87.3407	171.387	85.5909	171.387	87.3152	171.387	85.4967	171.387	87.2421	171.387	85.4149	171.387	87.1152	171.387	85.3551	171.387	86.9348	171.387	85.328	171.387	86.709	171.387	85.344	171.387	86.4533	171.387	85.4115	171.387	86.1877	171.387	85.5345	171.387	85.9339	171.387	85.7114
177.246	86.4813	177.246	86.3638	177.246	86.5947	177.246	86.2454	177.246	86.7008	177.246	86.1293	177.246	86.7979	177.246	86.0172	177.246	86.8856	177.246	85.9095	177.246	86.9646	177.246	85.8054	177.246	87.0359	177.246	85.7037	177.246	87.0988	177.246	85.6034	177.246	87.1493	177.246	85.505	177.246	87.1792	177.246	85.4108	177.246	87.1768	177.246	85.3258	177.246	87.1297	177.246	85.257	177.246	87.0283	177.246	85.2134	177.246	86.8695	177.246	85.2047	177.246	86.6593	177.246	85.24	177.246	86.4118	177.246	85.3261	177.246	86.1474	177.246	85.4658	177.246	85.8888	177.246	85.6563
183.105	86.33	183.105	86.1967	183.105	86.456	183.105	86.0598	183.105	86.5709	183.105	85.9229	183.105	86.6724	183.105	85.7883	183.105	86.7594	183.105	85.6571	183.105	86.8324	183.105	85.5293	183.105	86.8925	183.105	85.4047	183.105	86.9404	183.105	85.2833	183.105	86.9743	183.105	85.1666	183.105	86.9887	183.105	85.0585	183.105	86.9747	183.105	84.9649	183.105	86.9211	183.105	84.8941	183.105	86.8182	183.105	84.8559	183.105	86.6611	183.105	84.8601	183.105	86.4525	183.105	84.9148	183.105	86.2034	183.105	85.025	183.105	85.9317	183.105	85.1906	183.105	85.6588	183.105	85.4059
188.965	86.3635	188.965	86.2336	188.965	86.4862	188.965	86.1011	188.965	86.5971	188.965	85.9696	188.965	86.6927	188.965	85.8412	188.965	86.7709	188.965	85.716	188.965	86.8316	188.965	85.5928	188.965	86.8754	188.965	85.4696	188.965	86.9031	188.965	85.3451	188.965	86.9137	188.965	85.2197	188.965	86.9034	188.965	85.0967	188.965	86.8656	188.965	84.9825	188.965	86.7922	188.965	84.8873	188.965	86.676	188.965	84.8231	188.965	86.5137	188.965	84.8027	188.965	86.3072	188.965	84.8368	188.965	86.0653	188.965	84.9315	188.965	85.8027	188.965	85.0863	188.965	85.5386	188.965	85.2935
196.289	86.4367	196.289	86.3029	196.289	86.5582	196.289	86.1625	196.289	86.6626	196.289	86.0207	196.289	86.7466	196.289	85.8815	196.289	86.8094	196.289	85.7465	196.289	86.8522	196.289	85.616	196.289	86.8772	196.289	85.489	196.289	86.8856	196.289	85.3644	196.289	86.8764	196.289	85.2424	196.289	86.845	196.289	85.1248	196.289	86.7838	196.289	85.0165	196.289	86.6853	196.289	84.9248	196.289	86.5446	196.289	84.8592	196.289	86.3623	196.289	84.8302	196.289	86.1451	196.289	84.847	196.289	85.9051	196.289	84.9158	196.289	85.658	196.289	85.038	196.289	85.4207	196.289	85.2095
203.613	86.3144	203.613	86.176	203.613	86.4374	203.613	86.0279	203.613	86.5398	203.613	85.8756	203.613	86.6186	203.613	85.7231	203.613	86.673	203.613	85.5727	203.613	86.7048	203.613	85.4251	203.613	86.7174	203.613	85.2802	203.613	86.714	203.613	85.1377	203.613	86.6949	203.613	84.9987	203.613	86.6561	203.613	84.8659	203.613	86.5894	203.613	84.7447	203.613	86.4852	203.613	84.6429	203.613	86.3364	203.613	84.5702	203.613	86.1421	203.613	84.5369	203.613	85.9094	203.613	84.5519	203.613	85.6526	203.613	84.6208	203.613	85.3899	203.613	84.7451	203.613	85.1405	203.613	84.9212
210.938	86.2452	210.938	86.0953	210.938	86.3767	210.938	85.9332	210.938	86.4848	210.938	85.7645	210.938	86.5665	210.938	85.5938	210.938	86.6217	210.938	85.4237	210.938	86.6525	210.938	85.2551	210.938	86.6626	210.938	85.0886	210.938	86.6545	210.938	84.925	210.938	86.628	210.938	84.7665	210.938	86.5784	210.938	84.6174	210.938	86.4972	210.938	84.4845	210.938	86.3753	210.938	84.3764	210.938	86.207	210.938	84.3028	210.938	85.9929	210.938	84.2732	210.938	85.7416	210.938	84.2954	210.938	85.468	210.938	84.3738	210.938	85.1905	210.938	84.5088	210.938	84.9278	210.938	84.6964
218.262	86.1116	218.262	85.9598	218.262	86.2456	218.262	85.7973	218.262	86.3557	218.262	85.6309	218.262	86.4382	218.262	85.4655	218.262	86.4928	218.262	85.3035	218.262	86.5222	218.262	85.1457	218.262	86.5309	218.262	84.992	218.262	86.523	218.262	84.8426	218.262	86.499	218.262	84.6991	218.262	86.4542	218.262	84.5657	218.262	86.3794	218.262	84.4484	218.262	86.2649	218.262	84.3553	218.262	86.1047	218.262	84.2949	218.262	85.9001	218.262	84.2754	218.262	85.661	218.262	84.303	218.262	85.4028	218.262	84.381	218.262	85.1433	218.262	84.5094	218.262	84.8992	218.262	84.6845
225.586	86.0703	225.586	85.9162	225.586	86.1984	225.586	85.7435	225.586	86.2949	225.586	85.5601	225.586	86.3578	225.586	85.3725	225.586	86.3889	225.586	85.1853	225.586	86.3937	225.586	85.001	225.586	86.3802	225.586	84.8213	225.586	86.3554	225.586	84.6485	225.586	86.322	225.586	84.4869	225.586	86.2756	225.586	84.343	225.586	86.2057	225.586	84.2257	225.586	86.1001	225.586	84.1444	225.586	85.9506	225.586	84.1073	225.586	85.7582	225.586	84.119	225.586	85.5333	225.586	84.18	225.586	85.2917	225.586	84.2868	225.586	85.0501	225.586	84.4335	225.586	84.8212	225.586	84.6136
232.91	86.1513	232.91	85.9994	232.91	86.2757	232.91	85.8273	232.91	86.3666	232.91	85.642	232.91	86.4201	232.91	85.4489	232.91	86.4364	232.91	85.2517	232.91	86.4199	232.91	85.0521	232.91	86.3792	232.91	84.8512	232.91	86.3237	232.91	84.6512	232.91	86.2598	232.91	84.456	232.91	86.1863	232.91	84.2733	232.91	86.0935	232.91	84.1134	232.91	85.967	232.91	83.9882	232.91	85.7947	232.91	83.9088	232.91	85.5742	232.91	83.8827	232.91	85.3155	232.91	83.9121	232.91	85.0384	232.91	83.9947	232.91	84.7657	232.91	84.1258	232.91	84.516	232.91	84.3008
241.699	85.9994	241.699	85.8581	241.699	86.1202	241.699	85.7048	241.699	86.212	241.699	85.5459	241.699	86.2684	241.699	85.3849	241.699	86.2866	241.699	85.2217	241.699	86.269	241.699	85.0538	241.699	86.2221	241.699	84.8774	241.699	86.1548	241.699	84.6902	241.699	86.074	241.699	84.493	241.699	85.9802	241.699	84.2916	241.699	85.8665	241.699	84.0966	241.699	85.7215	241.699	83.9234	241.699	85.5353	241.699	83.7888	241.699	85.3056	241.699	83.708	241.699	85.0412	241.699	83.6902	241.699	84.7595	241.699	83.7379	241.699	84.4822	241.699	83.8478	241.699	84.2288	241.699	84.014
250.488	85.8301	250.488	85.6318	250.488	86.0029	250.488	85.4223	250.488	86.1376	250.488	85.2147	250.488	86.2259	250.488	85.018	250.488	86.2654	250.488	84.8356	250.488	86.2607	250.488	84.6657	250.488	86.221	250.488	84.503	250.488	86.157	250.488	84.3414	250.488	86.0759	250.488	84.1769	250.488	85.9776	250.488	84.0098	250.488	85.8553	250.488	83.8463	250.488	85.699	250.488	83.6979	250.488	85.5015	250.488	83.5804	250.488	85.2622	250.488	83.5102	250.488	84.9885	250.488	83.5009	250.488	84.6943	250.488	83.5597	250.488	84.398	250.488	83.6872	250.488	84.1195	250.488	83.8774
259.277	86.0301	259.277	85.8424	259.277	86.1846	259.277	85.6354	259.277	86.2948	259.277	85.4226	259.277	86.3545	259.277	85.215	259.277	86.3643	259.277	85.0189	259.277	86.3322	259.277	84.8359	259.277	86.2719	259.277	84.6639	259.277	86.1985	259.277	84.4994	259.277	86.1221	259.277	84.3391	259.277	86.0417	259.277	84.1827	259.277	85.9443	259.277	84.0334	259.277	85.8111	259.277	83.899	259.277	85.6273	259.277	83.7909	259.277	85.3901	259.277	83.7229	259.277	85.1111	259.277	83.7075	259.277	84.8123	259.277	83.7528	259.277	84.5191	259.277	83.8613	259.277	84.2531	259.277	84.0303
268.066	85.5969	268.066	85.3703	268.066	85.7935	268.066	85.1333	268.066	85.9432	268.066	84.9043	268.066	86.0344	268.066	84.6972	268.066	86.0636	268.066	84.5189	268.066	86.0362	268.066	84.3689	268.066	85.9657	268.066	84.2412	268.066	85.8695	268.066	84.127	268.066	85.7625	268.066	84.0178	268.066	85.6498	268.066	83.9081	268.066	85.5241	268.066	83.7963	268.066	85.37	268.066	83.686	268.066	85.1728	268.066	83.5852	268.066	84.928	268.066	83.5058	268.066	84.6459	268.066	83.4609	268.066	84.3498	268.066	83.4629	268.066	84.0682	268.066	83.5214	268.066	83.827	268.066	83.6425
276.855	85.5947	276.855	85.3535	276.855	85.7896	276.855	85.0822	276.855	85.9277	276.855	84.7993	276.855	86.0061	276.855	84.5222	276.855	86.03	276.855	84.2644	276.855	86.0115	276.855	84.0341	276.855	85.9662	276.855	83.8356	276.855	85.9085	276.855	83.6698	276.855	85.846	276.855	83.536	276.855	85.776	276.855	83.4329	276.855	85.6862	276.855	83.3584	276.855	85.5607	276.855	83.3118	276.855	85.3874	276.855	83.2937	276.855	85.1634	276.855	83.3074	276.855	84.8967	276.855	83.3584	276.855	84.6044	276.855	83.4528	276.855	84.3083	276.855	83.5958	276.855	84.0307	276.855	83.7896
287.109	85.7737	287.109	85.5607	287.109	85.9271	287.109	85.3041	287.109	86.0116	287.109	85.0227	287.109	86.0267	287.109	84.7345	287.109	85.9815	287.109	84.4524	287.109	85.8938	287.109	84.1834	287.109	85.7867	287.109	83.9303	287.109	85.6822	287.109	83.6943	287.109	85.5917	287.109	83.4786	287.109	85.5101	287.109	83.2891	287.109	85.4176	287.109	83.1345	287.109	85.2897	287.109	83.0239	287.109	85.1096	287.109	82.965	287.109	84.8758	287.109	82.9623	287.109	84.601	287.109	83.0164	287.109	84.3054	287.109	83.125	287.109	84.0105	287.109	83.2841	287.109	83.734	287.109	83.489
297.363	85.697	297.363	85.4595	297.363	85.8681	297.363	85.1708	297.363	85.9641	297.363	84.8505	297.363	85.9847	297.363	84.5195	297.363	85.9396	297.363	84.1951	297.363	85.85	297.363	83.8883	297.363	85.7464	297.363	83.6026	297.363	85.6596	297.363	83.3378	297.363	85.606	297.363	83.095	297.363	85.576	297.363	82.8806	297.363	85.5364	297.363	82.7075	297.363	85.4479	297.363	82.5917	297.363	85.2838	297.363	82.5472	297.363	85.041	297.363	82.5813	297.363	84.737	297.363	82.6927	297.363	84.3987	297.363	82.8734	297.363	84.0512	297.363	83.1118	297.363	83.7125	297.363	83.3955
307.617	85.7956	307.617	85.5274	307.617	86.003	307.617	85.2168	307.617	86.1364	307.617	84.8852	307.617	86.1906	307.617	84.5529	307.617	86.1706	307.617	84.2363	307.617	86.094	307.617	83.9457	307.617	85.99	307.617	83.6857	307.617	85.8939	307.617	83.4567	307.617	85.8325	307.617	83.2582	307.617	85.8093	307.617	83.092	307.617	85.7991	307.617	82.9648	307.617	85.7598	307.617	82.8885	307.617	85.6523	307.617	82.877	307.617	85.457	307.617	82.9407	307.617	85.1806	307.617	83.0807	307.617	84.8502	307.617	83.2869	307.617	84.5003	307.617	83.5437	307.617	84.1579	307.617	83.8369
319.336	85.5601	319.336	85.3438	319.336	85.7041	319.336	85.0845	319.336	85.755	319.336	84.8145	319.336	85.705	319.336	84.5622	319.336	85.5634	319.336	84.3457	319.336	85.3596	319.336	84.1709	319.336	85.144	319.336	84.0341	319.336	84.9788	319.336	83.9276	319.336	84.9155	319.336	83.8443	319.336	84.9674	319.336	83.7798	319.336	85.1003	319.336	83.7329	319.336	85.2508	319.336	83.7062	319.336	85.3567	319.336	83.7064	319.336	85.3782	319.336	83.7444	319.336	85.3027	319.336	83.8314	319.336	85.1407	319.336	83.9738	319.336	84.9172	319.336	84.1689	319.336	84.6624	319.336	84.4048
329.59	85.7693	329.59	85.4662	329.59	85.9741	329.59	85.1004	329.59	86.0565	329.59	84.7146	329.59	86.0057	329.59	84.3516	329.59	85.8278	329.59	84.0456	329.59	85.5499	329.59	83.8159	329.59	85.2246	329.59	83.6661	329.59	84.9265	329.59	83.589	329.59	84.7302	329.59	83.5724	329.59	84.6728	329.59	83.6031	329.59	84.7322	329.59	83.6683	329.59	84.8451	329.59	83.7567	329.59	84.9474	329.59	83.8597	329.59	85.0004	329.59	83.9733	329.59	84.9926	329.59	84.0973	329.59	84.9291	329.59	84.233	329.59	84.8218	329.59	84.38	329.59	84.6852	329.59	84.5337
341.309	85.8512	341.309	85.4814	341.309	86.0984	341.309	85.0217	341.309	86.2026	341.309	84.5168	341.309	86.1553	341.309	84.0177	341.309	85.9603	341.309	83.5729	341.309	85.6382	341.309	83.2183	341.309	85.2341	341.309	82.973	341.309	84.8235	341.309	82.8427	341.309	84.5047	341.309	82.8261	341.309	84.3603	341.309	82.917	341.309	84.4073	341.309	83.1022	341.309	84.5864	341.309	83.3596	341.309	84.8064	341.309	83.6614	341.309	84.9977	341.309	83.9799	341.309	85.129	341.309	84.2915	341.309	85.1955	341.309	84.5775	341.309	85.1993	341.309	84.8222	341.309	85.1389	341.309	85.0123
353.027	86.5314	353.027	86.1917	353.027	86.7301	353.027	85.7273	353.027	86.7781	353.027	85.1635	353.027	86.6702	353.027	84.5359	353.027	86.4073	353.027	83.8906	353.027	86.0002	353.027	83.2794	353.027	85.4779	353.027	82.7536	353.027	84.8967	353.027	82.3553	353.027	84.3435	353.027	82.1137	353.027	83.9196	353.027	82.043	353.027	83.699	353.027	82.1424	353.027	83.6879	353.027	82.3927	353.027	83.8263	353.027	82.7557	353.027	84.0315	353.027	83.1791	353.027	84.2371	353.027	83.6057	353.027	84.4037	353.027	83.9839	353.027	84.5086	353.027	84.2754	353.027	84.5333	353.027	84.4594
366.211	86.8229	366.211	86.4698	366.211	87.0563	366.211	86.0207	366.211	87.1507	366.211	85.5017	366.211	87.092	366.211	84.9406	366.211	86.875	366.211	84.3637	366.211	86.5077	366.211	83.7949	366.211	86.0165	366.211	83.257	366.211	85.451	366.211	82.7765	366.211	84.8821	366.211	82.3865	366.211	84.3886	366.211	82.123	366.211	84.0273	366.211	82.0127	366.211	83.8081	366.211	82.0574	366.211	83.6969	366.211	82.2297	366.211	83.6456	366.211	82.4813	366.211	83.6178	366.211	82.7601	366.211	83.5935	366.211	83.0224	366.211	83.5591	366.211	83.239	366.211	83.4995	366.211	83.3973
379.395	87.0037	379.395	86.682	379.395	87.1916	379.395	86.2492	379.395	87.2317	379.395	85.734	379.395	87.1196	379.395	85.1678	379.395	86.8608	379.395	84.5817	379.395	86.4726	379.395	84.0049	379.395	85.9872	379.395	83.4651	379.395	85.4564	379.395	82.9898	379.395	84.9476	379.395	82.6068	379.395	84.5248	379.395	82.3442	379.395	84.22	379.395	82.226	379.395	84.0268	379.395	82.2654	379.395	83.9259	379.395	82.4557	379.395	83.9116	379.395	82.766	379.395	83.9801	379.395	83.1448	379.395	84.0978	379.395	83.5312	379.395	84.1979	379.395	83.8661	379.395	84.2123	379.395	84.1024
392.578	86.6929	392.578	86.3685	392.578	86.8888	392.578	85.9354	392.578	86.9449	392.578	85.4214	392.578	86.8559	392.578	84.8578	392.578	86.622	392.578	84.2736	392.578	86.251	392.578	83.6916	392.578	85.7654	392.578	83.1314	392.578	85.2113	392.578	82.6169	392.578	84.6613	392.578	82.1828	392.578	84.1981	392.578	81.8713	392.578	83.8742	392.578	81.7188	392.578	83.6814	392.578	81.7413	392.578	83.5667	392.578	81.9256	392.578	83.4868	392.578	82.2319	392.578	83.4403	392.578	82.6015	392.578	83.4458	392.578	82.9672	392.578	83.4903	392.578	83.2656	392.578	83.5149	392.578	83.4516
405.762	86.0574	405.762	85.7999	405.762	86.2145	405.762	85.4491	405.762	86.265	405.762	85.0173	405.762	86.2013	405.762	84.524	405.762	86.0167	405.762	83.993	405.762	85.7119	405.762	83.4488	405.762	85.302	405.762	82.9157	405.762	84.8209	405.762	82.4221	405.762	84.3183	405.762	82.0039	405.762	83.8489	405.762	81.7008	405.762	83.4555	405.762	81.5444	405.762	83.1565	405.762	81.5477	405.762	82.9513	405.762	81.7027	405.762	82.8392	405.762	81.982	405.762	82.8287	405.762	82.3371	405.762	82.9164	405.762	82.6991	405.762	83.0561	405.762	82.9911	405.762	83.1618	405.762	83.152
420.41	86.864	420.41	86.5124	420.41	87.0674	420.41	86.0366	420.41	87.1076	420.41	85.4677	420.41	86.9801	420.41	84.8398	420.41	86.692	420.41	84.1857	420.41	86.2637	420.41	83.5328	420.41	85.7303	420.41	82.9032	420.41	85.1418	420.41	82.3208	420.41	84.5564	420.41	81.8212	420.41	84.0244	420.41	81.4537	420.41	83.5689	420.41	81.2671	420.41	83.18	420.41	81.2821	420.41	82.8329	420.41	81.4727	420.41	82.5214	420.41	81.775	420.41	82.2857	420.41	82.108	420.41	82.1962	420.41	82.3915	420.41	82.276	420.41	82.5577	420.41	82.4442	420.41	82.5689
435.059	86.1703	435.059	85.9287	435.059	86.308	435.059	85.5939	435.059	86.3323	435.059	85.1809	435.059	86.2338	435.059	84.7087	435.059	86.0055	435.059	84.1972	435.059	85.6515	435.059	83.6629	435.059	85.1981	435.059	83.119	435.059	84.701	435.059	82.5853	435.059	84.2389	435.059	82.1023	435.059	83.8816	435.059	81.7364	435.059	83.6486	435.059	81.5581	435.059	83.5006	435.059	81.5992	435.059	83.3784	435.059	81.8245	435.059	83.2485	435.059	82.1503	435.059	83.1197	435.059	82.486	435.059	83.0268	435.059	82.7619	435.059	82.9947	435.059	82.9378	435.059	83.0072	435.059	83.0085
451.172	86.7643	451.172	86.3779	451.172	86.993	451.172	85.8699	451.172	87.0357	451.172	85.2763	451.172	86.877	451.172	84.6266	451.172	86.5191	451.172	83.9403	451.172	85.9849	451.172	83.2285	451.172	85.3213	451.172	82.5016	451.172	84.6023	451.172	81.7813	451.172	83.9235	451.172	81.1136	451.172	83.3761	451.172	80.5779	451.172	82.9986	451.172	80.2705	451.172	82.7465	451.172	80.2554	451.172	82.5316	451.172	80.5152	451.172	82.3073	451.172	80.9557	451.172	82.1207	451.172	81.4545	451.172	82.0659	451.172	81.9014	451.172	82.1604	451.172	82.2132	451.172	82.2988	451.172	82.3432
465.82	86.3611	465.82	86.1035	465.82	86.4573	465.82	85.6999	465.82	86.3914	465.82	85.1825	465.82	86.173	465.82	84.5945	465.82	85.8172	465.82	83.9776	465.82	85.3447	465.82	83.3576	465.82	84.7896	465.82	82.738	465.82	84.2073	465.82	82.1092	465.82	83.674	465.82	81.4724	465.82	83.2601	465.82	80.8678	465.82	82.9826	465.82	80.3887	465.82	82.7803	465.82	80.1542	465.82	82.5463	465.82	80.2301	465.82	82.2019	465.82	80.5615	465.82	81.7675	465.82	80.9956	465.82	81.3901	465.82	81.3643	465.82	81.2474	465.82	81.5487	465.82	81.3504	465.82	81.5162
483.398	85.9933	483.398	85.6595	483.398	86.1569	483.398	85.1895	483.398	86.1376	483.398	84.6397	483.398	85.9383	483.398	84.0747	483.398	85.5712	483.398	83.54	483.398	85.0581	483.398	83.0381	483.398	84.4371	483.398	82.5327	483.398	83.7768	483.398	81.9775	483.398	83.183	483.398	81.3485	483.398	82.7692	483.398	80.6662	483.398	82.5775	483.398	80.0083	483.398	82.5214	483.398	79.5056	483.398	82.4384	483.398	79.2983	483.398	82.2099	483.398	79.4438	483.398	81.8497	483.398	79.8583	483.398	81.4987	483.398	80.3678	483.398	81.2919	483.398	80.8067	483.398	81.2033	483.398	81.0815
499.512	86.0217	499.512	85.6699	499.512	86.2181	499.512	85.1822	499.512	86.2441	499.512	84.5905	499.512	86.0837	499.512	83.9468	499.512	85.7211	499.512	83.3202	499.512	85.1511	499.512	82.7741	499.512	84.4005	499.512	82.3325	499.512	83.558	499.512	81.9663	499.512	82.7933	499.512	81.6186	499.512	82.3127	499.512	81.2465	499.512	82.2184	499.512	80.8504	499.512	82.4072	499.512	80.4827	499.512	82.6564	499.512	80.2327	499.512	82.7695	499.512	80.1783	499.512	82.649	499.512	80.3272	499.512	82.3173	499.512	80.6041	499.512	81.8956	499.512	80.9109	499.512	81.5132	499.512	81.2026
517.09	87.3038	517.09	86.9909	517.09	87.4527	517.09	86.5208	517.09	87.4353	517.09	85.9142	517.09	87.2457	517.09	85.2133	517.09	86.8717	517.09	84.4823	517.09	86.3005	517.09	83.7981	517.09	85.5315	517.09	83.2263	517.09	84.5959	517.09	82.7966	517.09	83.5883	517.09	82.4981	517.09	82.7028	517.09	82.3013	517.09	82.1993	517.09	82.1879	517.09	82.2086	517.09	82.1673	517.09	82.5794	517.09	82.2714	517.09	83.0426	517.09	82.5221	517.09	83.4292	517.09	82.8914	517.09	83.6981	517.09	83.2956	517.09	83.861	517.09	83.6369	517.09	83.9189	517.09	83.8502
536.133	87.0493	536.133	86.6704	536.133	87.2519	536.133	86.1296	536.133	87.2675	536.133	85.4585	536.133	87.0841	536.133	84.7187	536.133	86.695	536.133	83.9977	536.133	86.1114	536.133	83.3795	536.133	85.3736	536.133	82.9079	536.133	84.553	536.133	82.5809	536.133	83.7428	536.133	82.3736	536.133	83.0365	536.133	82.257	536.133	82.5158	536.133	82.2063	536.133	82.248	536.133	82.2171	536.133	82.2564	536.133	82.3264	536.133	82.4869	536.133	82.593	536.133	82.8595	536.133	83.0276	536.133	83.3181	536.133	83.5409	536.133	83.7816	536.133	83.9761	536.133	84.1128	536.133	84.1894
555.176	87.7811	555.176	87.3586	555.176	87.9721	555.176	86.7276	555.176	87.9292	555.176	85.939	555.176	87.6595	555.176	85.0684	555.176	87.1737	555.176	84.1972	555.176	86.4886	555.176	83.3853	555.176	85.6351	555.176	82.6566	555.176	84.6705	555.176	82.0181	555.176	83.6943	555.176	81.5007	555.176	82.8505	555.176	81.1751	555.176	82.2921	555.176	81.1041	555.176	82.0939	555.176	81.2765	555.176	82.1504	555.176	81.6119	555.176	82.2142	555.176	82.0194	555.176	82.1152	555.176	82.4156	555.176	81.9398	555.176	82.7037	555.176	81.9515	555.176	82.7813	555.176	82.2423	555.176	82.5994
574.219	87.5462	574.219	87.281	574.219	87.6221	574.219	86.8008	574.219	87.5377	574.219	86.1051	574.219	87.3054	574.219	85.2327	574.219	86.9173	574.219	84.2634	574.219	86.3595	574.219	83.2998	574.219	85.6336	574.219	82.4327	574.219	84.772	574.219	81.7125	574.219	83.8399	574.219	81.155	574.219	82.926	574.219	80.7693	574.219	82.1567	574.219	80.5722	574.219	81.7256	574.219	80.5811	574.219	81.7637	574.219	80.8024	574.219	82.0868	574.219	81.2111	574.219	82.3356	574.219	81.7146	574.219	82.35	574.219	82.1552	574.219	82.2607	574.219	82.3862	574.219	82.2726	574.219	82.3792
594.727	86.9191	594.727	86.6711	594.727	86.9951	594.727	86.2437	594.727	86.9026	594.727	85.6464	594.727	86.637	594.727	84.9189	594.727	86.1967	594.727	84.1226	594.727	85.5903	594.727	83.3122	594.727	84.8375	594.727	82.5168	594.727	83.9787	594.727	81.7528	594.727	83.0972	594.727	81.0588	594.727	82.3016	594.727	80.5191	594.727	81.6481	594.727	80.2405	594.727	81.1397	594.727	80.285	594.727	80.8791	594.727	80.6187	594.727	81.0709	594.727	81.1346	594.727	81.6797	594.727	81.7118	594.727	82.3696	594.727	82.2535	594.727	82.8582	594.727	82.6933	594.727	83.0537	594.727	82.979
615.234	86.953	615.234	86.6922	615.234	87.0808	615.234	86.312	615.234	87.0281	615.234	85.7977	615.234	86.7454	615.234	85.1441	615.234	86.217	615.234	84.3821	615.234	85.4696	615.234	83.5762	615.234	84.5598	615.234	82.8008	615.234	83.563	615.234	82.1197	615.234	82.5735	615.234	81.5748	615.234	81.6962	615.234	81.1786	615.234	81.0257	615.234	80.916	615.234	80.6461	615.234	80.7747	615.234	80.5871	615.234	80.7794	615.234	80.7221	615.234	80.9577	615.234	80.8695	615.234	81.2589	615.234	81.0138	615.234	81.5553	615.234	81.2468	615.234	81.7305	615.234	81.5321	615.234	81.723
637.207	86.715	637.207	86.2713	637.207	86.8707	637.207	85.5878	637.207	86.7542	637.207	84.7669	637.207	86.427	637.207	83.9251	637.207	85.9531	637.207	83.1423	637.207	85.3588	637.207	82.4395	637.207	84.6308	637.207	81.7966	637.207	83.755	637.207	81.1893	637.207	82.7682	637.207	80.6219	637.207	81.7969	637.207	80.148	637.207	81.0472	637.207	79.8716	637.207	80.6938	637.207	79.919	637.207	80.7446	637.207	80.3678	637.207	81.0564	637.207	81.1548	637.207	81.4645	637.207	82.0619	637.207	81.892	637.207	82.8188	637.207	82.3592	637.207	83.2222	637.207	82.8493	637.207	83.2031
659.18	86.9409	659.18	86.6902	659.18	86.961	659.18	86.1527	659.18	86.8169	659.18	85.3429	659.18	86.5179	659.18	84.3582	659.18	86.02	659.18	83.3405	659.18	85.2905	659.18	82.399	659.18	84.3563	659.18	81.5498	659.18	83.3103	659.18	80.7509	659.18	82.2981	659.18	80.0022	659.18	81.4619	659.18	79.3829	659.18	80.8359	659.18	78.9799	659.18	80.3429	659.18	78.83	659.18	79.9362	659.18	78.9846	659.18	79.7155	659.18	79.5035	659.18	79.8996	659.18	80.2834	659.18	80.5443	659.18	81.0692	659.18	81.3166	659.18	81.6538	659.18	81.8277	659.18	81.9307
682.617	86.7439	682.617	86.2817	682.617	86.9714	682.617	85.6491	682.617	86.8907	682.617	84.8904	682.617	86.4773	682.617	84.0628	682.617	85.7934	682.617	83.2451	682.617	84.9497	682.617	82.4914	682.617	84.0239	682.617	81.7964	682.617	83.0462	682.617	81.1433	682.617	82.0742	682.617	80.5769	682.617	81.2374	682.617	80.174	682.617	80.6525	682.617	79.9309	682.617	80.3337	682.617	79.7832	682.617	80.26	682.617	79.7985	682.617	80.3624	682.617	80.1973	682.617	80.4471	682.617	80.9779	682.617	80.4767	682.617	81.7613	682.617	80.7615	682.617	82.1604	682.617	81.4119	682.617	82.0112
707.52	86.9562	707.52	86.4718	707.52	87.0949	707.52	85.6737	707.52	86.9605	707.52	84.6929	707.52	86.6552	707.52	83.6756	707.52	86.2092	707.52	82.6878	707.52	85.5699	707.52	81.729	707.52	84.6952	707.52	80.8316	707.52	83.6332	707.52	80.0711	707.52	82.5173	707.52	79.4695	707.52	81.5095	707.52	78.9895	707.52	80.7742	707.52	78.6204	707.52	80.4136	707.52	78.3858	707.52	80.2498	707.52	78.3866	707.52	79.93	707.52	78.8881	707.52	79.4272	707.52	80.0304	707.52	79.3543	707.52	81.4175	707.52	80.3176	707.52	82.3936	707.52	81.695	707.52	82.5156
732.422	86.6712	732.422	86.4998	732.422	86.7216	732.422	86.1259	732.422	86.6681	732.422	85.4708	732.422	86.4529	732.422	84.5143	732.422	86.0025	732.422	83.327	732.422	85.2799	732.422	82.0954	732.422	84.2962	732.422	81.0704	732.422	83.1025	732.422	80.3711	732.422	81.7765	732.422	79.9	732.422	80.4404	732.422	79.5541	732.422	79.3868	732.422	79.324	732.422	79.0248	732.422	79.1611	732.422	79.2137	732.422	79.019	732.422	79.3397	732.422	79.0632	732.422	79.2621	732.422	79.5302	732.422	79.4228	732.422	80.2725	732.422	80.0268	732.422	80.8613	732.422	80.6871	732.422	81.0153
757.324	86.5476	757.324	86.1791	757.324	86.7175	757.324	85.6816	757.324	86.6174	757.324	85.0992	757.324	86.2306	757.324	84.4386	757.324	85.6237	757.324	83.6663	757.324	84.8733	757.324	82.7598	757.324	83.9709	757.324	81.7825	757.324	82.8906	757.324	80.8687	757.324	81.7215	757.324	80.1223	757.324	80.6127	757.324	79.5968	757.324	79.6895	757.324	79.3072	757.324	79.2665	757.324	79.1648	757.324	79.611	757.324	79.0804	757.324	80.2249	757.324	79.216	757.324	80.4492	757.324	79.8482	757.324	80.1997	757.324	80.7663	757.324	80.0409	757.324	81.3541	757.324	80.5396	757.324	81.2258
785.156	86.8222	785.156	86.5405	785.156	86.7995	785.156	85.9945	785.156	86.57	785.156	85.2915	785.156	86.3082	785.156	84.4907	785.156	86.0628	785.156	83.5711	785.156	85.6553	785.156	82.5703	785.156	84.8699	785.156	81.7187	785.156	83.6684	785.156	81.1715	785.156	82.223	785.156	80.6489	785.156	80.7906	785.156	79.8188	785.156	79.467	785.156	78.8679	785.156	78.2406	785.156	78.4119	785.156	77.5412	785.156	78.6067	785.156	77.9279	785.156	79.0719	785.156	78.8499	785.156	79.6942	785.156	79.5003	785.156	80.4384	785.156	79.8423	785.156	80.91	785.156	80.278	785.156	80.792
811.523	87.1322	811.523	87.243	811.523	86.851	811.523	86.9106	811.523	86.6773	811.523	86.0695	811.523	86.5973	811.523	84.8727	811.523	86.3614	811.523	83.582	811.523	85.7649	811.523	82.3631	811.523	84.7515	811.523	81.2433	811.523	83.3701	811.523	80.2787	811.523	81.729	811.523	79.5554	811.523	80.0599	811.523	79.0852	811.523	78.8807	811.523	78.8399	811.523	78.6731	811.523	78.7403	811.523	78.8721	811.523	78.6823	811.523	78.6231	811.523	78.771	811.523	78.2679	811.523	79.3215	811.523	78.8709	811.523	80.3405	811.523	80.135	811.523	81.3066	811.523	81.2117	811.523	81.6618
840.82	87.5401	840.82	87.019	840.82	87.7796	840.82	86.5289	840.82	87.5198	840.82	86.1271	840.82	86.815	840.82	85.5888	840.82	85.9452	840.82	84.7101	840.82	85.1903	840.82	83.4476	840.82	84.5436	840.82	81.9196	840.82	83.7832	840.82	80.4161	840.82	82.7808	840.82	79.2454	840.82	81.4656	840.82	78.4816	840.82	79.5156	840.82	78.1568	840.82	76.8335	840.82	78.399	840.82	75.9465	840.82	78.9946	840.82	77.6772	840.82	79.4683	840.82	78.8622	840.82	79.7051	840.82	79.5008	840.82	79.8924	840.82	80.0344	840.82	80.0382	840.82	80.2031	840.82	80.121
870.117	87.6991	870.117	87.7299	870.117	87.4146	870.117	87.3709	870.117	87.0134	870.117	86.5751	870.117	86.5287	870.117	85.4035	870.117	85.9498	870.117	84.0304	870.117	85.3225	870.117	82.7206	870.117	84.6544	870.117	81.7034	870.117	83.8068	870.117	80.9906	870.117	82.6415	870.117	80.3933	870.117	81.2656	870.117	79.7148	870.117	80.0248	870.117	78.8958	870.117	79.1706	870.117	78.1241	870.117	78.7845	870.117	77.712	870.117	78.6991	870.117	77.8037	870.117	78.2954	870.117	78.5823	870.117	77.6062	870.117	79.98	870.117	78.3805	870.117	81.207	870.117	80.3432	870.117	81.4495
900.879	88.013	900.879	88.0767	900.879	87.7748	900.879	87.8443	900.879	87.3403	900.879	87.1192	900.879	86.6724	900.879	85.7906	900.879	85.845	900.879	83.9413	900.879	85.0031	900.879	81.9351	900.879	84.2166	900.879	80.389	900.879	83.3944	900.879	79.6517	900.879	82.3318	900.879	79.3789	900.879	80.8074	900.879	79.0973	900.879	78.7551	900.879	78.667	900.879	76.88	900.879	78.2551	900.879	76.889	900.879	78.2184	900.879	78.2526	900.879	78.8922	900.879	79.1508	900.879	80.1121	900.879	79.1374	900.879	81.1319	900.879	78.8643	900.879	81.3299	900.879	79.4241	900.879	80.5968
933.105	88.504	933.105	88.5736	933.105	87.976	933.105	88.2077	933.105	86.9825	933.105	87.4278	933.105	85.6484	933.105	86.241	933.105	84.3425	933.105	84.6597	933.105	83.4054	933.105	82.8177	933.105	82.8251	933.105	80.9833	933.105	82.4781	933.105	79.311	933.105	82.3102	933.105	77.9485	933.105	82.1934	933.105	77.3832	933.105	81.6876	933.105	77.4347	933.105	80.0108	933.105	77.0168	933.105	76.7622	933.105	75.9986	933.105	76.1726	933.105	76.5141	933.105	79.0537	933.105	79.0505	933.105	80.3225	933.105	81.0355	933.105	80.2122	933.105	81.611	933.105	80.2041	933.105	81.0167
965.332	89.0572	965.332	88.9115	965.332	88.8263	965.332	88.5112	965.332	88.051	965.332	87.8002	965.332	86.9194	965.332	86.7558	965.332	85.8868	965.332	85.3811	965.332	84.9698	965.332	83.6502	965.332	83.7878	965.332	81.8945	965.332	82.338	965.332	80.9202	965.332	81.1318	965.332	80.6485	965.332	80.4467	965.332	80.2064	965.332	79.5781	965.332	79.6441	965.332	77.79	965.332	79.3948	965.332	75.9792	965.332	78.9278	965.332	76.9005	965.332	77.8341	965.332	78.7866	965.332	77.1977	965.332	79.452	965.332	78.5767	965.332	79.6913	965.332	80.4403	965.332	80.6202	965.332	81.1849
1,000.49	90.2152	1,000.49	90.2663	1,000.49	89.6035	1,000.49	89.5818	1,000.49	88.8255	1,000.49	88.2058	1,000.49	88.1528	1,000.49	86.432	1,000.49	87.3729	1,000.49	84.7921	1,000.49	86.196	1,000.49	83.6169	1,000.49	84.6708	1,000.49	82.7865	1,000.49	83.0958	1,000.49	82.0961	1,000.49	81.9493	1,000.49	81.3108	1,000.49	81.5066	1,000.49	80.4062	1,000.49	80.8078	1,000.49	80.043	1,000.49	79.1021	1,000.49	80.4732	1,000.49	77.2592	1,000.49	80.8934	1,000.49	75.9181	1,000.49	80.8364	1,000.49	76.353	1,000.49	80.7614	1,000.49	78.7461	1,000.49	81.4074	1,000.49	80.0602	1,000.49	82.097	1,000.49	80.9252	1,000.49	81.8923
1,035.64	90.1736	1,035.64	90.0342	1,035.64	90.0407	1,035.64	89.8744	1,035.64	89.2244	1,035.64	89.3459	1,035.64	87.9086	1,035.64	88.032	1,035.64	86.9263	1,035.64	85.8642	1,035.64	86.645	1,035.64	83.0317	1,035.64	86.4466	1,035.64	79.8072	1,035.64	85.6526	1,035.64	77.2738	1,035.64	84.1349	1,035.64	77.083	1,035.64	82.9114	1,035.64	77.9769	1,035.64	82.6247	1,035.64	78.8839	1,035.64	81.5313	1,035.64	79.7874	1,035.64	78.297	1,035.64	80.3423	1,035.64	75.967	1,035.64	80.3133	1,035.64	77.8113	1,035.64	80.3577	1,035.64	79.2147	1,035.64	81.1576	1,035.64	80.2374	1,035.64	81.9892	1,035.64	81.1016	1,035.64	81.9207
1,072.27	89.346	1,072.27	89.6241	1,072.27	88.9375	1,072.27	89.5692	1,072.27	88.4599	1,072.27	88.8781	1,072.27	87.9494	1,072.27	87.4193	1,072.27	87.4395	1,072.27	85.3671	1,072.27	86.8829	1,072.27	83.0282	1,072.27	86.0435	1,072.27	80.92	1,072.27	84.6716	1,072.27	80.1679	1,072.27	83.0735	1,072.27	80.3964	1,072.27	82.3132	1,072.27	79.7417	1,072.27	82.157	1,072.27	77.8703	1,072.27	81.2735	1,072.27	77.3066	1,072.27	79.226	1,072.27	78.5088	1,072.27	75.6924	1,072.27	79.7321	1,072.27	75.3898	1,072.27	80.951	1,072.27	79.2276	1,072.27	82.079	1,072.27	80.0457	1,072.27	82.4089	1,072.27	79.7415	1,072.27	81.2431
1,108.89	88.8732	1,108.89	88.7607	1,108.89	88.632	1,108.89	88.4663	1,108.89	88.3067	1,108.89	88.037	1,108.89	88.2037	1,108.89	87.1611	1,108.89	87.9625	1,108.89	85.6331	1,108.89	87.2095	1,108.89	83.528	1,108.89	86.0343	1,108.89	81.0629	1,108.89	84.5346	1,108.89	79.1048	1,108.89	82.6645	1,108.89	79.0484	1,108.89	81.1745	1,108.89	79.351	1,108.89	81.3024	1,108.89	78.3242	1,108.89	81.6446	1,108.89	76.9887	1,108.89	80.1707	1,108.89	77.0735	1,108.89	76.0723	1,108.89	77.8617	1,108.89	75.8769	1,108.89	78.7741	1,108.89	79.6541	1,108.89	79.8827	1,108.89	80.3713	1,108.89	80.4824	1,108.89	79.2717	1,108.89	79.7004
1,148.44	89.035	1,148.44	88.9142	1,148.44	88.9734	1,148.44	88.7337	1,148.44	88.5999	1,148.44	88.2456	1,148.44	88.0519	1,148.44	87.0551	1,148.44	87.5996	1,148.44	85.2303	1,148.44	87.1494	1,148.44	83.351	1,148.44	86.3661	1,148.44	81.7108	1,148.44	85.0224	1,148.44	79.978	1,148.44	82.8826	1,148.44	78.2581	1,148.44	80.1598	1,148.44	77.1239	1,148.44	79.4764	1,148.44	76.2744	1,148.44	80.9032	1,148.44	75.636	1,148.44	81.0914	1,148.44	75.9494	1,148.44	79.1484	1,148.44	77.7575	1,148.44	74.5878	1,148.44	79.824	1,148.44	76.5217	1,148.44	80.5827	1,148.44	80.7625	1,148.44	79.9455	1,148.44	80.9878	1,148.44	79.613
1,189.45	89.3018	1,189.45	89.3646	1,189.45	88.8694	1,189.45	88.839	1,189.45	88.3001	1,189.45	87.7508	1,189.45	87.592	1,189.45	86.2264	1,189.45	86.792	1,189.45	84.5491	1,189.45	86.0497	1,189.45	83.3441	1,189.45	85.2807	1,189.45	82.7884	1,189.45	84.3335	1,189.45	82.0198	1,189.45	82.9589	1,189.45	80.5486	1,189.45	80.8833	1,189.45	79.3782	1,189.45	79.3451	1,189.45	79.1402	1,189.45	79.6064	1,189.45	78.4832	1,189.45	79.0864	1,189.45	76.9847	1,189.45	76.5566	1,189.45	75.7502	1,189.45	75.6079	1,189.45	76.9391	1,189.45	77.1227	1,189.45	78.8843	1,189.45	78.3201	1,189.45	79.597	1,189.45	79.0315	1,189.45	79.4253
1,230.47	89.4544	1,230.47	89.1734	1,230.47	88.8853	1,230.47	88.4132	1,230.47	87.9261	1,230.47	87.5613	1,230.47	87.5547	1,230.47	86.5002	1,230.47	87.442	1,230.47	84.9983	1,230.47	86.6693	1,230.47	83.1036	1,230.47	85.1909	1,230.47	81.2466	1,230.47	83.4567	1,230.47	79.5748	1,230.47	81.5408	1,230.47	77.6017	1,230.47	78.7129	1,230.47	76.6366	1,230.47	76.0712	1,230.47	77.9929	1,230.47	77.95	1,230.47	79.5147	1,230.47	78.4288	1,230.47	79.8331	1,230.47	77.355	1,230.47	78.4769	1,230.47	77.3761	1,230.47	77.3858	1,230.47	76.6552	1,230.47	77.8809	1,230.47	78.7609	1,230.47	78.0107	1,230.47	79.3359	1,230.47	78.2727
1,274.41	89.2129	1,274.41	89.4112	1,274.41	88.5257	1,274.41	88.7998	1,274.41	87.9496	1,274.41	87.5578	1,274.41	87.5373	1,274.41	86.0855	1,274.41	87.0481	1,274.41	84.6818	1,274.41	86.416	1,274.41	83.339	1,274.41	85.3715	1,274.41	81.94	1,274.41	83.6973	1,274.41	80.4366	1,274.41	81.7301	1,274.41	78.1298	1,274.41	80.2224	1,274.41	74.4701	1,274.41	79.4564	1,274.41	75.6235	1,274.41	79.6932	1,274.41	79.8886	1,274.41	79.8522	1,274.41	80.9895	1,274.41	76.5229	1,274.41	78.9416	1,274.41	72.3732	1,274.41	76.0247	1,274.41	77.5819	1,274.41	76.8304	1,274.41	78.4469	1,274.41	78.5695	1,274.41	78.8366	1,274.41	79.2624
1,319.82	88.9151	1,319.82	89.07	1,319.82	88.1701	1,319.82	88.56	1,319.82	87.5847	1,319.82	87.496	1,319.82	87.4423	1,319.82	85.6291	1,319.82	87.1527	1,319.82	83.0828	1,319.82	86.3798	1,319.82	81.2417	1,319.82	84.8669	1,319.82	80.7626	1,319.82	82.3519	1,319.82	80.2075	1,319.82	79.4984	1,319.82	78.7218	1,319.82	77.3017	1,319.82	75.7841	1,319.82	75.2794	1,319.82	75.5024	1,319.82	76.9071	1,319.82	78.3206	1,319.82	79.2702	1,319.82	79.4971	1,319.82	77.5831	1,319.82	78.9145	1,319.82	74.2718	1,319.82	76.7635	1,319.82	76.8939	1,319.82	76.4979	1,319.82	79.8104	1,319.82	78.1417	1,319.82	80.17	1,319.82	79.1652
1,366.7	88.564	1,366.7	89.1082	1,366.7	87.8272	1,366.7	88.561	1,366.7	87.4553	1,366.7	87.0461	1,366.7	86.7908	1,366.7	85.1632	1,366.7	85.6559	1,366.7	82.9939	1,366.7	84.6848	1,366.7	80.6295	1,366.7	83.8054	1,366.7	79.1755	1,366.7	82.5906	1,366.7	78.5488	1,366.7	81.0796	1,366.7	77.1651	1,366.7	78.9747	1,366.7	73.1497	1,366.7	76.773	1,366.7	68.8898	1,366.7	77.5064	1,366.7	76.4906	1,366.7	78.8687	1,366.7	80.5492	1,366.7	77.4541	1,366.7	80.5177	1,366.7	69.7283	1,366.7	78.3521	1,366.7	74.3973	1,366.7	77.0905	1,366.7	78.9765	1,366.7	78.2414	1,366.7	79.6064	1,366.7	79.132
1,413.57	88.089	1,413.57	88.1821	1,413.57	87.9894	1,413.57	87.9192	1,413.57	87.5124	1,413.57	87.1074	1,413.57	86.3846	1,413.57	85.742	1,413.57	85.446	1,413.57	83.3268	1,413.57	84.8199	1,413.57	79.3091	1,413.57	83.58	1,413.57	75.6501	1,413.57	82.0955	1,413.57	75.0043	1,413.57	81.0843	1,413.57	74.0536	1,413.57	79.6264	1,413.57	70.2998	1,413.57	75.7913	1,413.57	63.1838	1,413.57	73.0867	1,413.57	75.7496	1,413.57	78.0782	1,413.57	80.0773	1,413.57	78.402	1,413.57	80.7194	1,413.57	71.3626	1,413.57	79.9641	1,413.57	70.8058	1,413.57	79.0854	1,413.57	78.6679	1,413.57	79.4153	1,413.57	79.9587	1,413.57	79.7216
1,463.38	87.8692	1,463.38	87.3501	1,463.38	88.3703	1,463.38	87.0697	1,463.38	87.9156	1,463.38	86.9522	1,463.38	86.3207	1,463.38	86.3752	1,463.38	84.6864	1,463.38	84.1691	1,463.38	83.5879	1,463.38	79.7847	1,463.38	82.7816	1,463.38	75.0732	1,463.38	81.8126	1,463.38	71.7869	1,463.38	80.4811	1,463.38	69.4885	1,463.38	79.7046	1,463.38	69.1099	1,463.38	77.9079	1,463.38	65.2397	1,463.38	75.2055	1,463.38	66.813	1,463.38	77.4785	1,463.38	76.4578	1,463.38	76.9983	1,463.38	80.0822	1,463.38	73.0403	1,463.38	80.4152	1,463.38	56.2308	1,463.38	78.9549	1,463.38	76.4601	1,463.38	78.492	1,463.38	79.732	1,463.38	79.3591
1,516.11	88.7635	1,516.11	87.7225	1,516.11	88.6088	1,516.11	86.4828	1,516.11	87.7255	1,516.11	86.3427	1,516.11	86.3794	1,516.11	85.8554	1,516.11	84.2352	1,516.11	83.3606	1,516.11	82.2646	1,516.11	78.4872	1,516.11	81.3948	1,516.11	75.0187	1,516.11	80.5069	1,516.11	75.1242	1,516.11	79.7276	1,516.11	75.4488	1,516.11	79.4944	1,516.11	76.6007	1,516.11	77.4604	1,516.11	75.0962	1,516.11	71.4756	1,516.11	64.2266	1,516.11	74.9602	1,516.11	72.6342	1,516.11	77.1792	1,516.11	76.4577	1,516.11	75.8522	1,516.11	78.0416	1,516.11	64.4231	1,516.11	78.4488	1,516.11	74.1124	1,516.11	78.9187	1,516.11	78.2837	1,516.11	78.8788
1,568.85	88.8048	1,568.85	88.1178	1,568.85	88.5472	1,568.85	86.3133	1,568.85	87.9167	1,568.85	85.052	1,568.85	85.9688	1,568.85	84.6831	1,568.85	83.6034	1,568.85	82.9102	1,568.85	82.6915	1,568.85	78.6307	1,568.85	81.376	1,568.85	73.0695	1,568.85	79.607	1,568.85	73.141	1,568.85	77.9069	1,568.85	74.4995	1,568.85	76.6458	1,568.85	75.2879	1,568.85	75.4199	1,568.85	74.7216	1,568.85	71.5604	1,568.85	70.021	1,568.85	73.2275	1,568.85	67.9289	1,568.85	75.7914	1,568.85	75.0668	1,568.85	74.7991	1,568.85	77.7831	1,568.85	66.7276	1,568.85	77.7696	1,568.85	70.1481	1,568.85	78.0091	1,568.85	77.6069	1,568.85	78.8386
1,624.51	88.2354	1,624.51	88.286	1,624.51	87.8754	1,624.51	86.5234	1,624.51	87.295	1,624.51	84.0295	1,624.51	84.9321	1,624.51	83.4537	1,624.51	83.3842	1,624.51	82.3305	1,624.51	82.2432	1,624.51	79.3001	1,624.51	79.8902	1,624.51	75.1404	1,624.51	79.4262	1,624.51	71.9687	1,624.51	78.7042	1,624.51	68.005	1,624.51	77.7587	1,624.51	68.9668	1,624.51	77.9434	1,624.51	73.4204	1,624.51	75.2818	1,624.51	72.2262	1,624.51	70.6901	1,624.51	69.1096	1,624.51	74.0121	1,624.51	73.0315	1,624.51	74.9561	1,624.51	75.8522	1,624.51	70.2021	1,624.51	75.9418	1,624.51	67.7798	1,624.51	76.5789	1,624.51	75.6563	1,624.51	77.4028
1,681.64	87.3529	1,681.64	87.7515	1,681.64	87.6934	1,681.64	86.8869	1,681.64	86.2792	1,681.64	83.1593	1,681.64	83.3368	1,681.64	81.3554	1,681.64	82.761	1,681.64	81.2536	1,681.64	80.1839	1,681.64	78.205	1,681.64	78.9818	1,681.64	73.6042	1,681.64	80.6311	1,681.64	72.8808	1,681.64	79.5921	1,681.64	71.0104	1,681.64	77.907	1,681.64	67.7105	1,681.64	78.2535	1,681.64	71.5495	1,681.64	75.9423	1,681.64	67.9484	1,681.64	73.8798	1,681.64	64.4966	1,681.64	74.8308	1,681.64	70.4707	1,681.64	72.0642	1,681.64	73.059	1,681.64	71.6188	1,681.64	72.765	1,681.64	63.4197	1,681.64	74.4222	1,681.64	72.3463	1,681.64	75.2493
1,741.7	87.675	1,741.7	87.2941	1,741.7	86.7665	1,741.7	86.1447	1,741.7	84.8626	1,741.7	83.397	1,741.7	83.1677	1,741.7	77.6149	1,741.7	80.7122	1,741.7	74.8489	1,741.7	79.2854	1,741.7	77.6352	1,741.7	80.9013	1,741.7	77.5554	1,741.7	81.0205	1,741.7	75.8673	1,741.7	79.3543	1,741.7	74.1868	1,741.7	77.012	1,741.7	67.9782	1,741.7	77.4312	1,741.7	60.825	1,741.7	77.1008	1,741.7	72.1034	1,741.7	73.0218	1,741.7	71.9002	1,741.7	71.454	1,741.7	68.4811	1,741.7	71.5183	1,741.7	69.4852	1,741.7	73.7601	1,741.7	73.4428	1,741.7	57.5224	1,741.7	75.4385	1,741.7	74.9361	1,741.7	75.9425
1,803.22	87.9394	1,803.22	87.7672	1,803.22	87.2949	1,803.22	85.9747	1,803.22	85.0795	1,803.22	83.1588	1,803.22	80.7189	1,803.22	80.3498	1,803.22	79.2013	1,803.22	76.1306	1,803.22	79.1268	1,803.22	72.8727	1,803.22	78.5124	1,803.22	73.5883	1,803.22	79.1634	1,803.22	73.3099	1,803.22	79.1437	1,803.22	73.3881	1,803.22	77.9187	1,803.22	67.5379	1,803.22	77.7093	1,803.22	62.4451	1,803.22	77.7562	1,803.22	68.7076	1,803.22	73.5059	1,803.22	73.5214	1,803.22	69.0388	1,803.22	74.0312	1,803.22	74.6144	1,803.22	72.93	1,803.22	76.498	1,803.22	73.8522	1,803.22	61.7777	1,803.22	73.7666	1,803.22	71.2971	1,803.22	71.0603
1,866.21	87.8507	1,866.21	87.3742	1,866.21	87.1436	1,866.21	85.8528	1,866.21	84.2571	1,866.21	81.408	1,866.21	81.4243	1,866.21	77.1993	1,866.21	79.6315	1,866.21	77.1294	1,866.21	77.213	1,866.21	75.622	1,866.21	80.8049	1,866.21	69.3817	1,866.21	81.4961	1,866.21	64.3372	1,866.21	80.0128	1,866.21	65.9963	1,866.21	79.3933	1,866.21	68.9003	1,866.21	78.0319	1,866.21	72.9187	1,866.21	78.3664	1,866.21	66.0473	1,866.21	79.7131	1,866.21	74.7949	1,866.21	75.6739	1,866.21	72.7698	1,866.21	70.3266	1,866.21	68.3268	1,866.21	75.2929	1,866.21	70.1818	1,866.21	65.8517	1,866.21	60.4756	1,866.21	74.6934	1,866.21	71.5812
1,932.13	87.8561	1,932.13	87.1977	1,932.13	86.7906	1,932.13	84.7942	1,932.13	84.0005	1,932.13	80.8779	1,932.13	80.4542	1,932.13	76.5786	1,932.13	78.8937	1,932.13	75.6941	1,932.13	80.0041	1,932.13	76.4656	1,932.13	80.2938	1,932.13	76.0255	1,932.13	78.9262	1,932.13	74.3755	1,932.13	76.8623	1,932.13	70.6626	1,932.13	74.9504	1,932.13	76.4552	1,932.13	74.0164	1,932.13	78.888	1,932.13	70.1717	1,932.13	70.6428	1,932.13	79.0374	1,932.13	70.01	1,932.13	78.1656	1,932.13	65.3903	1,932.13	74.8103	1,932.13	64.7215	1,932.13	72.6506	1,932.13	63.4409	1,932.13	68.0471	1,932.13	65.4251	1,932.13	72.4947	1,932.13	74.7637
1,999.51	87.7901	1,999.51	86.7947	1,999.51	86.4483	1,999.51	83.6767	1,999.51	82.4209	1,999.51	79.6815	1,999.51	79.0075	1,999.51	78.0225	1,999.51	77.6853	1,999.51	76.1507	1,999.51	80.2625	1,999.51	74.6004	1,999.51	81.7593	1,999.51	74.0721	1,999.51	81.2884	1,999.51	74.0022	1,999.51	79.3333	1,999.51	74.5263	1,999.51	76.4683	1,999.51	76.6473	1,999.51	76.9464	1,999.51	77.5937	1,999.51	75.9512	1,999.51	72.1039	1,999.51	77.4664	1,999.51	63.3135	1,999.51	75.0956	1,999.51	66.9505	1,999.51	75.7916	1,999.51	67.1838	1,999.51	73.5378	1,999.51	59.1806	1,999.51	67.7342	1,999.51	71.4689	1,999.51	68.8159	1,999.51	75.4216
2,069.82	88.4497	2,069.82	86.9919	2,069.82	86.8966	2,069.82	83.8094	2,069.82	82.5054	2,069.82	79.6673	2,069.82	78.6896	2,069.82	77.2018	2,069.82	78.607	2,069.82	72.3776	2,069.82	81.4239	2,069.82	69.1223	2,069.82	82.4208	2,069.82	76.0753	2,069.82	83.1464	2,069.82	78.7119	2,069.82	81.2183	2,069.82	77.2026	2,069.82	77.1546	2,069.82	73.6365	2,069.82	79.6425	2,069.82	75.5597	2,069.82	77.5856	2,069.82	75.8561	2,069.82	73.9361	2,069.82	69.6961	2,069.82	75.581	2,069.82	70.4993	2,069.82	73.3997	2,069.82	72.252	2,069.82	73.2799	2,069.82	69.9522	2,069.82	72.2616	2,069.82	71.8393	2,069.82	72.9815	2,069.82	73.7406
2,143.07	87.9139	2,143.07	87.0811	2,143.07	86.787	2,143.07	84.2625	2,143.07	82.0989	2,143.07	77.7518	2,143.07	76.8312	2,143.07	72.3543	2,143.07	79.2818	2,143.07	72.4654	2,143.07	82.5573	2,143.07	68.7319	2,143.07	81.659	2,143.07	68.8029	2,143.07	80.5398	2,143.07	77.3574	2,143.07	79.1933	2,143.07	76.1463	2,143.07	73.5434	2,143.07	70.0574	2,143.07	73.4837	2,143.07	68.3605	2,143.07	75.592	2,143.07	64.8877	2,143.07	72.4151	2,143.07	67.9422	2,143.07	78.8869	2,143.07	74.7022	2,143.07	70.5773	2,143.07	69.7023	2,143.07	73.6476	2,143.07	71.4573	2,143.07	69.2193	2,143.07	71.3768	2,143.07	76.4983	2,143.07	75.0386
2,219.24	87.0767	2,219.24	86.9804	2,219.24	84.6525	2,219.24	83.9727	2,219.24	79.6206	2,219.24	76.5899	2,219.24	76.2173	2,219.24	73.2089	2,219.24	81.241	2,219.24	74.4298	2,219.24	83.004	2,219.24	75.6801	2,219.24	82.4895	2,219.24	76.1351	2,219.24	83.0211	2,219.24	66.1186	2,219.24	82.1083	2,219.24	66.8304	2,219.24	77.6569	2,219.24	70.2252	2,219.24	77.4255	2,219.24	68.4263	2,219.24	78.63	2,219.24	71.3766	2,219.24	73.5729	2,219.24	71.7114	2,219.24	75.7874	2,219.24	71.061	2,219.24	74.906	2,219.24	70.5476	2,219.24	69.5477	2,219.24	66.9131	2,219.24	67.4696	2,219.24	70.7009	2,219.24	72.5502	2,219.24	72.8092
2,296.88	87.2635	2,296.88	86.4429	2,296.88	84.6587	2,296.88	83.3523	2,296.88	79.9739	2,296.88	78.3758	2,296.88	76.957	2,296.88	69.7203	2,296.88	80.8876	2,296.88	79.0818	2,296.88	82.2528	2,296.88	79.1468	2,296.88	82.1642	2,296.88	79.5452	2,296.88	83.2291	2,296.88	74.898	2,296.88	81.7609	2,296.88	75.1905	2,296.88	78.5106	2,296.88	77.1352	2,296.88	72.6852	2,296.88	76.2982	2,296.88	76.4172	2,296.88	77.0534	2,296.88	77.5529	2,296.88	73.7477	2,296.88	75.3865	2,296.88	74.2268	2,296.88	75.3483	2,296.88	72.9254	2,296.88	66.2299	2,296.88	65.223	2,296.88	67.4743	2,296.88	71.7221	2,296.88	72.6033	2,296.88	74.4664
2,378.91	87.9062	2,378.91	87.1359	2,378.91	86.2111	2,378.91	81.8753	2,378.91	81.1552	2,378.91	69.246	2,378.91	77.1638	2,378.91	73.0183	2,378.91	83.2582	2,378.91	79.3326	2,378.91	82.575	2,378.91	78.2117	2,378.91	84.436	2,378.91	78.347	2,378.91	84.324	2,378.91	78.0777	2,378.91	79.3792	2,378.91	77.0274	2,378.91	74.6774	2,378.91	78.5263	2,378.91	77.3381	2,378.91	77.8208	2,378.91	76.3858	2,378.91	78.306	2,378.91	77.4166	2,378.91	75.9257	2,378.91	74.372	2,378.91	69.4121	2,378.91	73.7993	2,378.91	69.7361	2,378.91	66.1144	2,378.91	68.0132	2,378.91	65.7328	2,378.91	75.5177	2,378.91	69.4324	2,378.91	76.1147
2,462.4	86.4446	2,462.4	85.7665	2,462.4	84.9591	2,462.4	83.3612	2,462.4	80.3874	2,462.4	73.7747	2,462.4	79.7918	2,462.4	75.6816	2,462.4	82.5817	2,462.4	80.943	2,462.4	84.1701	2,462.4	79.5418	2,462.4	83.4293	2,462.4	78.9556	2,462.4	81.8834	2,462.4	79.4444	2,462.4	78.7676	2,462.4	76.8142	2,462.4	70.1158	2,462.4	74.8303	2,462.4	73.8791	2,462.4	74.183	2,462.4	74.9729	2,462.4	71.964	2,462.4	76.2532	2,462.4	73.0248	2,462.4	74.5778	2,462.4	73.082	2,462.4	74.7577	2,462.4	68.7741	2,462.4	63.6695	2,462.4	59.0181	2,462.4	61.934	2,462.4	71.3985	2,462.4	72.7192	2,462.4	74.3054
2,548.83	85.4025	2,548.83	85.711	2,548.83	83.7335	2,548.83	83.2346	2,548.83	79.3339	2,548.83	67.1604	2,548.83	74.4106	2,548.83	77.9753	2,548.83	81.4488	2,548.83	79.8176	2,548.83	83.9088	2,548.83	81.3496	2,548.83	83.576	2,548.83	79.0248	2,548.83	82.4925	2,548.83	75.1933	2,548.83	81.0303	2,548.83	76.9936	2,548.83	73.9843	2,548.83	74.2262	2,548.83	71.5742	2,548.83	74.2377	2,548.83	72.131	2,548.83	73.797	2,548.83	77.4772	2,548.83	70.2247	2,548.83	73.0613	2,548.83	72.5335	2,548.83	73.796	2,548.83	70.4147	2,548.83	65.4525	2,548.83	59.6782	2,548.83	66.6205	2,548.83	73.2127	2,548.83	71.2331	2,548.83	75.5488
2,639.65	85.4019	2,639.65	85.5709	2,639.65	82.7511	2,639.65	81.3689	2,639.65	76.8759	2,639.65	71.3233	2,639.65	71.6776	2,639.65	78.6972	2,639.65	81.1587	2,639.65	80.7826	2,639.65	83.9925	2,639.65	81.3622	2,639.65	83.3351	2,639.65	80.6387	2,639.65	82.4519	2,639.65	78.4119	2,639.65	79.5378	2,639.65	76.0608	2,639.65	65.8899	2,639.65	73.8541	2,639.65	75.6656	2,639.65	70.6855	2,639.65	77.156	2,639.65	71.4566	2,639.65	77.3791	2,639.65	71.7806	2,639.65	74.3481	2,639.65	71.328	2,639.65	71.4692	2,639.65	70.5902	2,639.65	64.0789	2,639.65	61.1713	2,639.65	61.4979	2,639.65	70.0068	2,639.65	70.9543	2,639.65	74.053
2,731.93	84.9914	2,731.93	85.1126	2,731.93	82.2967	2,731.93	80.6419	2,731.93	75.4382	2,731.93	73.9204	2,731.93	69.3253	2,731.93	79.3772	2,731.93	81.4298	2,731.93	81.804	2,731.93	83.7276	2,731.93	81.064	2,731.93	82.8462	2,731.93	78.5537	2,731.93	81.1508	2,731.93	75.6966	2,731.93	78.1952	2,731.93	72.7326	2,731.93	66.9302	2,731.93	71.9846	2,731.93	71.7971	2,731.93	71.1617	2,731.93	75.7731	2,731.93	71.4564	2,731.93	75.7358	2,731.93	70.0521	2,731.93	74.6991	2,731.93	71.1759	2,731.93	71.0766	2,731.93	72.1148	2,731.93	65.0146	2,731.93	64.5482	2,731.93	67.4157	2,731.93	69.9438	2,731.93	69.3315	2,731.93	72.2693
2,828.61	84.616	2,828.61	84.7187	2,828.61	81.6527	2,828.61	80.6012	2,828.61	75.1193	2,828.61	76.1364	2,828.61	67.5035	2,828.61	80.7894	2,828.61	80.8978	2,828.61	82.4893	2,828.61	83.8504	2,828.61	81.1583	2,828.61	83.0431	2,828.61	78.986	2,828.61	81.4682	2,828.61	76.7443	2,828.61	78.6468	2,828.61	75.399	2,828.61	64.4947	2,828.61	74.3953	2,828.61	74.1304	2,828.61	71.2611	2,828.61	76.4989	2,828.61	71.6414	2,828.61	75.3729	2,828.61	71.2324	2,828.61	73.5758	2,828.61	68.9526	2,828.61	72.1061	2,828.61	70.52	2,828.61	55.958	2,828.61	68.5872	2,828.61	64.7054	2,828.61	66.9618	2,828.61	66.4365	2,828.61	71.1049
2,928.22	83.9578	2,928.22	84.1572	2,928.22	81.1261	2,928.22	80.3755	2,928.22	74.4895	2,928.22	78.2488	2,928.22	71.2994	2,928.22	81.5987	2,928.22	80.8346	2,928.22	81.725	2,928.22	83.7164	2,928.22	80.5345	2,928.22	83.5717	2,928.22	79.0915	2,928.22	82.168	2,928.22	77.259	2,928.22	76.2591	2,928.22	75.5107	2,928.22	64.9574	2,928.22	71.9328	2,928.22	75.5286	2,928.22	67.289	2,928.22	78.4352	2,928.22	69.9183	2,928.22	73.6961	2,928.22	70.4506	2,928.22	75.1782	2,928.22	66.838	2,928.22	71.2981	2,928.22	69.7232	2,928.22	55.8639	2,928.22	69.3016	2,928.22	63.9009	2,928.22	70.7401	2,928.22	66.6946	2,928.22	70.6992
3,030.76	83.634	3,030.76	83.4123	3,030.76	81.1967	3,030.76	79.7674	3,030.76	74.5839	3,030.76	78.821	3,030.76	73.8633	3,030.76	81.808	3,030.76	81.4123	3,030.76	82.1078	3,030.76	83.8546	3,030.76	81.2417	3,030.76	83.6328	3,030.76	79.79	3,030.76	82.1001	3,030.76	75.0826	3,030.76	76.8575	3,030.76	71.3143	3,030.76	68.5946	3,030.76	73.2358	3,030.76	73.1255	3,030.76	71.5366	3,030.76	77.6557	3,030.76	69.1855	3,030.76	74.498	3,030.76	70.826	3,030.76	72.9444	3,030.76	70.4012	3,030.76	72.6843	3,030.76	66.2334	3,030.76	63.4638	3,030.76	68.202	3,030.76	61.7189	3,030.76	69.9365	3,030.76	66.1254	3,030.76	71.5733
3,137.7	83.7736	3,137.7	83.5529	3,137.7	81.1556	3,137.7	79.746	3,137.7	75.5266	3,137.7	79.3782	3,137.7	76.713	3,137.7	82.1761	3,137.7	82.1575	3,137.7	82.6692	3,137.7	83.8976	3,137.7	81.6793	3,137.7	83.5988	3,137.7	79.0977	3,137.7	81.217	3,137.7	77.0918	3,137.7	76.955	3,137.7	75.9276	3,137.7	70.5991	3,137.7	73.3133	3,137.7	73.6793	3,137.7	70.1967	3,137.7	76.7028	3,137.7	69.5597	3,137.7	74.1969	3,137.7	69.3854	3,137.7	71.3948	3,137.7	69.4882	3,137.7	70.897	3,137.7	68.6714	3,137.7	61.985	3,137.7	66.1304	3,137.7	58.5552	3,137.7	69.1969	3,137.7	66.3158	3,137.7	72.0049
3,249.02	83.6794	3,249.02	83.1811	3,249.02	81.1022	3,249.02	79.2948	3,249.02	75.8447	3,249.02	79.975	3,249.02	78.5118	3,249.02	82.5954	3,249.02	82.1028	3,249.02	83.1599	3,249.02	83.1133	3,249.02	81.5777	3,249.02	82.6386	3,249.02	79.6766	3,249.02	81.4321	3,249.02	77.269	3,249.02	77.6085	3,249.02	72.3392	3,249.02	72.4396	3,249.02	71.2323	3,249.02	74.6245	3,249.02	69.2623	3,249.02	76.4128	3,249.02	66.4311	3,249.02	72.8657	3,249.02	68.8631	3,249.02	69.5116	3,249.02	69.2578	3,249.02	69.9068	3,249.02	68.673	3,249.02	63.5168	3,249.02	67.6184	3,249.02	38.9283	3,249.02	68.6207	3,249.02	67.0128	3,249.02	69.93
3,363.28	83.9059	3,363.28	82.9411	3,363.28	81.3708	3,363.28	78.927	3,363.28	76.5745	3,363.28	80.7481	3,363.28	80.1449	3,363.28	83.1409	3,363.28	82.6165	3,363.28	83.5627	3,363.28	82.4367	3,363.28	81.8463	3,363.28	81.6514	3,363.28	79.4417	3,363.28	81.0469	3,363.28	74.3919	3,363.28	77.6447	3,363.28	72.1982	3,363.28	74.5449	3,363.28	71.5173	3,363.28	75.934	3,363.28	68.829	3,363.28	75.3132	3,363.28	67.8732	3,363.28	73.0382	3,363.28	68.0315	3,363.28	69.1913	3,363.28	68.3314	3,363.28	67.6313	3,363.28	68.4408	3,363.28	63.0437	3,363.28	66.132	3,363.28	49.6651	3,363.28	68.6786	3,363.28	67.1495	3,363.28	68.3923
3,481.93	83.7995	3,481.93	82.8282	3,481.93	81.6855	3,481.93	80.2565	3,481.93	77.4177	3,481.93	81.8361	3,481.93	80.8045	3,481.93	83.8454	3,481.93	83.2641	3,481.93	83.5205	3,481.93	82.159	3,481.93	80.9923	3,481.93	81.9052	3,481.93	76.9793	3,481.93	80.1071	3,481.93	75.1363	3,481.93	76.7936	3,481.93	74.2336	3,481.93	72.6931	3,481.93	68.4184	3,481.93	74.8702	3,481.93	67.9986	3,481.93	76.2783	3,481.93	63.7288	3,481.93	73.9425	3,481.93	66.7472	3,481.93	69.6428	3,481.93	67.1635	3,481.93	66.3197	3,481.93	67.1793	3,481.93	64.4693	3,481.93	64.5932	3,481.93	55.6443	3,481.93	68.9127	3,481.93	66.6362	3,481.93	69.5791
3,604.98	84.596	3,604.98	83.5606	3,604.98	82.2579	3,604.98	80.938	3,604.98	79.0971	3,604.98	83.2551	3,604.98	82.2905	3,604.98	84.5603	3,604.98	83.3039	3,604.98	83.6684	3,604.98	82.3987	3,604.98	80.2248	3,604.98	82.1222	3,604.98	78.9997	3,604.98	79.9639	3,604.98	75.72	3,604.98	78.0631	3,604.98	71.4705	3,604.98	70.2696	3,604.98	71.0186	3,604.98	70.6748	3,604.98	69.9897	3,604.98	75.1457	3,604.98	66.1998	3,604.98	75.3322	3,604.98	67.4401	3,604.98	71.3955	3,604.98	67.0845	3,604.98	66.4534	3,604.98	68.146	3,604.98	64.1798	3,604.98	66.312	3,604.98	55.788	3,604.98	69.3926	3,604.98	67.7532	3,604.98	71.1977
3,732.42	85.0471	3,732.42	83.858	3,732.42	83.0031	3,732.42	81.7267	3,732.42	80.2846	3,732.42	83.8193	3,732.42	83.1479	3,732.42	84.9771	3,732.42	83.1637	3,732.42	82.5434	3,732.42	81.7149	3,732.42	81.0094	3,732.42	80.9647	3,732.42	79.5697	3,732.42	80.2707	3,732.42	74.5421	3,732.42	76.5073	3,732.42	75.869	3,732.42	70.1639	3,732.42	71.1258	3,732.42	68.0024	3,732.42	71.1255	3,732.42	71.8005	3,732.42	67.249	3,732.42	73.9764	3,732.42	67.1457	3,732.42	73.2072	3,732.42	67.7842	3,732.42	64.3704	3,732.42	68.5402	3,732.42	59.9135	3,732.42	67.5817	3,732.42	61.3065	3,732.42	69.676	3,732.42	66.6111	3,732.42	70.1442
3,864.26	85.6642	3,864.26	84.1695	3,864.26	83.0873	3,864.26	81.5058	3,864.26	80.9867	3,864.26	84.8118	3,864.26	83.3397	3,864.26	84.1584	3,864.26	83.4422	3,864.26	82.0761	3,864.26	80.7965	3,864.26	81.8607	3,864.26	79.7298	3,864.26	78.804	3,864.26	80.0117	3,864.26	77.9015	3,864.26	76.4045	3,864.26	74.4366	3,864.26	74.3823	3,864.26	70.8113	3,864.26	72.056	3,864.26	70.648	3,864.26	67.7148	3,864.26	67.1304	3,864.26	73.1297	3,864.26	64.2306	3,864.26	70.6139	3,864.26	65.9083	3,864.26	63.252	3,864.26	66.1432	3,864.26	63.0644	3,864.26	67.6165	3,864.26	61.1543	3,864.26	68.6812	3,864.26	64.0972	3,864.26	69.4882
4,000.49	86.3136	4,000.49	84.4968	4,000.49	83.2122	4,000.49	82.8978	4,000.49	80.7663	4,000.49	84.8515	4,000.49	84.1477	4,000.49	83.3485	4,000.49	84.2344	4,000.49	82.3428	4,000.49	79.8814	4,000.49	80.8424	4,000.49	81.1005	4,000.49	80.3226	4,000.49	80.6503	4,000.49	74.2708	4,000.49	75.6977	4,000.49	70.8954	4,000.49	72.9332	4,000.49	69.1947	4,000.49	71.9185	4,000.49	68.7397	4,000.49	67.024	4,000.49	67.2133	4,000.49	72.3686	4,000.49	64.1659	4,000.49	69.0477	4,000.49	65.7611	4,000.49	64.7379	4,000.49	63.9748	4,000.49	64.3679	4,000.49	66.1068	4,000.49	63.6895	4,000.49	69.3245	4,000.49	65.1065	4,000.49	70.438
4,141.11	86.6183	4,141.11	84.7003	4,141.11	84.2745	4,141.11	83.8819	4,141.11	81.0752	4,141.11	84.9415	4,141.11	84.7035	4,141.11	83.1424	4,141.11	83.8706	4,141.11	82.6341	4,141.11	80.7551	4,141.11	81.0388	4,141.11	82.297	4,141.11	77.9673	4,141.11	81.4847	4,141.11	74.3672	4,141.11	73.4016	4,141.11	76.6741	4,141.11	75.7027	4,141.11	68.5589	4,141.11	69.8881	4,141.11	67.8692	4,141.11	73.1059	4,141.11	64.97	4,141.11	74.9989	4,141.11	63.7152	4,141.11	67.6269	4,141.11	63.0766	4,141.11	69.0588	4,141.11	63.3888	4,141.11	64.3256	4,141.11	62.201	4,141.11	65.703	4,141.11	66.5914	4,141.11	66.9735	4,141.11	69.355
4,287.6	86.8581	4,287.6	85.1386	4,287.6	84.6764	4,287.6	85.1494	4,287.6	81.9237	4,287.6	85.1246	4,287.6	83.3177	4,287.6	83.7068	4,287.6	83.2329	4,287.6	83.0326	4,287.6	80.441	4,287.6	78.5478	4,287.6	82.3432	4,287.6	78.9097	4,287.6	81.3535	4,287.6	74.3833	4,287.6	75.818	4,287.6	70.2206	4,287.6	77.8634	4,287.6	67.5543	4,287.6	72.2196	4,287.6	67.9048	4,287.6	68.666	4,287.6	64.4204	4,287.6	74.3364	4,287.6	64.5273	4,287.6	67.0662	4,287.6	63.9696	4,287.6	68.0823	4,287.6	64.8287	4,287.6	62.0636	4,287.6	65.9371	4,287.6	68.657	4,287.6	69.9123	4,287.6	66.8717	4,287.6	70.7013
4,438.48	87.2354	4,438.48	86.3305	4,438.48	85.1755	4,438.48	85.6101	4,438.48	82.3966	4,438.48	85.0629	4,438.48	84.3523	4,438.48	84.2048	4,438.48	85.1954	4,438.48	81.4266	4,438.48	80.5506	4,438.48	79.9838	4,438.48	81.9765	4,438.48	78.75	4,438.48	80.9939	4,438.48	74.2932	4,438.48	80.3193	4,438.48	76.8362	4,438.48	79.1379	4,438.48	67.211	4,438.48	73.7263	4,438.48	68.2697	4,438.48	63.8037	4,438.48	64.8155	4,438.48	72.4862	4,438.48	63.3121	4,438.48	65.5812	4,438.48	63.3995	4,438.48	66.5285	4,438.48	63.3608	4,438.48	60.9666	4,438.48	64.6382	4,438.48	69.9296	4,438.48	69.0874	4,438.48	62.6995	4,438.48	69.3822
4,595.21	87.59	4,595.21	86.5651	4,595.21	85.5696	4,595.21	85.6121	4,595.21	83.9147	4,595.21	86.2035	4,595.21	85.7336	4,595.21	84.5333	4,595.21	84.983	4,595.21	81.2435	4,595.21	80.9722	4,595.21	79.8635	4,595.21	81.1973	4,595.21	77.8537	4,595.21	82.8347	4,595.21	76.1678	4,595.21	82.713	4,595.21	69.7829	4,595.21	74.8916	4,595.21	69.6807	4,595.21	75.3034	4,595.21	66.2694	4,595.21	62.7422	4,595.21	63.7042	4,595.21	69.2581	4,595.21	54.8992	4,595.21	64.4967	4,595.21	59.5158	4,595.21	64.3895	4,595.21	63.422	4,595.21	61.8066	4,595.21	63.1812	4,595.21	68.5315	4,595.21	67.3411	4,595.21	66.6851	4,595.21	69.0593
4,756.35	87.5205	4,756.35	87.0956	4,756.35	85.3246	4,756.35	85.825	4,756.35	84.3903	4,756.35	86.4655	4,756.35	85.3856	4,756.35	83.9361	4,756.35	85.3404	4,756.35	80.8584	4,756.35	81.8666	4,756.35	80.2891	4,756.35	79.6717	4,756.35	76.6895	4,756.35	84.2061	4,756.35	73.8527	4,756.35	82.8735	4,756.35	72.7056	4,756.35	76.4413	4,756.35	65.7847	4,756.35	73.9483	4,756.35	66.2274	4,756.35	57.6974	4,756.35	64.2861	4,756.35	71.4433	4,756.35	60.1603	4,756.35	69.1737	4,756.35	58.5216	4,756.35	64.8477	4,756.35	64.3809	4,756.35	65.7819	4,756.35	63.4439	4,756.35	66.4809	4,756.35	68.0625	4,756.35	65.2506	4,756.35	70.5358
4,924.8	87.8579	4,924.8	86.7001	4,924.8	86.2478	4,924.8	86.4031	4,924.8	84.4678	4,924.8	86.7437	4,924.8	86.4745	4,924.8	83.6742	4,924.8	86.9331	4,924.8	81.3502	4,924.8	82.9072	4,924.8	77.9342	4,924.8	77.6484	4,924.8	77.2901	4,924.8	84.8719	4,924.8	75.0209	4,924.8	81.2473	4,924.8	70.0486	4,924.8	78.2674	4,924.8	69.3067	4,924.8	76.3407	4,924.8	63.6391	4,924.8	56.4204	4,924.8	62.7323	4,924.8	65.5686	4,924.8	61.5769	4,924.8	68.8628	4,924.8	52.9654	4,924.8	65.8206	4,924.8	62.3557	4,924.8	56.7822	4,924.8	63.1999	4,924.8	66.8908	4,924.8	61.4095	4,924.8	66.0865	4,924.8	66.1517
5,097.66	87.0679	5,097.66	86.6726	5,097.66	86.192	5,097.66	86.8819	5,097.66	86.2435	5,097.66	86.2962	5,097.66	87.4504	5,097.66	83.8159	5,097.66	86.7058	5,097.66	81.6819	5,097.66	82.598	5,097.66	79.101	5,097.66	80.7074	5,097.66	77.1136	5,097.66	84.4998	5,097.66	73.5209	5,097.66	79.3085	5,097.66	72.5299	5,097.66	76.7968	5,097.66	66.671	5,097.66	73.7777	5,097.66	66.2335	5,097.66	65.1086	5,097.66	62.1928	5,097.66	56.0135	5,097.66	62.1791	5,097.66	69.3536	5,097.66	43.7428	5,097.66	68.8543	5,097.66	60.1106	5,097.66	61.8563	5,097.66	63.9589	5,097.66	66.7748	5,097.66	67.4156	5,097.66	64.3376	5,097.66	63.9762
5,277.83	86.9764	5,277.83	86.8308	5,277.83	85.8789	5,277.83	86.8979	5,277.83	85.9456	5,277.83	86.6111	5,277.83	86.8771	5,277.83	84.0435	5,277.83	86.4197	5,277.83	82.0997	5,277.83	83.4777	5,277.83	80.0322	5,277.83	82.3347	5,277.83	78.1471	5,277.83	83.3324	5,277.83	73.2861	5,277.83	79.734	5,277.83	69.1006	5,277.83	71.969	5,277.83	67.1415	5,277.83	73.8471	5,277.83	65.5696	5,277.83	70.3658	5,277.83	62.9387	5,277.83	64.6639	5,277.83	58.1934	5,277.83	62.6711	5,277.83	53.6882	5,277.83	65.9815	5,277.83	59.2388	5,277.83	65.158	5,277.83	57.4826	5,277.83	65.9729	5,277.83	67.4952	5,277.83	57.5168	5,277.83	63.738
5,463.87	86.7198	5,463.87	86.4592	5,463.87	85.3137	5,463.87	86.6942	5,463.87	85.3667	5,463.87	86.4921	5,463.87	86.6275	5,463.87	83.9188	5,463.87	86.3418	5,463.87	82.8726	5,463.87	83.1283	5,463.87	80.0711	5,463.87	81.7966	5,463.87	75.1461	5,463.87	81.9611	5,463.87	72.2251	5,463.87	79.6235	5,463.87	71.6441	5,463.87	76.2854	5,463.87	65.483	5,463.87	71.1457	5,463.87	65.9843	5,463.87	69.4044	5,463.87	62.2312	5,463.87	70.4604	5,463.87	57.4714	5,463.87	65.4482	5,463.87	52.7822	5,463.87	48.8545	5,463.87	55.374	5,463.87	65.5468	5,463.87	59.6022	5,463.87	66.474	5,463.87	65.8125	5,463.87	47.9894	5,463.87	64.4482
5,657.23	86.1298	5,657.23	86.4652	5,657.23	85.4063	5,657.23	87.0122	5,657.23	85.4689	5,657.23	86.4202	5,657.23	86.4996	5,657.23	84.3558	5,657.23	86.3498	5,657.23	82.9857	5,657.23	83.2707	5,657.23	79.0171	5,657.23	81.0639	5,657.23	76.3327	5,657.23	77.3339	5,657.23	71.5068	5,657.23	80.5865	5,657.23	71.0205	5,657.23	76.977	5,657.23	68.5024	5,657.23	71.7931	5,657.23	67.0691	5,657.23	64.4087	5,657.23	65.8569	5,657.23	70.0852	5,657.23	62.1921	5,657.23	66.5469	5,657.23	55.4363	5,657.23	56.224	5,657.23	54.7457	5,657.23	58.8352	5,657.23	62.086	5,657.23	63.4263	5,657.23	66.6865	5,657.23	45.4499	5,657.23	65.0803
5,856.45	86.2765	5,856.45	86.7249	5,856.45	85.2754	5,856.45	86.9908	5,856.45	84.5644	5,856.45	86.2503	5,856.45	85.6393	5,856.45	84.2193	5,856.45	85.3637	5,856.45	82.6037	5,856.45	83.2733	5,856.45	79.7212	5,856.45	80.5557	5,856.45	77.7965	5,856.45	77.8367	5,856.45	75.5227	5,856.45	80.3672	5,856.45	72.7252	5,856.45	75.4342	5,856.45	68.4825	5,856.45	66.7619	5,856.45	67.3012	5,856.45	66.5687	5,856.45	65.3054	5,856.45	68.6918	5,856.45	64.5515	5,856.45	69.2153	5,856.45	58.9409	5,856.45	65.2607	5,856.45	56.9436	5,856.45	55.8403	5,856.45	61.1786	5,856.45	63.0212	5,856.45	64.6214	5,856.45	51.3352	5,856.45	65.5677
6,062.99	86.4524	6,062.99	87.0874	6,062.99	85.0115	6,062.99	87.3842	6,062.99	84.3891	6,062.99	86.0953	6,062.99	84.572	6,062.99	84.1137	6,062.99	84.6516	6,062.99	82.1339	6,062.99	82.6116	6,062.99	80.566	6,062.99	81.4073	6,062.99	78.105	6,062.99	79.8635	6,062.99	73.7577	6,062.99	79.8529	6,062.99	72.2621	6,062.99	74.3638	6,062.99	68.3167	6,062.99	52.0617	6,062.99	66.8456	6,062.99	58.3224	6,062.99	64.9274	6,062.99	67.5565	6,062.99	63.8444	6,062.99	70.7721	6,062.99	57.8274	6,062.99	65.8682	6,062.99	56.5433	6,062.99	53.4374	6,062.99	64.5403	6,062.99	60.7236	6,062.99	66.1318	6,062.99	51.4775	6,062.99	66.557
6,276.86	86.4613	6,276.86	87.184	6,276.86	84.7157	6,276.86	87.0798	6,276.86	83.7937	6,276.86	86.0756	6,276.86	85.0572	6,276.86	83.4287	6,276.86	85.2786	6,276.86	81.9231	6,276.86	83.2654	6,276.86	80.6527	6,276.86	82.8793	6,276.86	77.717	6,276.86	79.6372	6,276.86	74.8895	6,276.86	78.9201	6,276.86	70.9224	6,276.86	71.4358	6,276.86	68.655	6,276.86	56.7536	6,276.86	66.1767	6,276.86	58.6198	6,276.86	64.5439	6,276.86	62.0372	6,276.86	64.9276	6,276.86	68.5681	6,276.86	57.4169	6,276.86	58.7464	6,276.86	54.698	6,276.86	54.4065	6,276.86	63.4177	6,276.86	57.9254	6,276.86	64.5996	6,276.86	56.1298	6,276.86	65.5244
6,498.05	86.4336	6,498.05	87.2287	6,498.05	84.6329	6,498.05	87.116	6,498.05	83.8452	6,498.05	85.5602	6,498.05	84.8438	6,498.05	82.9507	6,498.05	85.6288	6,498.05	82.1471	6,498.05	84.3717	6,498.05	80.1283	6,498.05	82.3483	6,498.05	78.4128	6,498.05	78.7434	6,498.05	76.1476	6,498.05	76.7686	6,498.05	73.5681	6,498.05	65.533	6,498.05	69.1448	6,498.05	64.396	6,498.05	67.3268	6,498.05	64.3365	6,498.05	64.2519	6,498.05	63.2748	6,498.05	65.0386	6,498.05	68.9974	6,498.05	59.0016	6,498.05	56.3641	6,498.05	58.9324	6,498.05	58.5905	6,498.05	61.8072	6,498.05	56.4874	6,498.05	64.8827	6,498.05	55.9185	6,498.05	64.7267
6,726.56	86.5131	6,726.56	87.4808	6,726.56	84.4227	6,726.56	87.0982	6,726.56	83.4906	6,726.56	84.5595	6,726.56	84.6108	6,726.56	82.5519	6,726.56	86.2774	6,726.56	82.2141	6,726.56	84.8824	6,726.56	80.5806	6,726.56	82.0601	6,726.56	79.9907	6,726.56	73.5001	6,726.56	76.4071	6,726.56	74.3101	6,726.56	74.6179	6,726.56	59.6937	6,726.56	69.912	6,726.56	65.4067	6,726.56	68.7276	6,726.56	67.7518	6,726.56	64.5774	6,726.56	65.5718	6,726.56	65.7632	6,726.56	67.9532	6,726.56	59.1989	6,726.56	60.6002	6,726.56	60.696	6,726.56	42.7391	6,726.56	60.5168	6,726.56	57.6651	6,726.56	65.1794	6,726.56	58.0502	6,726.56	64.5902
6,963.87	85.9963	6,963.87	87.4272	6,963.87	83.1684	6,963.87	86.8406	6,963.87	83.1778	6,963.87	83.7783	6,963.87	84.2342	6,963.87	82.5356	6,963.87	84.8734	6,963.87	82.4244	6,963.87	83.9375	6,963.87	81.2732	6,963.87	80.294	6,963.87	80.0193	6,963.87	74.9565	6,963.87	75.9975	6,963.87	76.1834	6,963.87	73.6794	6,963.87	64.6865	6,963.87	70.001	6,963.87	68.0451	6,963.87	67.33	6,963.87	70.8344	6,963.87	64.7752	6,963.87	67.9463	6,963.87	64.5565	6,963.87	64.9144	6,963.87	61.2181	6,963.87	58.3305	6,963.87	59.564	6,963.87	58.9707	6,963.87	57.3006	6,963.87	57.4009	6,963.87	65.6281	6,963.87	54.879	6,963.87	62.135
7,209.96	85.58	7,209.96	87.5388	7,209.96	82.3998	7,209.96	86.748	7,209.96	83.4398	7,209.96	83.3017	7,209.96	83.8856	7,209.96	82.1769	7,209.96	83.619	7,209.96	82.1873	7,209.96	81.2106	7,209.96	81.8424	7,209.96	77.2876	7,209.96	79.4204	7,209.96	76.473	7,209.96	76.7718	7,209.96	76.8636	7,209.96	73.6722	7,209.96	67.8657	7,209.96	70.3574	7,209.96	70.2379	7,209.96	68.236	7,209.96	71.4046	7,209.96	66.3602	7,209.96	67.4918	7,209.96	64.511	7,209.96	61.0937	7,209.96	62.6974	7,209.96	54.2349	7,209.96	60.1251	7,209.96	61.8991	7,209.96	55.7142	7,209.96	57.0646	7,209.96	64.4247	7,209.96	50.3549	7,209.96	60.6586
7,464.84	85.5007	7,464.84	87.9988	7,464.84	82.2216	7,464.84	86.6821	7,464.84	83.3611	7,464.84	83.116	7,464.84	84.1796	7,464.84	81.5269	7,464.84	83.1849	7,464.84	81.8596	7,464.84	79.5798	7,464.84	82.1941	7,464.84	76.5535	7,464.84	79.8808	7,464.84	76.2347	7,464.84	77.3356	7,464.84	76.0498	7,464.84	74.0541	7,464.84	65.9598	7,464.84	71.1306	7,464.84	71.6668	7,464.84	68.3799	7,464.84	72.3827	7,464.84	67.6306	7,464.84	66.0838	7,464.84	65.8171	7,464.84	59.1685	7,464.84	63.7433	7,464.84	54.8058	7,464.84	61.4663	7,464.84	60.8446	7,464.84	57.6532	7,464.84	56.4427	7,464.84	64.5971	7,464.84	46.3389	7,464.84	61.2218
7,727.05	85.8731	7,727.05	88.2651	7,727.05	82.8673	7,727.05	87.141	7,727.05	83.271	7,727.05	83.2146	7,727.05	84.1075	7,727.05	80.3492	7,727.05	82.79	7,727.05	81.6335	7,727.05	78.1617	7,727.05	82.6806	7,727.05	76.9138	7,727.05	79.6768	7,727.05	74.0606	7,727.05	77.1258	7,727.05	74.6066	7,727.05	73.7485	7,727.05	68.6245	7,727.05	70.9996	7,727.05	71.9595	7,727.05	67.6333	7,727.05	73.373	7,727.05	67.5547	7,727.05	63.8354	7,727.05	66.1372	7,727.05	36.8532	7,727.05	65.3229	7,727.05	57.0295	7,727.05	62.5628	7,727.05	60.071	7,727.05	59.601	7,727.05	57.0836	7,727.05	63.0406	7,727.05	44.4413	7,727.05	63.1803
7,999.51	86.718	7,999.51	88.9089	7,999.51	83.7686	7,999.51	87.7235	7,999.51	83.1205	7,999.51	83.1688	7,999.51	84.5646	7,999.51	79.376	7,999.51	83.3676	7,999.51	81.9589	7,999.51	78.0698	7,999.51	82.8245	7,999.51	74.8475	7,999.51	79.5631	7,999.51	67.7785	7,999.51	77.4722	7,999.51	71.2313	7,999.51	74.2972	7,999.51	71.2789	7,999.51	70.8601	7,999.51	74.4919	7,999.51	67.6895	7,999.51	74.2333	7,999.51	67.5888	7,999.51	64.8499	7,999.51	67.0793	7,999.51	58.304	7,999.51	65.8747	7,999.51	58.5171	7,999.51	63.9938	7,999.51	58.9291	7,999.51	61.1019	7,999.51	51.5087	7,999.51	63.9198	7,999.51	41.366	7,999.51	63.9124
8,282.23	87.6636	8,282.23	89.5511	8,282.23	84.3892	8,282.23	87.778	8,282.23	83.6712	8,282.23	82.6068	8,282.23	85.5801	8,282.23	79.1522	8,282.23	83.2211	8,282.23	82.1529	8,282.23	77.1887	8,282.23	82.4742	8,282.23	72.5358	8,282.23	80.1005	8,282.23	60.2111	8,282.23	76.8724	8,282.23	69.8497	8,282.23	73.2684	8,282.23	72.3433	8,282.23	70.1068	8,282.23	75.5172	8,282.23	67.3702	8,282.23	75.3164	8,282.23	66.7643	8,282.23	63.9627	8,282.23	66.8709	8,282.23	60.4461	8,282.23	65.6667	8,282.23	56.4631	8,282.23	63.5521	8,282.23	58.023	8,282.23	61.3675	8,282.23	38.4546	8,282.23	62.7772	8,282.23	50.9368	8,282.23	64.1108
8,573.73	88.3088	8,573.73	89.828	8,573.73	84.47	8,573.73	87.7582	8,573.73	84.8096	8,573.73	82.258	8,573.73	86.2213	8,573.73	79.1976	8,573.73	83.1651	8,573.73	82.2976	8,573.73	75.9488	8,573.73	82.2516	8,573.73	74.619	8,573.73	79.469	8,573.73	67.7212	8,573.73	75.4897	8,573.73	68.5763	8,573.73	72.3206	8,573.73	70.8407	8,573.73	68.8781	8,573.73	77.0863	8,573.73	66.1373	8,573.73	76.8427	8,573.73	65.6961	8,573.73	64.8449	8,573.73	66.3575	8,573.73	54.499	8,573.73	65.5282	8,573.73	43.2566	8,573.73	62.8517	8,573.73	56.5782	8,573.73	59.2194	8,573.73	49.5643	8,573.73	60.6661	8,573.73	50.614	8,573.73	62.7704
8,876.95	88.3741	8,876.95	89.8765	8,876.95	84.308	8,876.95	87.8548	8,876.95	85.9033	8,876.95	82.004	8,876.95	86.54	8,876.95	79.1863	8,876.95	82.3588	8,876.95	82.5504	8,876.95	77.2363	8,876.95	81.6213	8,876.95	74.4482	8,876.95	79.0907	8,876.95	72.3842	8,876.95	75.741	8,876.95	71.3469	8,876.95	72.0453	8,876.95	69.1407	8,876.95	68.0005	8,876.95	77.1017	8,876.95	64.8265	8,876.95	76.8182	8,876.95	64.4947	8,876.95	68.1372	8,876.95	65.5506	8,876.95	51.7777	8,876.95	64.5248	8,876.95	42.2992	8,876.95	62.0491	8,876.95	45.5785	8,876.95	58.6622	8,876.95	51.3433	8,876.95	58.8034	8,876.95	49.4151	8,876.95	61.3923
9,188.96	88.3181	9,188.96	89.7476	9,188.96	84.1695	9,188.96	87.7288	9,188.96	86.4014	9,188.96	81.8248	9,188.96	86.5075	9,188.96	79.87	9,188.96	81.7917	9,188.96	82.5157	9,188.96	77.1872	9,188.96	81.0543	9,188.96	72.9793	9,188.96	78.9401	9,188.96	74.3253	9,188.96	74.8505	9,188.96	70.9884	9,188.96	70.8637	9,188.96	70.3979	9,188.96	66.7227	9,188.96	77.5218	9,188.96	63.4146	9,188.96	76.4044	9,188.96	63.4648	9,188.96	68.4524	9,188.96	63.5976	9,188.96	30.8003	9,188.96	63.8103	9,188.96	49.7313	9,188.96	61.0751	9,188.96	52.5818	9,188.96	58.341	9,188.96	54.4967	9,188.96	56.1956	9,188.96	46.648	9,188.96	58.4701
9,514.16	88.339	9,514.16	89.7661	9,514.16	83.9961	9,514.16	87.4371	9,514.16	86.6717	9,514.16	81.7149	9,514.16	86.9241	9,514.16	80.4107	9,514.16	82.1167	9,514.16	82.566	9,514.16	77.1292	9,514.16	80.6497	9,514.16	68.0821	9,514.16	77.9278	9,514.16	76.103	9,514.16	73.6227	9,514.16	65.8621	9,514.16	69.6816	9,514.16	68.4047	9,514.16	65.098	9,514.16	77.7902	9,514.16	61.0582	9,514.16	75.8115	9,514.16	61.6336	9,514.16	65.3845	9,514.16	60.9891	9,514.16	55.5406	9,514.16	62.3024	9,514.16	51.0732	9,514.16	60.1745	9,514.16	51.2878	9,514.16	57.8197	9,514.16	54.1891	9,514.16	54.6899	9,514.16	42.6497	9,514.16	57.2384
9,849.61	88.5048	9,849.61	89.9942	9,849.61	83.8698	9,849.61	86.9103	9,849.61	86.9863	9,849.61	80.833	9,849.61	86.8713	9,849.61	80.8603	9,849.61	80.9769	9,849.61	82.9103	9,849.61	76.7472	9,849.61	79.6902	9,849.61	70.6124	9,849.61	76.4161	9,849.61	75.9922	9,849.61	70.7267	9,849.61	50.2616	9,849.61	67.4966	9,849.61	66.5148	9,849.61	64.1701	9,849.61	76.924	9,849.61	58.9875	9,849.61	75.0686	9,849.61	59.7132	9,849.61	62.75	9,849.61	59.6648	9,849.61	59.1677	9,849.61	60.7041	9,849.61	53.8875	9,849.61	58.7225	9,849.61	50.307	9,849.61	57.2302	9,849.61	50.8861	9,849.61	56.5546	9,849.61	40.8566	9,849.61	54.3513
10,196.8	88.762	10,196.8	90.0617	10,196.8	83.7676	10,196.8	86.3191	10,196.8	87.1349	10,196.8	80.184	10,196.8	86.5534	10,196.8	81.2044	10,196.8	81.4264	10,196.8	82.2564	10,196.8	76.3912	10,196.8	78.6242	10,196.8	74.5393	10,196.8	74.5563	10,196.8	76.1242	10,196.8	70.4398	10,196.8	67.0675	10,196.8	65.9351	10,196.8	60.4447	10,196.8	63.3489	10,196.8	74.4719	10,196.8	58.6854	10,196.8	73.4756	10,196.8	57.3386	10,196.8	59.32	10,196.8	58.6715	10,196.8	56.5059	10,196.8	59.2213	10,196.8	46.2237	10,196.8	58.7523	10,196.8	53.7611	10,196.8	57.3356	10,196.8	53.8309	10,196.8	54.611	10,196.8	50.2572	10,196.8	52.6235
10,555.7	88.7441	10,555.7	89.826	10,555.7	83.7656	10,555.7	85.4567	10,555.7	87.002	10,555.7	80.5981	10,555.7	85.9965	10,555.7	81.1533	10,555.7	79.8194	10,555.7	81.1646	10,555.7	73.5902	10,555.7	78.2404	10,555.7	74.9769	10,555.7	73.9294	10,555.7	76.6309	10,555.7	69.1641	10,555.7	65.8105	10,555.7	65.541	10,555.7	58.9543	10,555.7	61.1131	10,555.7	72.8153	10,555.7	57.188	10,555.7	73.1714	10,555.7	57.261	10,555.7	55.4202	10,555.7	55.0557	10,555.7	46.8845	10,555.7	55.8885	10,555.7	56.4693	10,555.7	56.9177	10,555.7	51.8552	10,555.7	57.6669	10,555.7	48.7171	10,555.7	56.2723	10,555.7	49.6888	10,555.7	49.6391
10,927.7	88.5599	10,927.7	89.4955	10,927.7	83.7179	10,927.7	84.7074	10,927.7	86.9548	10,927.7	81.3291	10,927.7	85.8061	10,927.7	81.4638	10,927.7	78.381	10,927.7	80.5659	10,927.7	72.4586	10,927.7	77.8867	10,927.7	75.3953	10,927.7	72.8985	10,927.7	75.2057	10,927.7	66.5595	10,927.7	62.1763	10,927.7	62.1463	10,927.7	53.2156	10,927.7	58.024	10,927.7	70.4116	10,927.7	52.3655	10,927.7	73.1541	10,927.7	54.2371	10,927.7	61.8304	10,927.7	52.0301	10,927.7	50.1085	10,927.7	55.3465	10,927.7	60.5299	10,927.7	52.7466	10,927.7	52.4424	10,927.7	57.9434	10,927.7	48.5252	10,927.7	56.3422	10,927.7	49.312	10,927.7	38.7999
11,313	88.4598	11,313	89.2453	11,313	83.2997	11,313	84.1143	11,313	86.7876	11,313	82.5178	11,313	85.7684	11,313	82.0358	11,313	76.6264	11,313	80.7784	11,313	75.4583	11,313	76.802	11,313	75.7495	11,313	71.2058	11,313	72.7564	11,313	62.5956	11,313	65.8958	11,313	60.6009	11,313	55.0792	11,313	56.8355	11,313	69.5069	11,313	45.2514	11,313	73.5889	11,313	53.3273	11,313	65.6858	11,313	44.5551	11,313	52.763	11,313	55.3475	11,313	61.514	11,313	51.1294	11,313	58.1742	11,313	58.5817	11,313	53.9031	11,313	58.0663	11,313	54.6245	11,313	48.5001
11,712.9	88.3494	11,712.9	89.1046	11,712.9	82.5832	11,712.9	82.9678	11,712.9	86.4682	11,712.9	83.0143	11,712.9	85.0716	11,712.9	82.362	11,712.9	73.2745	11,712.9	79.8502	11,712.9	77.396	11,712.9	74.5346	11,712.9	75.1808	11,712.9	68.6486	11,712.9	72.8359	11,712.9	57.1874	11,712.9	66.9901	11,712.9	58.9604	11,712.9	57.9506	11,712.9	54.8195	11,712.9	70.5566	11,712.9	46.4477	11,712.9	73.7695	11,712.9	50.0534	11,712.9	67.0038	11,712.9	37.1383	11,712.9	56.3426	11,712.9	54.2262	11,712.9	61.1095	11,712.9	48.8016	11,712.9	60.426	11,712.9	57.1654	11,712.9	56.8055	11,712.9	58.6256	11,712.9	56.4347	11,712.9	53.8316
12,126	88.2172	12,126	89.0564	12,126	82.0411	12,126	81.7046	12,126	86.315	12,126	83.1692	12,126	84.0509	12,126	82.662	12,126	69.1298	12,126	78.0039	12,126	76.5068	12,126	72.6409	12,126	74.3293	12,126	65.2939	12,126	74.3001	12,126	50.5811	12,126	64.4011	12,126	57.6609	12,126	54.8852	12,126	49.4471	12,126	72.6697	12,126	52.6406	12,126	74.036	12,126	49.0688	12,126	67.6705	12,126	47.6017	12,126	59.9461	12,126	51.8047	12,126	63.7665	12,126	45.6931	12,126	62.8282	12,126	55.5971	12,126	56.9972	12,126	57.9946	12,126	58.4253	12,126	56.5675
12,553.7	88.2422	12,553.7	88.9919	12,553.7	81.5618	12,553.7	80.9355	12,553.7	86.2487	12,553.7	83.5016	12,553.7	83.0693	12,553.7	83.0827	12,553.7	64.2445	12,553.7	76.1192	12,553.7	78.2613	12,553.7	72.1422	12,553.7	75.1059	12,553.7	63.5101	12,553.7	74.2089	12,553.7	54.5966	12,553.7	62.6733	12,553.7	58.3171	12,553.7	51.0491	12,553.7	46.9239	12,553.7	74.0172	12,553.7	55.341	12,553.7	73.7047	12,553.7	50.461	12,553.7	69.5981	12,553.7	51.8084	12,553.7	62.3721	12,553.7	52.115	12,553.7	66.5963	12,553.7	50.2082	12,553.7	65.9092	12,553.7	56.1573	12,553.7	61.8094	12,553.7	57.2648	12,553.7	61.067	12,553.7	59.9221
12,996.1	88.1762	12,996.1	88.7121	12,996.1	80.7937	12,996.1	80.7007	12,996.1	85.7136	12,996.1	83.5053	12,996.1	81.9662	12,996.1	83.0582	12,996.1	68.8894	12,996.1	73.8311	12,996.1	79.0147	12,996.1	72.0828	12,996.1	73.8035	12,996.1	59.7766	12,996.1	72.9784	12,996.1	60.52	12,996.1	64.0348	12,996.1	60.427	12,996.1	62.4693	12,996.1	38.9852	12,996.1	74.3832	12,996.1	57.2771	12,996.1	72.4156	12,996.1	52.8684	12,996.1	70.5516	12,996.1	53.9773	12,996.1	64.0306	12,996.1	52.5318	12,996.1	67.7111	12,996.1	52.5185	12,996.1	68.6623	12,996.1	56.3161	12,996.1	64.0478	12,996.1	57.7352	12,996.1	64.0074	12,996.1	62.8949
13,454.6	88.1622	13,454.6	88.653	13,454.6	79.7282	13,454.6	81.0708	13,454.6	85.0431	13,454.6	83.0258	13,454.6	80.9006	13,454.6	82.3505	13,454.6	68.2301	13,454.6	69.1554	13,454.6	79.496	13,454.6	71.1299	13,454.6	71.9291	13,454.6	54.0495	13,454.6	72.1216	13,454.6	62.8608	13,454.6	65.2392	13,454.6	62.3454	13,454.6	66.9595	13,454.6	32.5961	13,454.6	74.3586	13,454.6	58.7509	13,454.6	70.0615	13,454.6	54.7284	13,454.6	71.2875	13,454.6	55.4414	13,454.6	66.499	13,454.6	52.6348	13,454.6	69.4437	13,454.6	56.5932	13,454.6	69.7459	13,454.6	55.1189	13,454.6	66.0774	13,454.6	58.3864	13,454.6	65.4316	13,454.6	63.8926
13,929.2	88.0412	13,929.2	88.5554	13,929.2	78.6889	13,929.2	81.835	13,929.2	84.7626	13,929.2	82.3472	13,929.2	80.0303	13,929.2	81.2626	13,929.2	67.4108	13,929.2	55.756	13,929.2	79.5848	13,929.2	70.8615	13,929.2	68.8765	13,929.2	54.2989	13,929.2	73.4451	13,929.2	65.3507	13,929.2	67.0057	13,929.2	64.3268	13,929.2	70.086	13,929.2	44.2411	13,929.2	74.277	13,929.2	60.8512	13,929.2	65.8372	13,929.2	56.5687	13,929.2	71.8479	13,929.2	57.192	13,929.2	68.4467	13,929.2	54.072	13,929.2	70.8453	13,929.2	58.771	13,929.2	70.8079	13,929.2	56.117	13,929.2	67.5979	13,929.2	58.2012	13,929.2	67.0443	13,929.2	65.0422
14,419.9	87.7765	14,419.9	88.0389	14,419.9	77.413	14,419.9	82.4599	14,419.9	84.3118	14,419.9	82.1415	14,419.9	79.1267	14,419.9	80.1467	14,419.9	66.5564	14,419.9	59.2333	14,419.9	80.1512	14,419.9	70.8981	14,419.9	62.0945	14,419.9	52.6719	14,419.9	72.6868	14,419.9	66.9371	14,419.9	68.0896	14,419.9	66.5205	14,419.9	71.4397	14,419.9	44.6304	14,419.9	73.7096	14,419.9	61.9329	14,419.9	58.6107	14,419.9	58.1488	14,419.9	71.6769	14,419.9	57.4773	14,419.9	68.8821	14,419.9	56.5008	14,419.9	71.7771	14,419.9	60.4338	14,419.9	71.4785	14,419.9	57.5539	14,419.9	68.2794	14,419.9	58.4045	14,419.9	68.121	14,419.9	66.0169
14,928.2	87.3938	14,928.2	87.6335	14,928.2	75.53	14,928.2	82.7937	14,928.2	83.5665	14,928.2	81.6356	14,928.2	78.6778	14,928.2	79.4274	14,928.2	63.5374	14,928.2	65.8106	14,928.2	79.943	14,928.2	71.0779	14,928.2	62.6768	14,928.2	59.6303	14,928.2	68.7429	14,928.2	68.2055	14,928.2	71.1483	14,928.2	66.8107	14,928.2	71.7188	14,928.2	46.7448	14,928.2	72.6972	14,928.2	61.6805	14,928.2	55.6774	14,928.2	58.3864	14,928.2	71.4111	14,928.2	57.6158	14,928.2	68.2614	14,928.2	56.9936	14,928.2	71.4012	14,928.2	62.0154	14,928.2	71.4598	14,928.2	57.1566	14,928.2	68.1513	14,928.2	56.7942	14,928.2	67.5487	14,928.2	65.6677
15,455.6	87.0285	15,455.6	86.8065	15,455.6	73.4139	15,455.6	83.1906	15,455.6	83.1034	15,455.6	80.7856	15,455.6	78.0498	15,455.6	77.8401	15,455.6	63.0358	15,455.6	69.3115	15,455.6	79.9426	15,455.6	71.1514	15,455.6	67.1294	15,455.6	63.9845	15,455.6	68.9106	15,455.6	68.837	15,455.6	71.912	15,455.6	67.1019	15,455.6	69.6488	15,455.6	51.2536	15,455.6	72.1312	15,455.6	60.9412	15,455.6	58.6337	15,455.6	57.9463	15,455.6	71.0014	15,455.6	57.3077	15,455.6	66.8578	15,455.6	57.5099	15,455.6	70.8531	15,455.6	61.9905	15,455.6	71.3307	15,455.6	58.6557	15,455.6	67.7614	15,455.6	56.5391	15,455.6	67.1061	15,455.6	64.9802
16,000.5	86.4059	16,000.5	85.865	16,000.5	71.5997	16,000.5	83.2844	16,000.5	82.692	16,000.5	80.0565	16,000.5	76.7555	16,000.5	75.7683	16,000.5	66.5883	16,000.5	72.1592	16,000.5	79.405	16,000.5	70.8054	16,000.5	68.0576	16,000.5	66.1397	16,000.5	68.699	16,000.5	69.5455	16,000.5	71.3344	16,000.5	66.7569	16,000.5	66.8925	16,000.5	52.9346	16,000.5	70.356	16,000.5	59.9065	16,000.5	59.2872	16,000.5	58.3913	16,000.5	69.4229	16,000.5	56.5476	16,000.5	64.995	16,000.5	57.3636	16,000.5	69.8162	16,000.5	61.1836	16,000.5	71.0312	16,000.5	59.5309	16,000.5	67.264	16,000.5	55.2497	16,000.5	66.2717	16,000.5	64.588
16,564.5	85.6542	16,564.5	84.7428	16,564.5	69.7479	16,564.5	83.174	16,564.5	82.3592	16,564.5	79.1423	16,564.5	75.3294	16,564.5	72.9378	16,564.5	68.4291	16,564.5	73.9366	16,564.5	78.8588	16,564.5	69.3279	16,564.5	73.2147	16,564.5	66.1788	16,564.5	69.0016	16,564.5	69.1678	16,564.5	70.4961	16,564.5	65.4204	16,564.5	59.8878	16,564.5	51.1749	16,564.5	68.0076	16,564.5	57.1519	16,564.5	58.9164	16,564.5	57.2186	16,564.5	67.5801	16,564.5	56.0156	16,564.5	62.8063	16,564.5	55.109	16,564.5	67.3303	16,564.5	60.4722	16,564.5	70.0092	16,564.5	59.4453	16,564.5	66.0181	16,564.5	51.8998	16,564.5	65.7305	16,564.5	63.8106
17,148.9	85.1534	17,148.9	83.5712	17,148.9	66.9279	17,148.9	83.1427	17,148.9	82.5199	17,148.9	77.9345	17,148.9	73.1989	17,148.9	68.8464	17,148.9	68.0177	17,148.9	74.9455	17,148.9	77.7031	17,148.9	67.6418	17,148.9	72.648	17,148.9	64.3212	17,148.9	72.7734	17,148.9	67.5177	17,148.9	65.9839	17,148.9	62.8148	17,148.9	57.274	17,148.9	50.4013	17,148.9	65.9865	17,148.9	54.7109	17,148.9	57.2525	17,148.9	57.1352	17,148.9	66.6089	17,148.9	55.1871	17,148.9	61.4991	17,148.9	51.8266	17,148.9	64.8997	17,148.9	59.8501	17,148.9	69.0456	17,148.9	61.038	17,148.9	65.5131	17,148.9	53.4249	17,148.9	64.2745	17,148.9	62.6233
17,752.4	85.0507	17,752.4	82.2795	17,752.4	68.6307	17,752.4	83.2536	17,752.4	82.5541	17,752.4	76.6032	17,752.4	71.5909	17,752.4	63.4989	17,752.4	66.78	17,752.4	75.5047	17,752.4	75.87	17,752.4	66.7192	17,752.4	69.1005	17,752.4	59.3633	17,752.4	71.5225	17,752.4	64.4968	17,752.4	59.1032	17,752.4	60.3117	17,752.4	60.3525	17,752.4	53.0272	17,752.4	64.3271	17,752.4	53.0718	17,752.4	54.6955	17,752.4	56.0555	17,752.4	66.1284	17,752.4	54.6236	17,752.4	63.3838	17,752.4	49.5537	17,752.4	64.7669	17,752.4	59.0931	17,752.4	68.366	17,752.4	62.3771	17,752.4	65.5896	17,752.4	50.5306	17,752.4	63.9165	17,752.4	62.6635
18,379.4	84.8329	18,379.4	80.7645	18,379.4	71.9919	18,379.4	83.3228	18,379.4	82.2825	18,379.4	75.335	18,379.4	71.1397	18,379.4	58.7504	18,379.4	64.2591	18,379.4	75.808	18,379.4	72.8621	18,379.4	65.1254	18,379.4	69.7513	18,379.4	55.6402	18,379.4	70.4366	18,379.4	60.1015	18,379.4	61.818	18,379.4	57.3004	18,379.4	60.6298	18,379.4	54.1724	18,379.4	63.0384	18,379.4	52.742	18,379.4	54.5159	18,379.4	54.4239	18,379.4	65.0533	18,379.4	55.7987	18,379.4	64.868	18,379.4	48.3579	18,379.4	65.3	18,379.4	59.1079	18,379.4	67.72	18,379.4	63.0806	18,379.4	64.7138	18,379.4	46.1064	18,379.4	63.3086	18,379.4	62.2805
19,026.9	84.5201	19,026.9	79.4676	19,026.9	75.2546	19,026.9	83.2587	19,026.9	82.5622	19,026.9	74.3278	19,026.9	72.0081	19,026.9	65.2565	19,026.9	64.2624	19,026.9	76.3514	19,026.9	69.9999	19,026.9	61.3044	19,026.9	66.0411	19,026.9	54.0599	19,026.9	68.562	19,026.9	56.0875	19,026.9	65.2845	19,026.9	53.1925	19,026.9	60.3021	19,026.9	51.3785	19,026.9	60.0953	19,026.9	51.7589	19,026.9	53.1122	19,026.9	51.687	19,026.9	63.8194	19,026.9	54.7007	19,026.9	64.2024	19,026.9	48.7911	19,026.9	64.7205	19,026.9	58.7735	19,026.9	66.134	19,026.9	62.5023	19,026.9	63.0251	19,026.9	42.5454	19,026.9	61.9487	19,026.9	60.7856
19,697.8	84.6268	19,697.8	79.1592	19,697.8	76.941	19,697.8	82.9428	19,697.8	82.9045	19,697.8	72.3639	19,697.8	72.9574	19,697.8	69.6854	19,697.8	63.9732	19,697.8	75.4532	19,697.8	68.5879	19,697.8	56.6202	19,697.8	66.0012	19,697.8	57.807	19,697.8	63.2446	19,697.8	54.0799	19,697.8	67.2502	19,697.8	48.4678	19,697.8	59.4357	19,697.8	46.3576	19,697.8	55.0963	19,697.8	50.3436	19,697.8	53.8756	19,697.8	46.6906	19,697.8	62.0476	19,697.8	52.6888	19,697.8	63.1175	19,697.8	49.6807	19,697.8	63.7938	19,697.8	58.1285	19,697.8	64.575	19,697.8	61.4178	19,697.8	61.4283	19,697.8	40.8905	19,697.8	59.3764	19,697.8	60.0991
19,999.5	84.3857	19,999.5	79.1602	19,999.5	77.6542	19,999.5	82.5924	19,999.5	82.8722	19,999.5	71.5185	19,999.5	73.3801	19,999.5	70.2147	19,999.5	63.361	19,999.5	74.2708	19,999.5	68.5095	19,999.5	57.9856	19,999.5	67.0223	19,999.5	58.5134	19,999.5	61.4668	19,999.5	53.3677	19,999.5	68.4605	19,999.5	49.5469	19,999.5	61.8003	19,999.5	42.0115	19,999.5	45.0038	19,999.5	51.3981	19,999.5	55.6165	19,999.5	45.6764	19,999.5	59.3757	19,999.5	52.7059	19,999.5	60.5681	19,999.5	47.2502	19,999.5	62.9079	19,999.5	60.0256	19,999.5	62.7652	19,999.5	61.1113	19,999.5	59.4672	19,999.5	45.9127	19,999.5	54.8841	19,999.5	58.1532
