"SPL Horizontal"																																																																							
"On-Axis"		"10°"		"-10°"		"20°"		"-20°"		"30°"		"-30°"		"40°"		"-40°"		"50°"		"-50°"		"60°"		"-60°"		"70°"		"-70°"		"80°"		"-80°"		"90°"		"-90°"		"100°"		"-100°"		"110°"		"-110°"		"120°"		"-120°"		"130°"		"-130°"		"140°"		"-140°"		"150°"		"-150°"		"160°"		"-160°"		"170°"		"-170°"		"180°"	
"Frequency [Hz]"	"Sound Pessure Level [dB]  / [2.83V 1m] "	"Frequency [Hz]"	"Sound Pessure Level [dB]  / [2.83V 1m] "	"Frequency [Hz]"	"Sound Pessure Level [dB]  / [2.83V 1m] "	"Frequency [Hz]"	"Sound Pessure Level [dB]  / [2.83V 1m] "	"Frequency [Hz]"	"Sound Pessure Level [dB]  / [2.83V 1m] "	"Frequency [Hz]"	"Sound Pessure Level [dB]  / [2.83V 1m] "	"Frequency [Hz]"	"Sound Pessure Level [dB]  / [2.83V 1m] "	"Frequency [Hz]"	"Sound Pessure Level [dB]  / [2.83V 1m] "	"Frequency [Hz]"	"Sound Pessure Level [dB]  / [2.83V 1m] "	"Frequency [Hz]"	"Sound Pessure Level [dB]  / [2.83V 1m] "	"Frequency [Hz]"	"Sound Pessure Level [dB]  / [2.83V 1m] "	"Frequency [Hz]"	"Sound Pessure Level [dB]  / [2.83V 1m] "	"Frequency [Hz]"	"Sound Pessure Level [dB]  / [2.83V 1m] "	"Frequency [Hz]"	"Sound Pessure Level [dB]  / [2.83V 1m] "	"Frequency [Hz]"	"Sound Pessure Level [dB]  / [2.83V 1m] "	"Frequency [Hz]"	"Sound Pessure Level [dB]  / [2.83V 1m] "	"Frequency [Hz]"	"Sound Pessure Level [dB]  / [2.83V 1m] "	"Frequency [Hz]"	"Sound Pessure Level [dB]  / [2.83V 1m] "	"Frequency [Hz]"	"Sound Pessure Level [dB]  / [2.83V 1m] "	"Frequency [Hz]"	"Sound Pessure Level [dB]  / [2.83V 1m] "	"Frequency [Hz]"	"Sound Pessure Level [dB]  / [2.83V 1m] "	"Frequency [Hz]"	"Sound Pessure Level [dB]  / [2.83V 1m] "	"Frequency [Hz]"	"Sound Pessure Level [dB]  / [2.83V 1m] "	"Frequency [Hz]"	"Sound Pessure Level [dB]  / [2.83V 1m] "	"Frequency [Hz]"	"Sound Pessure Level [dB]  / [2.83V 1m] "	"Frequency [Hz]"	"Sound Pessure Level [dB]  / [2.83V 1m] "	"Frequency [Hz]"	"Sound Pessure Level [dB]  / [2.83V 1m] "	"Frequency [Hz]"	"Sound Pessure Level [dB]  / [2.83V 1m] "	"Frequency [Hz]"	"Sound Pessure Level [dB]  / [2.83V 1m] "	"Frequency [Hz]"	"Sound Pessure Level [dB]  / [2.83V 1m] "	"Frequency [Hz]"	"Sound Pessure Level [dB]  / [2.83V 1m] "	"Frequency [Hz]"	"Sound Pessure Level [dB]  / [2.83V 1m] "	"Frequency [Hz]"	"Sound Pessure Level [dB]  / [2.83V 1m] "	"Frequency [Hz]"	"Sound Pessure Level [dB]  / [2.83V 1m] "	"Frequency [Hz]"	"Sound Pessure Level [dB]  / [2.83V 1m] "	"Frequency [Hz]"	"Sound Pessure Level [dB]  / [2.83V 1m] "
20.5078	45.4473	20.5078	45.5545	20.5078	45.4995	20.5078	45.8419	20.5078	45.6999	20.5078	46.3279	20.5078	46.0493	20.5078	47.0131	20.5078	46.5544	20.5078	47.8725	20.5078	47.2172	20.5078	48.859	20.5078	48.0258	20.5078	49.9169	20.5078	48.9519	20.5078	50.9931	20.5078	49.9553	20.5078	52.0439	20.5078	50.9916	20.5078	53.0361	20.5078	52.0185	20.5078	53.9446	20.5078	53.0001	20.5078	54.751	20.5078	53.9073	20.5078	55.4415	20.5078	54.7177	20.5078	56.0053	20.5078	55.4145	20.5078	56.4345	20.5078	55.9851	20.5078	56.723	20.5078	56.4207	20.5078	56.8671	20.5078	56.7151	20.5078	56.8645
21.9727	43.191	21.9727	43.5722	21.9727	43.23	21.9727	44.3448	21.9727	43.6846	21.9727	45.4406	21.9727	44.517	21.9727	46.7608	21.9727	45.6539	21.9727	48.2017	21.9727	46.9972	21.9727	49.6765	21.9727	48.4481	21.9727	51.1238	21.9727	49.9257	21.9727	52.5034	21.9727	51.3723	21.9727	53.7908	21.9727	52.7499	21.9727	54.9701	21.9727	54.0336	21.9727	56.0303	21.9727	55.2063	21.9727	56.9626	21.9727	56.2554	21.9727	57.7592	21.9727	57.1705	21.9727	58.4128	21.9727	57.9429	21.9727	58.9166	21.9727	58.565	21.9727	59.2646	21.9727	59.0307	21.9727	59.4522	21.9727	59.3354	21.9727	59.4761
23.4375	39.6191	23.4375	39.1273	23.4375	39.5977	23.4375	38.2348	23.4375	39.0645	23.4375	37.4667	23.4375	38.1429	23.4375	38.0462	23.4375	37.4033	23.4375	40.3659	23.4375	38.1057	23.4375	43.2632	23.4375	40.5245	23.4375	45.9726	23.4375	43.448	23.4375	48.3279	23.4375	46.1565	23.4375	50.3445	23.4375	48.5062	23.4375	52.0656	23.4375	50.5169	23.4375	53.5282	23.4375	52.2314	23.4375	54.7586	23.4375	53.685	23.4375	55.7738	23.4375	54.9028	23.4375	56.5838	23.4375	55.9007	23.4375	57.1938	23.4375	56.6887	23.4375	57.6058	23.4375	57.2722	23.4375	57.8202	23.4375	57.6543	23.4375	57.8367
24.9023	32.5963	24.9023	30.3077	24.9023	32.5676	24.9023	22.4734	24.9023	30.1955	24.9023	25.1032	24.9023	22.1051	24.9023	35.1224	24.9023	25.8007	24.9023	40.4748	24.9023	35.422	24.9023	44.2379	24.9023	40.6976	24.9023	47.1579	24.9023	44.4336	24.9023	49.5346	24.9023	47.3425	24.9023	51.5178	24.9023	49.7137	24.9023	53.1913	24.9023	51.6922	24.9023	54.6054	24.9023	53.3591	24.9023	55.7905	24.9023	54.7629	24.9023	56.7653	24.9023	55.9333	24.9023	57.5408	24.9023	56.889	24.9023	58.1231	24.9023	57.6413	24.9023	58.5154	24.9023	58.1972	24.9023	58.719	24.9023	58.5607	24.9023	58.7343
26.3672	38.0088	26.3672	37.294	26.3672	37.7526	26.3672	35.7995	26.3672	36.4393	26.3672	35.0332	26.3672	34.1941	26.3672	37.6646	26.3672	33.8149	26.3672	41.6886	26.3672	37.9749	26.3672	45.2361	26.3672	42.4008	26.3672	48.1564	26.3672	45.946	26.3672	50.5779	26.3672	48.7957	26.3672	52.612	26.3672	51.1433	26.3672	54.3336	26.3672	53.1104	26.3672	55.7913	26.3672	54.7713	26.3672	57.0157	26.3672	56.1719	26.3672	58.0259	26.3672	57.3407	26.3672	58.8332	26.3672	58.2949	26.3672	59.4436	26.3672	59.0449	26.3672	59.8601	26.3672	59.5964	26.3672	60.0837	26.3672	59.9524	26.3672	60.1146
27.832	42.9473	27.832	42.6585	27.832	42.7766	27.832	42.0268	27.832	42.1615	27.832	41.4897	27.832	41.3191	27.832	41.9735	27.832	41.0035	27.832	43.9221	27.832	42.2651	27.832	46.5542	27.832	44.8089	27.832	49.1413	27.832	47.5796	27.832	51.4466	27.832	50.1018	27.832	53.444	27.832	52.2924	27.832	55.1589	27.832	54.1737	27.832	56.6209	27.832	55.7822	27.832	57.8534	27.832	57.1478	27.832	58.8726	27.832	58.2918	27.832	59.6886	27.832	59.2275	27.832	60.3074	27.832	59.9631	27.832	60.732	27.832	60.503	27.832	60.9636	27.832	60.8493	27.832	61.0027
29.2969	47.6496	29.2969	47.4761	29.2969	47.6128	29.2969	47.1705	29.2969	47.3794	29.2969	46.9472	29.2969	47.0641	29.2969	47.1734	29.2969	46.9325	29.2969	48.149	29.2969	47.3666	29.2969	49.777	29.2969	48.5655	29.2969	51.692	29.2969	50.3136	29.2969	53.602	29.2969	52.2445	29.2969	55.3685	29.2969	54.1171	29.2969	56.9435	29.2969	55.8278	29.2969	58.3168	29.2969	57.3437	29.2969	59.4904	29.2969	58.6594	29.2969	60.4687	29.2969	59.7777	29.2969	61.2548	29.2969	60.7024	29.2969	61.8505	29.2969	61.4361	29.2969	62.2565	29.2969	61.9799	29.2969	62.4726	29.2969	62.3341	29.2969	62.4984
30.7617	52.3802	30.7617	52.2292	30.7617	52.3616	30.7617	51.9414	30.7617	52.1781	30.7617	51.6073	30.7617	51.8751	30.7617	51.4056	30.7617	51.5618	30.7617	51.5896	30.7617	51.4378	30.7617	52.3427	30.7617	51.7534	30.7617	53.6066	30.7617	52.6412	30.7617	55.1427	30.7617	53.9865	30.7617	56.7256	30.7617	55.5434	30.7617	58.2212	30.7617	57.1091	30.7617	59.5667	30.7617	58.5697	30.7617	60.7364	30.7617	59.8732	30.7617	61.7206	30.7617	60.9982	30.7617	62.5157	30.7617	61.9366	30.7617	63.12	30.7617	62.6851	30.7617	63.532	30.7617	63.2418	30.7617	63.7507	30.7617	63.6055	30.7617	63.7753
32.2266	55.5347	32.2266	55.4147	32.2266	55.5231	32.2266	55.1862	32.2266	55.3833	32.2266	54.9092	32.2266	55.1463	32.2266	54.6971	32.2266	54.883	32.2266	54.7181	32.2266	54.7188	32.2266	55.135	32.2266	54.8244	32.2266	55.9932	32.2266	55.3411	32.2266	57.1806	32.2266	56.2772	32.2266	58.5181	32.2266	57.5	32.2266	59.8568	32.2266	58.8359	32.2266	61.1054	32.2266	60.1511	32.2266	62.2152	32.2266	61.3658	32.2266	63.1617	32.2266	62.4376	32.2266	63.9325	32.2266	63.3446	32.2266	64.5206	32.2266	64.0753	32.2266	64.9217	32.2266	64.6229	32.2266	65.1332	32.2266	64.9833	32.2266	65.1538
33.6914	58.5316	33.6914	58.4309	33.6914	58.5117	33.6914	58.2234	33.6914	58.3729	33.6914	57.9453	33.6914	58.134	33.6914	57.6661	33.6914	57.8383	33.6914	57.4992	33.6914	57.5662	33.6914	57.5869	33.6914	57.4421	33.6914	58.038	33.6914	57.6087	33.6914	58.8516	33.6914	58.1541	33.6914	59.9163	33.6914	59.0456	33.6914	61.0842	33.6914	60.1536	33.6914	62.2356	33.6914	61.3325	33.6914	63.2935	33.6914	62.4726	33.6914	64.214	33.6914	63.506	33.6914	64.9726	33.6914	64.3944	33.6914	65.5558	33.6914	65.1167	33.6914	65.9556	33.6914	65.6606	33.6914	66.1674	33.6914	66.0192	33.6914	66.1887
35.1563	60.3858	35.1563	60.2832	35.1563	60.3696	35.1563	60.0721	35.1563	60.2364	35.1563	59.7801	35.1563	60.0011	35.1563	59.462	35.1563	59.6981	35.1563	59.2113	35.1563	59.3917	35.1563	59.1574	35.1563	59.1859	35.1563	59.4232	35.1563	59.2125	35.1563	60.0511	35.1563	59.578	35.1563	60.9688	35.1563	60.2932	35.1563	62.0394	35.1563	61.2626	35.1563	63.1332	35.1563	62.3473	35.1563	64.1591	35.1563	63.4277	35.1563	65.0624	35.1563	64.4234	35.1563	65.8125	35.1563	65.2871	35.1563	66.3922	35.1563	65.9918	35.1563	66.792	35.1563	66.5226	35.1563	67.0065	35.1563	66.8711	35.1563	67.033
36.6211	62.1299	36.6211	62.0386	36.6211	62.1204	36.6211	61.8568	36.6211	62.0119	36.6211	61.6108	36.6211	61.8192	36.6211	61.3506	36.6211	61.5745	36.6211	61.1563	36.6211	61.3346	36.6211	61.1333	36.6211	61.1858	36.6211	61.3799	36.6211	61.2329	36.6211	61.934	36.6211	61.5602	36.6211	62.7453	36.6211	62.1826	36.6211	63.7064	36.6211	63.0333	36.6211	64.7054	36.6211	64.0029	36.6211	65.6567	36.6211	64.9871	36.6211	66.5042	36.6211	65.9087	36.6211	67.2139	36.6211	66.718	36.6211	67.7657	36.6211	67.3844	36.6211	68.1476	36.6211	67.8895	36.6211	68.3528	36.6211	68.2227	36.6211	68.378
38.0859	64.1137	38.0859	64.0354	38.0859	64.1106	38.0859	63.8852	38.0859	64.0281	38.0859	63.6859	38.0859	63.8792	38.0859	63.4787	38.0859	63.6909	38.0859	63.327	38.0859	63.5088	38.0859	63.3122	38.0859	63.3986	38.0859	63.5115	38.0859	63.4387	38.0859	63.9625	38.0859	63.696	38.0859	64.6397	38.0859	64.1937	38.0859	65.4666	38.0859	64.8958	38.0859	66.3514	38.0859	65.7247	38.0859	67.2143	38.0859	66.5937	38.0859	67.9971	38.0859	67.4295	38.0859	68.6613	38.0859	68.1787	38.0859	69.182	38.0859	68.8055	38.0859	69.5438	38.0859	69.2866	38.0859	69.7375	38.0859	69.6071	38.0859	69.7587
39.5508	66.0529	39.5508	65.9883	39.5508	66.0502	39.5508	65.8642	39.5508	65.9812	39.5508	65.6991	39.5508	65.8557	39.5508	65.5252	39.5508	65.6946	39.5508	65.3905	39.5508	65.5321	39.5508	65.3563	39.5508	65.4174	39.5508	65.4841	39.5508	65.411	39.5508	65.8128	39.5508	65.5708	39.5508	66.3381	39.5508	65.9288	39.5508	67.0122	39.5508	66.4748	39.5508	67.7639	39.5508	67.1581	39.5508	68.5213	39.5508	67.9079	39.5508	69.2255	39.5508	68.6548	39.5508	69.8333	39.5508	69.3421	39.5508	70.3148	39.5508	69.9284	39.5508	70.6506	39.5508	70.3852	39.5508	70.8288	39.5508	70.6938	39.5508	70.8433
41.0156	68.0347	41.0156	67.9939	41.0156	68.0192	41.0156	67.9043	41.0156	67.9474	41.0156	67.7813	41.0156	67.8268	41.0156	67.6506	41.0156	67.6732	41.0156	67.5489	41.0156	67.5136	41.0156	67.5222	41.0156	67.3872	41.0156	67.6175	41.0156	67.3434	41.0156	67.868	41.0156	67.4328	41.0156	68.2788	41.0156	67.6905	41.0156	68.8223	41.0156	68.1201	41.0156	69.4469	41.0156	68.6893	41.0156	70.0935	41.0156	69.3416	41.0156	70.7073	41.0156	70.0138	41.0156	71.2444	41.0156	70.6494	41.0156	71.6721	41.0156	71.2042	41.0156	71.9675	41.0156	71.6459	41.0156	72.1164	41.0156	71.9528	41.0156	72.1116
42.4805	68.9783	42.4805	68.9375	42.4805	68.9627	42.4805	68.8458	42.4805	68.8917	42.4805	68.7161	42.4805	68.7729	42.4805	68.57	42.4805	68.6217	42.4805	68.4396	42.4805	68.4635	42.4805	68.367	42.4805	68.3343	42.4805	68.3981	42.4805	68.2796	42.4805	68.5711	42.4805	68.3459	42.4805	68.901	42.4805	68.5665	42.4805	69.3718	42.4805	68.9473	42.4805	69.9397	42.4805	69.4613	42.4805	70.548	42.4805	70.058	42.4805	71.1406	42.4805	70.6781	42.4805	71.6703	42.4805	71.2669	42.4805	72.1011	42.4805	71.7804	42.4805	72.4078	42.4805	72.1858	42.4805	72.5744	42.4805	72.4611	42.4805	72.5926
43.9453	69.9871	43.9453	69.9539	43.9453	69.9719	43.9453	69.8773	43.9453	69.9092	43.9453	69.7693	43.9453	69.8065	43.9453	69.6499	43.9453	69.6783	43.9453	69.5478	43.9453	69.548	43.9453	69.4996	43.9453	69.4479	43.9453	69.5447	43.9453	69.4172	43.9453	69.7153	43.9453	69.4954	43.9453	70.0244	43.9453	69.7103	43.9453	70.459	43.9453	70.0668	43.9453	70.9821	43.9453	70.5423	43.9453	71.5444	43.9453	71.0935	43.9453	72.0951	43.9453	71.6682	43.9453	72.59	43.9453	72.2164	43.9453	72.9945	43.9453	72.6966	43.9453	73.2838	43.9453	73.077	43.9453	73.4414	43.9453	73.3357	43.9453	73.4592
45.4102	70.9893	45.4102	70.9581	45.4102	70.9799	45.4102	70.8909	45.4102	70.9311	45.4102	70.7987	45.4102	70.8496	45.4102	70.6993	45.4102	70.7489	45.4102	70.6181	45.4102	70.6494	45.4102	70.5867	45.4102	70.579	45.4102	70.6387	45.4102	70.5704	45.4102	70.8012	45.4102	70.656	45.4102	71.0858	45.4102	70.8584	45.4102	71.4821	45.4102	71.1822	45.4102	71.9594	45.4102	71.6099	45.4102	72.475	45.4102	72.1057	45.4102	72.9831	45.4102	72.6253	45.4102	73.4427	45.4102	73.1241	45.4102	73.8207	45.4102	73.5633	45.4102	74.0928	45.4102	73.9125	45.4102	74.2427	45.4102	74.15	45.4102	74.2621
46.875	72.1139	46.875	72.0892	46.875	72.1059	46.875	72.0362	46.875	72.0663	46.875	71.9644	46.875	72.0013	46.875	71.8898	46.875	71.9228	46.875	71.8342	46.875	71.8489	46.875	71.8241	46.875	71.8033	46.875	71.8873	46.875	71.8133	46.875	72.0462	46.875	71.9056	46.875	72.3103	46.875	72.0988	46.875	72.6717	46.875	72.3968	46.875	73.1053	46.875	72.7857	46.875	73.5748	46.875	73.2363	46.875	74.04	46.875	73.7102	46.875	74.4633	46.875	74.1679	46.875	74.8133	46.875	74.5733	46.875	75.0661	46.875	74.8974	46.875	75.2057	46.875	75.1188	46.875	75.2236
48.3398	73.1684	48.3398	73.1466	48.3398	73.1635	48.3398	73.1019	48.3398	73.1331	48.3398	73.0432	48.3398	73.083	48.3398	72.9848	48.3398	73.0244	48.3398	72.9463	48.3398	72.9735	48.3398	72.9513	48.3398	72.9514	48.3398	73.0242	48.3398	72.9817	48.3398	73.1844	48.3398	73.0869	48.3398	73.4405	48.3398	73.2825	48.3398	73.7856	48.3398	73.5713	48.3398	74.1979	48.3398	73.9409	48.3398	74.6444	48.3398	74.3657	48.3398	75.0884	48.3398	74.8116	48.3398	75.4943	48.3398	75.2424	48.3398	75.8317	48.3398	75.6246	48.3398	76.0771	48.3398	75.9303	48.3398	76.2144	48.3398	76.1383	48.3398	76.2352
51.2695	74.811	51.2695	74.7996	51.2695	74.8077	51.2695	74.7768	51.2695	74.7905	51.2695	74.7495	51.2695	74.7638	51.2695	74.7285	51.2695	74.7357	51.2695	74.728	51.2695	74.7182	51.2695	74.7645	51.2695	74.7263	51.2695	74.8544	51.2695	74.7765	51.2695	75.0104	51.2695	74.8843	51.2695	75.2379	51.2695	75.0604	51.2695	75.5322	51.2695	75.3074	51.2695	75.8778	51.2695	75.6175	51.2695	76.2506	51.2695	75.9726	51.2695	76.6221	51.2695	76.3474	51.2695	76.9632	51.2695	76.7132	51.2695	77.2475	51.2695	77.0415	51.2695	77.4539	51.2695	77.3075	51.2695	77.5675	51.2695	77.4915	51.2695	77.5803
52.7344	75.6229	52.7344	75.6168	52.7344	75.6193	52.7344	75.6036	52.7344	75.6065	52.7344	75.5893	52.7344	75.5885	52.7344	75.583	52.7344	75.5723	52.7344	75.5967	52.7344	75.5681	52.7344	75.6441	52.7344	75.5885	52.7344	75.7386	52.7344	75.6471	52.7344	75.8907	52.7344	75.7566	52.7344	76.1046	52.7344	75.9257	52.7344	76.3763	52.7344	76.1564	52.7344	76.6927	52.7344	76.442	52.7344	77.0332	52.7344	76.7673	52.7344	77.3726	52.7344	77.1104	52.7344	77.6847	52.7344	77.4459	52.7344	77.9453	52.7344	77.7481	52.7344	78.1344	52.7344	77.994	52.7344	78.2379	52.7344	78.165	52.7344	78.2484
54.1992	76.462	54.1992	76.4597	54.1992	76.4591	54.1992	76.4546	54.1992	76.4515	54.1992	76.4517	54.1992	76.4426	54.1992	76.459	54.1992	76.4386	54.1992	76.4866	54.1992	76.4479	54.1992	76.5457	54.1992	76.4813	54.1992	76.6474	54.1992	76.5499	54.1992	76.8	54.1992	76.6642	54.1992	77.0067	54.1992	76.831	54.1992	77.2635	54.1992	77.0516	54.1992	77.5591	54.1992	77.32	54.1992	77.8752	54.1992	77.6231	54.1992	78.1896	54.1992	77.9415	54.1992	78.4786	54.1992	78.2528	54.1992	78.72	54.1992	78.5335	54.1992	78.8953	54.1992	78.7623	54.1992	78.9911	54.1992	78.9219	54.1992	79.0001
55.6641	77.2281	55.6641	77.2301	55.6641	77.2247	55.6641	77.2328	55.6641	77.2205	55.6641	77.2404	55.6641	77.2181	55.6641	77.2595	55.6641	77.2228	55.6641	77.2985	55.6641	77.2418	55.6641	77.3665	55.6641	77.2838	55.6641	77.4725	55.6641	77.3582	55.6641	77.6228	55.6641	77.4733	55.6641	77.82	55.6641	77.6348	55.6641	78.0605	55.6641	77.8436	55.6641	78.3343	55.6641	78.0944	55.6641	78.6259	55.6641	78.3759	55.6641	78.9155	55.6641	78.6712	55.6641	79.1816	55.6641	78.9601	55.6641	79.404	55.6641	79.2214	55.6641	79.5653	55.6641	79.4352	55.6641	79.6528	55.6641	79.5852	55.6641	79.6596
58.5938	78.5495	58.5938	78.5585	58.5938	78.5439	58.5938	78.5723	58.5938	78.5423	58.5938	78.5937	58.5938	78.5467	58.5938	78.6271	58.5938	78.5607	58.5938	78.6779	58.5938	78.5893	58.5938	78.7524	58.5938	78.6387	58.5938	78.8563	58.5938	78.7153	58.5938	78.9941	58.5938	78.8248	58.5938	79.1672	58.5938	78.971	58.5938	79.3734	58.5938	79.1545	58.5938	79.6054	58.5938	79.3715	58.5938	79.8513	58.5938	79.6133	58.5938	80.0957	58.5938	79.8667	58.5938	80.3211	58.5938	80.1153	58.5938	80.5101	58.5938	80.3413	58.5938	80.6472	58.5938	80.5273	58.5938	80.721	58.5938	80.6588	58.5938	80.725
60.0586	79.1277	60.0586	79.1369	60.0586	79.1235	60.0586	79.1523	60.0586	79.1248	60.0586	79.1762	60.0586	79.1334	60.0586	79.2123	60.0586	79.1523	60.0586	79.2652	60.0586	79.186	60.0586	79.3402	60.0586	79.2395	60.0586	79.4422	60.0586	79.3183	60.0586	79.5749	60.0586	79.4271	60.0586	79.7397	60.0586	79.569	60.0586	79.9344	60.0586	79.7444	60.0586	80.1526	60.0586	79.9496	60.0586	80.3837	60.0586	80.1769	60.0586	80.6136	60.0586	80.4142	60.0586	80.826	60.0586	80.6464	60.0586	81.0048	60.0586	80.8572	60.0586	81.1354	60.0586	81.0303	60.0586	81.2066	60.0586	81.152	60.0586	81.2124
62.9883	80.223	62.9883	80.2345	62.9883	80.2211	62.9883	80.2564	62.9883	80.2292	62.9883	80.29	62.9883	80.2483	62.9883	80.3378	62.9883	80.2803	62.9883	80.4023	62.9883	80.3279	62.9883	80.4867	62.9883	80.3942	62.9883	80.5937	62.9883	80.4823	62.9883	80.7251	62.9883	80.5948	62.9883	80.8809	62.9883	80.7331	62.9883	81.0589	62.9883	80.8965	62.9883	81.2536	62.9883	81.0818	62.9883	81.4566	62.9883	81.2825	62.9883	81.6566	62.9883	81.4892	62.9883	81.8406	62.9883	81.6898	62.9883	81.9951	62.9883	81.871	62.9883	82.1079	62.9883	82.0195	62.9883	82.1698	62.9883	82.1237	62.9883	82.1752
64.4531	80.6582	64.4531	80.6727	64.4531	80.6556	64.4531	80.6995	64.4531	80.6652	64.4531	80.7396	64.4531	80.6877	64.4531	80.7945	64.4531	80.7246	64.4531	80.866	64.4531	80.7778	64.4531	80.9561	64.4531	80.8493	64.4531	81.0665	64.4531	80.9412	64.4531	81.1981	64.4531	81.0553	64.4531	81.3506	64.4531	81.1921	64.4531	81.5214	64.4531	81.3508	64.4531	81.7058	64.4531	81.528	64.4531	81.8962	64.4531	81.7181	64.4531	82.0824	64.4531	81.9126	64.4531	82.253	64.4531	82.1009	64.4531	82.3956	64.4531	82.271	64.4531	82.4992	64.4531	82.4106	64.4531	82.5552	64.4531	82.5092	64.4531	82.5587
67.3828	81.221	67.3828	81.237	67.3828	81.2196	67.3828	81.2676	67.3828	81.2329	67.3828	81.3132	67.3828	81.2611	67.3828	81.3741	67.3828	81.3049	67.3828	81.4509	67.3828	81.3649	67.3828	81.5443	67.3828	81.4417	67.3828	81.6544	67.3828	81.5363	67.3828	81.7814	67.3828	81.6489	67.3828	81.924	67.3828	81.7794	67.3828	82.08	67.3828	81.9264	67.3828	82.2452	67.3828	82.0871	67.3828	82.4135	67.3828	82.2567	67.3828	82.5769	67.3828	82.4285	67.3828	82.7258	67.3828	82.5936	67.3828	82.8501	67.3828	82.7421	67.3828	82.9404	67.3828	82.8638	67.3828	82.9893	67.3828	82.9495	67.3828	82.9925
68.8477	81.4833	68.8477	81.4994	68.8477	81.4829	68.8477	81.5312	68.8477	81.4983	68.8477	81.5787	68.8477	81.5298	68.8477	81.642	68.8477	81.5774	68.8477	81.7212	68.8477	81.6415	68.8477	81.8162	68.8477	81.7223	68.8477	81.9269	68.8477	81.82	68.8477	82.0528	68.8477	81.9344	68.8477	82.1926	68.8477	82.0649	68.8477	82.3438	68.8477	82.2097	68.8477	82.5025	68.8477	82.3659	68.8477	82.6634	68.8477	82.529	68.8477	82.8189	68.8477	82.6925	68.8477	82.9606	68.8477	82.8485	68.8477	83.0791	68.8477	82.9878	68.8477	83.1658	68.8477	83.1011	68.8477	83.2137	68.8477	83.1801	68.8477	83.2187
71.7773	82.525	71.7773	82.5414	71.7773	82.5265	71.7773	82.5754	71.7773	82.546	71.7773	82.6263	71.7773	82.5833	71.7773	82.6934	71.7773	82.6377	71.7773	82.7756	71.7773	82.7087	71.7773	82.8718	71.7773	82.7951	71.7773	82.9807	71.7773	82.8958	71.7773	83.1007	71.7773	83.0094	71.7773	83.23	71.7773	83.1341	71.7773	83.3662	71.7773	83.2677	71.7773	83.5061	71.7773	83.4073	71.7773	83.6454	71.7773	83.5493	71.7773	83.7786	71.7773	83.6886	71.7773	83.899	71.7773	83.8193	71.7773	83.9997	71.7773	83.9346	71.7773	84.0736	71.7773	84.0275	71.7773	84.1153	71.7773	84.0913	71.7773	84.1214
74.707	83.0982	74.707	83.1111	74.707	83.1044	74.707	83.1426	74.707	83.1295	74.707	83.1919	74.707	83.1726	74.707	83.2575	74.707	83.2326	74.707	83.3376	74.707	83.3076	74.707	83.4304	74.707	83.3957	74.707	83.5336	74.707	83.4947	74.707	83.6451	74.707	83.6023	74.707	83.7627	74.707	83.7164	74.707	83.8839	74.707	83.8347	74.707	84.0059	74.707	83.9546	74.707	84.1254	74.707	84.0734	74.707	84.2382	74.707	84.1876	74.707	84.3395	74.707	84.2931	74.707	84.424	74.707	84.3849	74.707	84.4865	74.707	84.4581	74.707	84.5225	74.707	84.5076	74.707	84.5297
77.6367	83.2563	77.6367	83.2694	77.6367	83.2639	77.6367	83.3026	77.6367	83.2919	77.6367	83.3548	77.6367	83.3392	77.6367	83.4241	77.6367	83.4042	77.6367	83.5081	77.6367	83.4846	77.6367	83.6043	77.6367	83.5777	77.6367	83.7099	77.6367	83.6808	77.6367	83.8221	77.6367	83.7908	77.6367	83.9381	77.6367	83.9051	77.6367	84.0554	77.6367	84.021	77.6367	84.1712	77.6367	84.1359	77.6367	84.2827	77.6367	84.2471	77.6367	84.3863	77.6367	84.3519	77.6367	84.4785	77.6367	84.4467	77.6367	84.5548	77.6367	84.528	77.6367	84.6112	77.6367	84.5917	77.6367	84.6444	77.6367	84.6341	77.6367	84.6521
79.1016	83.6862	79.1016	83.7037	79.1016	83.69	79.1016	83.7418	79.1016	83.7148	79.1016	83.7989	79.1016	83.7597	79.1016	83.873	79.1016	83.8227	79.1016	83.9612	79.1016	83.9014	79.1016	84.0605	79.1016	83.9929	79.1016	84.1677	79.1016	84.0942	79.1016	84.2796	79.1016	84.202	79.1016	84.3933	79.1016	84.3135	79.1016	84.5059	79.1016	84.4257	79.1016	84.6148	79.1016	84.5361	79.1016	84.7175	79.1016	84.6423	79.1016	84.811	79.1016	84.7418	79.1016	84.8923	79.1016	84.8318	79.1016	84.9581	79.1016	84.9091	79.1016	85.0051	79.1016	84.9705	79.1016	85.0307	79.1016	85.0128	79.1016	85.0333
82.0313	84.4903	82.0313	84.5139	82.0313	84.4879	82.0313	84.5576	82.0313	84.5065	82.0313	84.6195	82.0313	84.5451	82.0313	84.6968	82.0313	84.6016	82.0313	84.7861	82.0313	84.6732	82.0313	84.8835	82.0313	84.7567	82.0313	84.9852	82.0313	84.8485	82.0313	85.0874	82.0313	84.9449	82.0313	85.1869	82.0313	85.0426	82.0313	85.2809	82.0313	85.1388	82.0313	85.3671	82.0313	85.2311	82.0313	85.4438	82.0313	85.3176	82.0313	85.5097	82.0313	85.3968	82.0313	85.5634	82.0313	85.4674	82.0313	85.6037	82.0313	85.528	82.0313	85.6295	82.0313	85.577	82.0313	85.6397	82.0313	85.6129	82.0313	85.6341
84.9609	84.6852	84.9609	84.7057	84.9609	84.6831	84.9609	84.7435	84.9609	84.6991	84.9609	84.7965	84.9609	84.7321	84.9609	84.862	84.9609	84.7801	84.9609	84.9364	84.9609	84.8401	84.9609	85.0159	84.9609	84.9087	84.9609	85.0965	84.9609	84.9821	84.9609	85.1747	84.9609	85.0567	84.9609	85.2472	84.9609	85.1293	84.9609	85.3118	84.9609	85.1972	84.9609	85.367	84.9609	85.2587	84.9609	85.4121	84.9609	85.3127	84.9609	85.4472	84.9609	85.3591	84.9609	85.4728	84.9609	85.3984	84.9609	85.4894	84.9609	85.4309	84.9609	85.4977	84.9609	85.4573	84.9609	85.4981	84.9609	85.4774	84.9609	85.4912
87.8906	85.3078	87.8906	85.3268	87.8906	85.3046	87.8906	85.3604	87.8906	85.3171	87.8906	85.4068	87.8906	85.344	87.8906	85.4629	87.8906	85.3832	87.8906	85.5254	87.8906	85.4319	87.8906	85.5903	87.8906	85.4865	87.8906	85.6539	87.8906	85.5435	87.8906	85.7127	87.8906	85.5994	87.8906	85.7639	87.8906	85.6512	87.8906	85.8057	87.8906	85.6967	87.8906	85.8372	87.8906	85.7346	87.8906	85.8587	87.8906	85.765	87.8906	85.8712	87.8906	85.7886	87.8906	85.8765	87.8906	85.8069	87.8906	85.8761	87.8906	85.8217	87.8906	85.8718	87.8906	85.8343	87.8906	85.8647	87.8906	85.8455	87.8906	85.8558
90.8203	85.474	90.8203	85.4823	90.8203	85.4876	90.8203	85.5119	90.8203	85.5229	90.8203	85.5605	90.8203	85.5782	90.8203	85.6253	90.8203	85.651	90.8203	85.7025	90.8203	85.7376	90.8203	85.788	90.8203	85.8338	90.8203	85.8778	90.8203	85.9353	90.8203	85.9681	90.8203	86.0377	90.8203	86.0558	90.8203	86.1371	90.8203	86.1386	90.8203	86.2299	90.8203	86.2153	90.8203	86.3136	90.8203	86.2853	90.8203	86.3863	90.8203	86.3484	90.8203	86.4468	90.8203	86.4046	90.8203	86.4942	90.8203	86.4536	90.8203	86.528	90.8203	86.4945	90.8203	86.5479	90.8203	86.5259	90.8203	86.5538	90.8203	86.5462
95.2148	85.8537	95.2148	85.8677	95.2148	85.8586	95.2148	85.8999	95.2148	85.8822	95.2148	85.9479	95.2148	85.9228	95.2148	86.0089	95.2148	85.9777	95.2148	86.0785	95.2148	86.0433	95.2148	86.1524	95.2148	86.1152	95.2148	86.2255	95.2148	86.1886	95.2148	86.2934	95.2148	86.2587	95.2148	86.3519	95.2148	86.3211	95.2148	86.3982	95.2148	86.3723	95.2148	86.4305	95.2148	86.41	95.2148	86.4489	95.2148	86.4335	95.2148	86.455	95.2148	86.444	95.2148	86.4517	95.2148	86.4442	95.2148	86.4429	95.2148	86.4379	95.2148	86.4326	95.2148	86.4296	95.2148	86.4245	95.2148	86.423	95.2148	86.421
98.1445	86.0168	98.1445	86.0341	98.1445	86.019	98.1445	86.0699	98.1445	86.0404	98.1445	86.1217	98.1445	86.0795	98.1445	86.186	98.1445	86.1335	98.1445	86.2582	98.1445	86.1983	98.1445	86.3334	98.1445	86.2694	98.1445	86.4064	98.1445	86.342	98.1445	86.4722	98.1445	86.4109	98.1445	86.5268	98.1445	86.4719	98.1445	86.5674	98.1445	86.5213	98.1445	86.5927	98.1445	86.5571	98.1445	86.6034	98.1445	86.5787	98.1445	86.6017	98.1445	86.5871	98.1445	86.5916	98.1445	86.5851	98.1445	86.5776	98.1445	86.5765	98.1445	86.5643	98.1445	86.5657	98.1445	86.5553	98.1445	86.5567	98.1445	86.5527
101.074	86.4355	101.074	86.4455	101.074	86.4447	101.074	86.4736	101.074	86.4729	101.074	86.5174	101.074	86.5185	101.074	86.5736	101.074	86.5787	101.074	86.6377	101.074	86.6494	101.074	86.705	101.074	86.7259	101.074	86.7705	101.074	86.803	101.074	86.8296	101.074	86.8754	101.074	86.8784	101.074	86.9381	101.074	86.9144	101.074	86.9874	101.074	86.9366	101.074	87.0207	101.074	86.9459	101.074	87.0371	101.074	86.9448	101.074	87.0377	101.074	86.9377	101.074	87.0253	101.074	86.9293	101.074	87.0041	101.074	86.9242	101.074	86.979	101.074	86.9261	101.074	86.9551	101.074	86.9366
105.469	86.2057	105.469	86.2158	105.469	86.2154	105.469	86.2445	105.469	86.2447	105.469	86.2892	105.469	86.2919	105.469	86.3461	105.469	86.3541	105.469	86.4106	105.469	86.4273	105.469	86.4774	105.469	86.5065	105.469	86.5412	105.469	86.5862	105.469	86.5971	105.469	86.661	105.469	86.6411	105.469	86.7258	105.469	86.6708	105.469	86.7762	105.469	86.6858	105.469	86.8093	105.469	86.6877	105.469	86.8239	105.469	86.68	105.469	86.8206	105.469	86.6681	105.469	86.8022	105.469	86.6574	105.469	86.773	105.469	86.6534	105.469	86.7385	105.469	86.6596	105.469	86.7048	105.469	86.6772
108.398	86.3697	108.398	86.3831	108.398	86.3754	108.398	86.4145	108.398	86.4004	108.398	86.461	108.398	86.443	108.398	86.5189	108.398	86.5007	108.398	86.5835	108.398	86.5695	108.398	86.6493	108.398	86.6446	108.398	86.7111	108.398	86.7205	108.398	86.7637	108.398	86.7916	108.398	86.8032	108.398	86.8526	108.398	86.827	108.398	86.899	108.398	86.8347	108.398	86.9276	108.398	86.8279	108.398	86.937	108.398	86.8107	108.398	86.928	108.398	86.7886	108.398	86.9037	108.398	86.7682	108.398	86.8691	108.398	86.7555	108.398	86.8307	108.398	86.755	108.398	86.7952	108.398	86.7686
112.793	86.9862	112.793	87.01	112.793	86.9767	112.793	87.0468	112.793	86.9818	112.793	87.094	112.793	87.0005	112.793	87.1482	112.793	87.0309	112.793	87.205	112.793	87.0699	112.793	87.2595	112.793	87.1136	112.793	87.3066	112.793	87.1575	112.793	87.3414	112.793	87.1969	112.793	87.3602	112.793	87.2273	112.793	87.3604	112.793	87.2449	112.793	87.3416	112.793	87.2474	112.793	87.3057	112.793	87.2343	112.793	87.257	112.793	87.2076	112.793	87.2018	112.793	87.1713	112.793	87.1477	112.793	87.1315	112.793	87.1026	112.793	87.0955	112.793	87.0726	112.793	87.0704	112.793	87.0618
117.188	86.7083	117.188	86.7041	117.188	86.7257	117.188	86.7131	117.188	86.7553	117.188	86.7342	117.188	86.795	117.188	86.765	117.188	86.8418	117.188	86.8022	117.188	86.8922	117.188	86.8413	117.188	86.9421	117.188	86.8775	117.188	86.9871	117.188	86.9059	117.188	87.0229	117.188	86.9222	117.188	87.0454	117.188	86.9235	117.188	87.0518	117.188	86.9089	117.188	87.0403	117.188	86.8798	117.188	87.0113	117.188	86.8403	117.188	86.967	117.188	86.7966	117.188	86.9121	117.188	86.7561	117.188	86.8528	117.188	86.7267	117.188	86.7967	117.188	86.7144	117.188	86.7513	117.188	86.7227
120.117	87.0463	120.117	87.0222	120.117	87.0821	120.117	87.0101	120.117	87.1288	120.117	87.0091	120.117	87.1845	120.117	87.0174	120.117	87.2468	120.117	87.0326	120.117	87.3121	120.117	87.0513	120.117	87.3765	120.117	87.0698	120.117	87.4354	120.117	87.0843	120.117	87.4842	120.117	87.0919	120.117	87.5185	120.117	87.0904	120.117	87.5344	120.117	87.0799	120.117	87.5294	120.117	87.0623	120.117	87.5028	120.117	87.0418	120.117	87.4558	120.117	87.0243	120.117	87.3917	120.117	87.0164	120.117	87.3164	120.117	87.0239	120.117	87.2369	120.117	87.0507	120.117	87.1614	120.117	87.0975
124.512	87.0617	124.512	87.0658	124.512	87.0682	124.512	87.0791	124.512	87.086	124.512	87.0992	124.512	87.1146	124.512	87.1228	124.512	87.1525	124.512	87.1462	124.512	87.1969	124.512	87.1652	124.512	87.2441	124.512	87.1755	124.512	87.2895	124.512	87.1735	124.512	87.328	124.512	87.1566	124.512	87.3542	124.512	87.1239	124.512	87.3635	124.512	87.0769	124.512	87.3523	124.512	87.0197	124.512	87.3192	124.512	86.9591	124.512	87.265	124.512	86.9036	124.512	87.1932	124.512	86.8624	124.512	87.1104	124.512	86.8432	124.512	87.0253	124.512	86.8513	124.512	86.9478	124.512	86.8873
128.906	86.8581	128.906	86.8835	128.906	86.8403	128.906	86.915	128.906	86.8309	128.906	86.9498	128.906	86.8296	128.906	86.9848	128.906	86.8353	128.906	87.0159	128.906	86.8456	128.906	87.0384	128.906	86.8572	128.906	87.0475	128.906	86.8661	128.906	87.0388	128.906	86.8676	128.906	87.0088	128.906	86.8574	128.906	86.9555	128.906	86.8319	128.906	86.8799	128.906	86.7889	128.906	86.7855	128.906	86.7286	128.906	86.6794	128.906	86.6538	128.906	86.5716	128.906	86.5704	128.906	86.4734	128.906	86.4869	128.906	86.3964	128.906	86.4136	128.906	86.3496	128.906	86.3609	128.906	86.3379
133.301	87.0042	133.301	87.0405	133.301	86.9748	133.301	87.0822	133.301	86.953	133.301	87.1268	133.301	86.9387	133.301	87.1709	133.301	86.9307	133.301	87.2104	133.301	86.9269	133.301	87.2402	133.301	86.9244	133.301	87.2553	133.301	86.9194	133.301	87.2506	133.301	86.9077	133.301	87.2219	133.301	86.8854	133.301	87.1669	133.301	86.8493	133.301	87.0856	133.301	86.7977	133.301	86.9812	133.301	86.7313	133.301	86.8604	133.301	86.6537	133.301	86.7331	133.301	86.5716	133.301	86.6113	133.301	86.4942	133.301	86.508	133.301	86.4326	133.301	86.4339	133.301	86.3972	133.301	86.3964
139.16	86.6887	139.16	86.6978	139.16	86.6864	139.16	86.7134	139.16	86.6902	139.16	86.7344	139.16	86.6992	139.16	86.7588	139.16	86.7112	139.16	86.7834	139.16	86.7238	139.16	86.8041	139.16	86.7336	139.16	86.8162	139.16	86.7368	139.16	86.8145	139.16	86.7293	139.16	86.7947	139.16	86.7076	139.16	86.7536	139.16	86.6689	139.16	86.6905	139.16	86.6121	139.16	86.6074	139.16	86.5386	139.16	86.5097	139.16	86.4527	139.16	86.406	139.16	86.3615	139.16	86.3069	139.16	86.2749	139.16	86.224	139.16	86.2036	139.16	86.1676	139.16	86.1577	139.16	86.1448
143.555	86.893	143.555	86.8889	143.555	86.9036	143.555	86.891	143.555	86.9207	143.555	86.8984	143.555	86.9432	143.555	86.9095	143.555	86.9696	143.555	86.922	143.555	86.9973	143.555	86.9327	143.555	87.0229	143.555	86.9379	143.555	87.0421	143.555	86.9337	143.555	87.0504	143.555	86.9165	143.555	87.0435	143.555	86.884	143.555	87.0181	143.555	86.8354	143.555	86.9725	143.555	86.7727	143.555	86.9075	143.555	86.7005	143.555	86.827	143.555	86.6259	143.555	86.7375	143.555	86.5579	143.555	86.6482	143.555	86.5056	143.555	86.5693	143.555	86.4775	143.555	86.5104	143.555	86.4786
147.949	86.5302	147.949	86.5232	147.949	86.5438	147.949	86.5222	147.949	86.5643	147.949	86.526	147.949	86.5916	147.949	86.533	147.949	86.6249	147.949	86.541	147.949	86.6621	147.949	86.5471	147.949	86.7004	147.949	86.5482	147.949	86.7356	147.949	86.541	147.949	86.7626	147.949	86.5229	147.949	86.7766	147.949	86.4926	147.949	86.7728	147.949	86.4508	147.949	86.7482	147.949	86.4003	147.949	86.7023	147.949	86.3463	147.949	86.637	147.949	86.2954	147.949	86.5574	147.949	86.2555	147.949	86.4711	147.949	86.2337	147.949	86.3873	147.949	86.2354	147.949	86.3153	147.949	86.263
153.809	86.6399	153.809	86.6513	153.809	86.6269	153.809	86.6603	153.809	86.6129	153.809	86.6663	153.809	86.5987	153.809	86.6682	153.809	86.5852	153.809	86.6644	153.809	86.5731	153.809	86.6525	153.809	86.5623	153.809	86.63	153.809	86.5521	153.809	86.594	153.809	86.5408	153.809	86.5425	153.809	86.5256	153.809	86.4753	153.809	86.5033	153.809	86.3944	153.809	86.4706	153.809	86.3049	153.809	86.4255	153.809	86.2146	153.809	86.3673	153.809	86.1327	153.809	86.2984	153.809	86.0687	153.809	86.2235	153.809	86.03	153.809	86.1499	153.809	86.0207	153.809	86.0861	153.809	86.0407
159.668	86.8379	159.668	86.8486	159.668	86.8231	159.668	86.8547	159.668	86.8048	159.668	86.8557	159.668	86.7833	159.668	86.8503	159.668	86.7587	159.668	86.837	159.668	86.7307	159.668	86.8134	159.668	86.6984	159.668	86.7768	159.668	86.6601	159.668	86.7241	159.668	86.6137	159.668	86.653	159.668	86.5571	159.668	86.5627	159.668	86.4886	159.668	86.4547	159.668	86.4078	159.668	86.3338	159.668	86.3158	159.668	86.2078	159.668	86.2162	159.668	86.0869	159.668	86.1146	159.668	85.9822	159.668	86.0185	159.668	85.9038	159.668	85.9369	159.668	85.859	159.668	85.8785	159.668	85.8509
165.527	86.8181	165.527	86.8346	165.527	86.7985	165.527	86.8476	165.527	86.7758	165.527	86.8562	165.527	86.7501	165.527	86.859	165.527	86.721	165.527	86.8537	165.527	86.6878	165.527	86.8372	165.527	86.6496	165.527	86.8059	165.527	86.6048	165.527	86.7563	165.527	86.5518	165.527	86.6856	165.527	86.4887	165.527	86.5931	165.527	86.4147	165.527	86.4805	165.527	86.33	165.527	86.3531	165.527	86.2365	165.527	86.2192	165.527	86.1381	165.527	86.0896	165.527	86.0408	165.527	85.9757	165.527	85.952	165.527	85.8878	165.527	85.8795	165.527	85.8331	165.527	85.8315	165.527	85.8146
171.387	86.6407	171.387	86.6446	171.387	86.6342	171.387	86.6466	171.387	86.6249	171.387	86.6467	171.387	86.6121	171.387	86.6445	171.387	86.5953	171.387	86.6387	171.387	86.5736	171.387	86.6265	171.387	86.5456	171.387	86.6045	171.387	86.5096	171.387	86.5685	171.387	86.4634	171.387	86.5145	171.387	86.4051	171.387	86.44	171.387	86.3333	171.387	86.3452	171.387	86.2482	171.387	86.2332	171.387	86.1519	171.387	86.1111	171.387	86.0491	171.387	85.9888	171.387	85.9465	171.387	85.8779	171.387	85.8526	171.387	85.7894	171.387	85.7767	171.387	85.7323	171.387	85.7273	171.387	85.7114
177.246	86.4813	177.246	86.4814	177.246	86.4759	177.246	86.4763	177.246	86.4654	177.246	86.4662	177.246	86.4505	177.246	86.4513	177.246	86.4318	177.246	86.4314	177.246	86.4096	177.246	86.4057	177.246	86.3836	177.246	86.3722	177.246	86.3526	177.246	86.3288	177.246	86.3148	177.246	86.2733	177.246	86.2681	177.246	86.2043	177.246	86.2106	177.246	86.1224	177.246	86.1415	177.246	86.0306	177.246	86.0617	177.246	85.9343	177.246	85.9745	177.246	85.8411	177.246	85.8853	177.246	85.7597	177.246	85.8012	177.246	85.698	177.246	85.7303	177.246	85.6624	177.246	85.68	177.246	85.6563
183.105	86.33	183.105	86.3375	183.105	86.3122	183.105	86.3345	183.105	86.2849	183.105	86.3211	183.105	86.2496	183.105	86.2978	183.105	86.2079	183.105	86.265	183.105	86.1614	183.105	86.2225	183.105	86.1108	183.105	86.1696	183.105	86.0567	183.105	86.1056	183.105	85.9987	183.105	86.0297	183.105	85.9364	183.105	85.9425	183.105	85.8695	183.105	85.8462	183.105	85.7986	183.105	85.7456	183.105	85.725	183.105	85.647	183.105	85.6513	183.105	85.558	183.105	85.5807	183.105	85.4856	183.105	85.5168	183.105	85.4348	183.105	85.4638	183.105	85.4083	183.105	85.4255	183.105	85.4059
188.965	86.3635	188.965	86.3715	188.965	86.3453	188.965	86.3694	188.965	86.3172	188.965	86.3576	188.965	86.2799	188.965	86.3362	188.965	86.2343	188.965	86.3051	188.965	86.1813	188.965	86.2633	188.965	86.1212	188.965	86.2093	188.965	86.054	188.965	86.1415	188.965	85.979	188.965	86.0587	188.965	85.8961	188.965	85.9614	188.965	85.8056	188.965	85.8524	188.965	85.7099	188.965	85.737	188.965	85.6129	188.965	85.6225	188.965	85.5201	188.965	85.517	188.965	85.4373	188.965	85.4276	188.965	85.3701	188.965	85.3592	188.965	85.3223	188.965	85.3143	188.965	85.2964	188.965	85.2935
196.289	86.4367	196.289	86.432	196.289	86.4282	196.289	86.4159	196.289	86.4058	196.289	86.3903	196.289	86.3696	196.289	86.357	196.289	86.3202	196.289	86.3168	196.289	86.259	196.289	86.2693	196.289	86.1875	196.289	86.213	196.289	86.1066	196.289	86.1452	196.289	86.0172	196.289	86.0633	196.289	85.9197	196.289	85.966	196.289	85.8152	196.289	85.8542	196.289	85.7054	196.289	85.7318	196.289	85.5938	196.289	85.6057	196.289	85.4856	196.289	85.4849	196.289	85.3871	196.289	85.3784	196.289	85.3052	196.289	85.2939	196.289	85.2456	196.289	85.2367	196.289	85.2128	196.289	85.2095
203.613	86.3144	203.613	86.2946	203.613	86.3145	203.613	86.2566	203.613	86.2945	203.613	86.2026	203.613	86.2553	203.613	86.1355	203.613	86.1982	203.613	86.0579	203.613	86.125	203.613	85.9716	203.613	86.0376	203.613	85.8776	203.613	85.9377	203.613	85.7758	203.613	85.8273	203.613	85.6662	203.613	85.7086	203.613	85.5493	203.613	85.5846	203.613	85.4277	203.613	85.4593	203.613	85.3065	203.613	85.3375	203.613	85.1923	203.613	85.2242	203.613	85.0924	203.613	85.1245	203.613	85.0128	203.613	85.0421	203.613	84.9572	203.613	84.9798	203.613	84.9268	203.613	84.9392	203.613	84.9212
210.938	86.2452	210.938	86.2319	210.938	86.2397	210.938	86.2	210.938	86.2165	210.938	86.1501	210.938	86.1773	210.938	86.0836	210.938	86.1243	210.938	86.0016	210.938	86.0594	210.938	85.905	210.938	85.9836	210.938	85.7941	210.938	85.8967	210.938	85.6691	210.938	85.798	210.938	85.5313	210.938	85.6862	210.938	85.3833	210.938	85.5615	210.938	85.2307	210.938	85.4261	210.938	85.0816	210.938	85.2848	210.938	84.946	210.938	85.1446	210.938	84.8334	210.938	85.0136	210.938	84.7505	210.938	84.8989	210.938	84.7006	210.938	84.806	210.938	84.6832	210.938	84.7378	210.938	84.6964
218.262	86.1116	218.262	86.1181	218.262	86.0849	218.262	86.1044	218.262	86.0395	218.262	86.0715	218.262	85.9782	218.262	86.021	218.262	85.9046	218.262	85.9545	218.262	85.8226	218.262	85.8728	218.262	85.7354	218.262	85.7762	218.262	85.6446	218.262	85.6646	218.262	85.5505	218.262	85.5383	218.262	85.4521	218.262	85.3997	218.262	85.3483	218.262	85.2535	218.262	85.2395	218.262	85.108	218.262	85.1278	218.262	84.973	218.262	85.018	218.262	84.8583	218.262	84.9158	218.262	84.7707	218.262	84.8273	218.262	84.7132	218.262	84.7573	218.262	84.6851	218.262	84.7091	218.262	84.6845
225.586	86.0703	225.586	86.0874	225.586	86.0249	225.586	86.0769	225.586	85.9523	225.586	86.0411	225.586	85.8559	225.586	85.983	225.586	85.7412	225.586	85.9055	225.586	85.615	225.586	85.811	225.586	85.4846	225.586	85.701	225.586	85.3568	225.586	85.5764	225.586	85.2365	225.586	85.4383	225.586	85.1266	225.586	85.2897	225.586	85.0277	225.586	85.1364	225.586	84.9395	225.586	84.9876	225.586	84.8615	225.586	84.8546	225.586	84.7936	225.586	84.7476	225.586	84.7362	225.586	84.6727	225.586	84.6898	225.586	84.6293	225.586	84.654	225.586	84.612	225.586	84.6285	225.586	84.6136
232.91	86.1513	232.91	86.1592	232.91	86.1117	232.91	86.139	232.91	86.039	232.91	86.0952	232.91	85.9339	232.91	86.0327	232.91	85.7991	232.91	85.9554	232.91	85.6394	232.91	85.8655	232.91	85.4609	232.91	85.7634	232.91	85.2702	232.91	85.6476	232.91	85.0747	232.91	85.516	232.91	84.8821	232.91	85.3675	232.91	84.7008	232.91	85.2038	232.91	84.5396	232.91	85.0305	232.91	84.407	232.91	84.8575	232.91	84.3095	232.91	84.6967	232.91	84.2494	232.91	84.5584	232.91	84.2246	232.91	84.4476	232.91	84.2291	232.91	84.3633	232.91	84.256	232.91	84.3008
241.699	85.9994	241.699	85.991	241.699	85.974	241.699	85.9516	241.699	85.9135	241.699	85.8861	241.699	85.8189	241.699	85.7998	241.699	85.6927	241.699	85.698	241.699	85.5392	241.699	85.5846	241.699	85.3636	241.699	85.4616	241.699	85.1723	241.699	85.3293	241.699	84.9722	241.699	85.1868	241.699	84.7712	241.699	85.0341	241.699	84.5774	241.699	84.873	241.699	84.3993	241.699	84.7083	241.699	84.2452	241.699	84.5469	241.699	84.1221	241.699	84.3971	241.699	84.0344	241.699	84.2661	241.699	83.9829	241.699	84.1581	241.699	83.9653	241.699	84.0743	241.699	83.977	241.699	84.014
250.488	85.8301	250.488	85.8167	250.488	85.8093	250.488	85.7729	250.488	85.7519	250.488	85.7035	250.488	85.6573	250.488	85.6136	250.488	85.5272	250.488	85.508	250.488	85.3648	250.488	85.3908	250.488	85.1752	250.488	85.2649	250.488	84.9649	250.488	85.1321	250.488	84.7416	250.488	84.9932	250.488	84.515	250.488	84.8488	250.488	84.2968	250.488	84.7007	250.488	84.1005	250.488	84.5519	250.488	83.9398	250.488	84.4074	250.488	83.8254	250.488	84.2728	250.488	83.7615	250.488	84.152	250.488	83.7446	250.488	84.0467	250.488	83.7652	250.488	83.9557	250.488	83.8125	250.488	83.8774
259.277	86.0301	259.277	85.975	259.277	86.0499	259.277	85.8891	259.277	86.0317	259.277	85.7793	259.277	85.975	259.277	85.6534	259.277	85.8809	259.277	85.52	259.277	85.7513	259.277	85.3861	259.277	85.5893	259.277	85.2564	259.277	85.3982	259.277	85.1319	259.277	85.1827	259.277	85.0109	259.277	84.9493	259.277	84.8904	259.277	84.708	259.277	84.7683	259.277	84.4731	259.277	84.6445	259.277	84.2625	259.277	84.5216	259.277	84.0943	259.277	84.4035	259.277	83.9822	259.277	84.294	259.277	83.9297	259.277	84.1951	259.277	83.9297	259.277	84.1072	259.277	83.968	259.277	84.0303
268.066	85.5969	268.066	85.5018	268.066	85.6522	268.066	85.3722	268.066	85.6656	268.066	85.2164	268.066	85.6376	268.066	85.0457	268.066	85.5703	268.066	84.8732	268.066	85.4673	268.066	84.7114	268.066	85.3321	268.066	84.5692	268.066	85.1683	268.066	84.4488	268.066	84.9793	268.066	84.3464	268.066	84.7696	268.066	84.2547	268.066	84.5456	268.066	84.1678	268.066	84.3169	268.066	84.0837	268.066	84.0963	268.066	84.0038	268.066	83.899	268.066	83.9288	268.066	83.7412	268.066	83.8566	268.066	83.6361	268.066	83.7837	268.066	83.5894	268.066	83.7099	268.066	83.5963	268.066	83.6425
276.855	85.5947	276.855	85.5702	276.855	85.5848	276.855	85.5013	276.855	85.5514	276.855	85.3823	276.855	85.5037	276.855	85.2131	276.855	85.4467	276.855	84.9999	276.855	85.3811	276.855	84.7546	276.855	85.3042	276.855	84.4943	276.855	85.2129	276.855	84.238	276.855	85.1051	276.855	84.004	276.855	84.9822	276.855	83.806	276.855	84.849	276.855	83.6516	276.855	84.713	276.855	83.5437	276.855	84.5809	276.855	83.4829	276.855	84.4549	276.855	83.4687	276.855	84.3311	276.855	83.4984	276.855	84.203	276.855	83.5668	276.855	84.0672	276.855	83.6666	276.855	83.9265	276.855	83.7896
287.109	85.7737	287.109	85.7896	287.109	85.7014	287.109	85.7492	287.109	85.5777	287.109	85.6562	287.109	85.4134	287.109	85.5162	287.109	85.2244	287.109	85.3367	287.109	85.0281	287.109	85.1273	287.109	84.8373	287.109	84.9001	287.109	84.6561	287.109	84.669	287.109	84.4785	287.109	84.4477	287.109	84.2927	287.109	84.2471	287.109	84.0901	287.109	84.074	287.109	83.8739	287.109	83.9303	287.109	83.6637	287.109	83.8153	287.109	83.4905	287.109	83.7259	287.109	83.3817	287.109	83.6572	287.109	83.346	287.109	83.6012	287.109	83.3694	287.109	83.5477	287.109	83.4252	287.109	83.489
297.363	85.697	297.363	85.6222	297.363	85.7078	297.363	85.5004	297.363	85.6425	297.363	85.3493	297.363	85.498	297.363	85.183	297.363	85.2833	297.363	85.0102	297.363	85.0195	297.363	84.8339	297.363	84.7366	297.363	84.6536	297.363	84.4652	297.363	84.4683	297.363	84.2262	297.363	84.2794	297.363	84.0237	297.363	84.0931	297.363	83.8466	297.363	83.92	297.363	83.6804	297.363	83.7728	297.363	83.5207	297.363	83.661	297.363	83.38	297.363	83.5856	297.363	83.2815	297.363	83.537	297.363	83.2438	297.363	83.4989	297.363	83.2656	297.363	83.4548	297.363	83.3257	297.363	83.3955
307.617	85.7956	307.617	85.723	307.617	85.8345	307.617	85.6212	307.617	85.8357	307.617	85.4964	307.617	85.7953	307.617	85.3561	307.617	85.7106	307.617	85.2086	307.617	85.5823	307.617	85.0608	307.617	85.4163	307.617	84.9165	307.617	85.2242	307.617	84.7763	307.617	85.0211	307.617	84.6375	307.617	84.821	307.617	84.4959	307.617	84.6332	307.617	84.3489	307.617	84.4616	307.617	84.1992	307.617	84.3077	307.617	84.0568	307.617	84.174	307.617	83.9375	307.617	84.0645	307.617	83.8554	307.617	83.981	307.617	83.8162	307.617	83.9197	307.617	83.8141	307.617	83.8733	307.617	83.8369
319.336	85.5601	319.336	85.4978	319.336	85.5508	319.336	85.3645	319.336	85.4768	319.336	85.1705	319.336	85.3508	319.336	84.9363	319.336	85.1891	319.336	84.6916	319.336	85.0106	319.336	84.4708	319.336	84.8354	319.336	84.3041	319.336	84.684	319.336	84.2085	319.336	84.5738	319.336	84.1816	319.336	84.5143	319.336	84.2046	319.336	84.5012	319.336	84.2514	319.336	84.5171	319.336	84.2987	319.336	84.5379	319.336	84.3332	319.336	84.5447	319.336	84.3526	319.336	84.5307	319.336	84.3626	319.336	84.5011	319.336	84.3713	319.336	84.4656	319.336	84.3846	319.336	84.4322	319.336	84.4048
329.59	85.7693	329.59	85.7041	329.59	85.7381	329.59	85.5442	329.59	85.6161	329.59	85.2993	329.59	85.4155	329.59	84.9881	329.59	85.1552	329.59	84.6397	329.59	84.859	329.59	84.294	329.59	84.5538	329.59	83.9977	329.59	84.2677	329.59	83.7941	329.59	84.0286	329.59	83.7076	329.59	83.8628	329.59	83.7331	329.59	83.7897	329.59	83.8404	329.59	83.8132	329.59	83.9896	329.59	83.9156	329.59	84.1464	329.59	84.0617	329.59	84.2884	329.59	84.2135	329.59	84.4032	329.59	84.3441	329.59	84.4838	329.59	84.4418	329.59	84.5273	329.59	84.5048	329.59	84.5337
341.309	85.8512	341.309	85.797	341.309	85.7847	341.309	85.6225	341.309	85.6043	341.309	85.3348	341.309	85.3245	341.309	84.9496	341.309	84.9693	341.309	84.4941	341.309	84.5729	341.309	84.0113	341.309	84.1776	341.309	83.5641	341.309	83.8281	341.309	83.2298	341.309	83.5644	341.309	83.0771	341.309	83.4157	341.309	83.1319	341.309	83.3979	341.309	83.359	341.309	83.5113	341.309	83.684	341.309	83.7371	341.309	84.0324	341.309	84.0349	341.309	84.3538	341.309	84.3516	341.309	84.6227	341.309	84.6357	341.309	84.8272	341.309	84.8505	341.309	84.9597	341.309	84.9774	341.309	85.0123
353.027	86.5314	353.027	86.4695	353.027	86.4742	353.027	86.2921	353.027	86.2925	353.027	86.0007	353.027	85.9804	353.027	85.5973	353.027	85.5356	353.027	85.0878	353.027	84.9653	353.027	84.4895	353.027	84.2949	353.027	83.8415	353.027	83.5757	353.027	83.2168	353.027	82.8882	353.027	82.7251	353.027	82.3311	353.027	82.4821	353.027	81.9956	353.027	82.5421	353.027	81.9323	353.027	82.853	353.027	82.1324	353.027	83.2922	353.027	82.5312	353.027	83.7386	353.027	83.032	353.027	84.1111	353.027	83.5369	353.027	84.3669	353.027	83.9703	353.027	84.4859	353.027	84.2853	353.027	84.4594
366.211	86.8229	366.211	86.7086	366.211	86.8359	366.211	86.4936	366.211	86.7481	366.211	86.1794	366.211	86.5595	366.211	85.7698	366.211	86.269	366.211	85.2716	366.211	85.8752	366.211	84.6963	366.211	85.378	366.211	84.0651	366.211	84.7832	366.211	83.4158	366.211	84.1096	366.211	82.8113	366.211	83.3973	366.211	82.3379	366.211	82.7155	366.211	82.0797	366.211	82.1629	366.211	82.0743	366.211	81.8454	366.211	82.285	366.211	81.8241	366.211	82.6201	366.211	82.0677	366.211	82.9742	366.211	82.4641	366.211	83.2584	366.211	82.8804	366.211	83.4107	366.211	83.2122	366.211	83.3973
379.395	87.0037	379.395	86.9304	379.395	86.9961	379.395	86.7739	379.395	86.9044	379.395	86.5253	379.395	86.7225	379.395	86.1701	379.395	86.4443	379.395	85.6943	379.395	86.0661	379.395	85.0941	379.395	85.5896	379.395	84.3901	379.395	85.027	379.395	83.6435	379.395	84.4081	379.395	82.9648	379.395	83.7884	379.395	82.4938	379.395	83.2505	379.395	82.3324	379.395	82.8859	379.395	82.4768	379.395	82.7563	379.395	82.8234	379.395	82.857	379.395	83.2409	379.395	83.1199	379.395	83.6261	379.395	83.4496	379.395	83.9159	379.395	83.7602	379.395	84.0786	379.395	83.9902	379.395	84.1024
392.578	86.6929	392.578	86.6151	392.578	86.6849	392.578	86.455	392.578	86.5876	392.578	86.2153	392.578	86.3973	392.578	85.8966	392.578	86.1115	392.578	85.4958	392.578	85.7299	392.578	85.0066	392.578	85.2555	392.578	84.4248	392.578	84.6962	392.578	83.7609	392.578	84.0679	392.578	83.0594	392.578	83.4019	392.578	82.4154	392.578	82.7585	392.578	81.9657	392.578	82.2357	392.578	81.8256	392.578	81.9486	392.578	82.0027	392.578	81.9635	392.578	82.3848	392.578	82.2377	392.578	82.8181	392.578	82.6417	392.578	83.1808	392.578	83.0363	392.578	83.4023	392.578	83.3235	392.578	83.4516
405.762	86.0574	405.762	85.9731	405.762	86.0425	405.762	85.7887	405.762	85.9309	405.762	85.5065	405.762	85.7243	405.762	85.1311	405.762	85.4223	405.762	84.6677	405.762	85.0226	405.762	84.1211	405.762	84.5241	405.762	83.4999	405.762	83.9325	405.762	82.8278	405.762	83.2692	405.762	82.1614	405.762	82.5843	405.762	81.6013	405.762	81.968	405.762	81.269	405.762	81.5417	405.762	81.2427	405.762	81.4066	405.762	81.4988	405.762	81.573	405.762	81.9276	405.762	81.9476	405.762	82.3967	405.762	82.3929	405.762	82.7984	405.762	82.7891	405.762	83.0625	405.762	83.0563	405.762	83.152
420.41	86.864	420.41	86.8133	420.41	86.8162	420.41	86.6582	420.41	86.6762	420.41	86.3949	420.41	86.4479	420.41	86.0225	420.41	86.1322	420.41	85.5414	420.41	85.7264	420.41	84.951	420.41	85.2264	420.41	84.2508	420.41	84.6291	420.41	83.4509	420.41	83.9354	420.41	82.5956	420.41	83.1536	420.41	81.7923	420.41	82.3112	420.41	81.2101	420.41	81.4869	420.41	80.9958	420.41	80.8492	420.41	81.1533	420.41	80.6129	420.41	81.5409	420.41	80.8485	420.41	81.9838	420.41	81.3765	420.41	82.3505	420.41	81.9366	420.41	82.5604	420.41	82.3572	420.41	82.5689
435.059	86.1703	435.059	86.0967	435.059	86.1744	435.059	85.9567	435.059	86.1013	435.059	85.7445	435.059	85.9445	435.059	85.4453	435.059	85.7003	435.059	85.0407	435.059	85.3655	435.059	84.5176	435.059	84.9343	435.059	83.8769	435.059	84.3985	435.059	83.1426	435.059	83.757	435.059	82.3737	435.059	83.0339	435.059	81.6793	435.059	82.2959	435.059	81.2163	435.059	81.6535	435.059	81.1207	435.059	81.2327	435.059	81.3961	435.059	81.1216	435.059	81.8966	435.059	81.3248	435.059	82.4303	435.059	81.756	435.059	82.8458	435.059	82.2728	435.059	83.0516	435.059	82.728	435.059	83.0085
451.172	86.7643	451.172	86.7043	451.172	86.7397	451.172	86.5595	451.172	86.6277	451.172	86.3275	451.172	86.4231	451.172	86.0026	451.172	86.1196	451.172	85.5736	451.172	85.7123	451.172	85.0209	451.172	85.1991	451.172	84.3175	451.172	84.5783	451.172	83.4364	451.172	83.8481	451.172	82.3729	451.172	83.0115	451.172	81.1992	451.172	82.099	451.172	80.1559	451.172	81.2097	451.172	79.6531	451.172	80.541	451.172	79.9101	451.172	80.311	451.172	80.6449	451.172	80.5598	451.172	81.4264	451.172	81.0938	451.172	82.0101	451.172	81.6662	451.172	82.3172	451.172	82.1114	451.172	82.3432
465.82	86.3611	465.82	86.2883	465.82	86.3516	465.82	86.135	465.82	86.2597	465.82	85.9052	465.82	86.0871	465.82	85.6038	465.82	85.8349	465.82	85.2333	465.82	85.5031	465.82	84.7914	465.82	85.0889	465.82	84.2693	465.82	84.5855	465.82	83.6552	465.82	83.9813	465.82	82.9422	465.82	83.2647	465.82	82.143	465.82	82.4379	465.82	81.313	465.82	81.5468	465.82	80.584	465.82	80.7203	465.82	80.1627	465.82	80.172	465.82	80.1969	465.82	80.0767	465.82	80.5962	465.82	80.3919	465.82	81.0903	465.82	80.8832	465.82	81.4376	465.82	81.3093	465.82	81.5162
483.398	85.9933	483.398	85.8704	483.398	86.027	483.398	85.6761	483.398	85.9584	483.398	85.4278	483.398	85.7825	483.398	85.1354	483.398	85.5008	483.398	84.7952	483.398	85.119	483.398	84.3874	483.398	84.645	483.398	83.8777	483.398	84.0886	483.398	83.2245	483.398	83.4616	483.398	82.3974	483.398	82.7753	483.398	81.419	483.398	82.0401	483.398	80.4364	483.398	81.2761	483.398	79.7469	483.398	80.5486	483.398	79.5968	483.398	80.0048	483.398	79.8993	483.398	79.827	483.398	80.3626	483.398	80.0539	483.398	80.7736	483.398	80.494	483.398	81.0324	483.398	80.8894	483.398	81.0815
499.512	86.0217	499.512	85.945	499.512	85.9886	499.512	85.7535	499.512	85.8533	499.512	85.4514	499.512	85.6238	499.512	85.0583	499.512	85.3087	499.512	84.6076	499.512	84.9192	499.512	84.1344	499.512	84.4682	499.512	83.6587	499.512	83.9688	499.512	83.1792	499.512	83.4319	499.512	82.6856	499.512	82.866	499.512	82.1753	499.512	82.2839	499.512	81.6663	499.512	81.7153	499.512	81.2106	499.512	81.2162	499.512	80.8996	499.512	80.8545	499.512	80.8168	499.512	80.6761	499.512	80.9424	499.512	80.6809	499.512	81.1367	499.512	80.8258	499.512	81.2465	499.512	81.033	499.512	81.2026
517.09	87.3038	517.09	87.2171	517.09	87.2851	517.09	87.0182	517.09	87.1577	517.09	86.69	517.09	86.913	517.09	86.2127	517.09	86.544	517.09	85.5742	517.09	86.0508	517.09	84.7825	517.09	85.4424	517.09	83.8769	517.09	84.7365	517.09	82.9415	517.09	83.9626	517.09	82.123	517.09	83.172	517.09	81.616	517.09	82.4492	517.09	81.5505	517.09	81.9101	517.09	81.8599	517.09	81.6736	517.09	82.3461	517.09	81.7992	517.09	82.8474	517.09	82.2255	517.09	83.2868	517.09	82.787	517.09	83.625	517.09	83.3087	517.09	83.8246	517.09	83.678	517.09	83.8502
536.133	87.0493	536.133	86.9811	536.133	87.0152	536.133	86.8141	536.133	86.8712	536.133	86.5436	536.133	86.6096	536.133	86.1551	536.133	86.2221	536.133	85.6252	536.133	85.6973	536.133	84.9253	536.133	85.0164	536.133	84.0248	536.133	84.1562	536.133	82.9008	536.133	83.1086	536.133	81.5847	536.133	81.9324	536.133	80.2966	536.133	80.8358	536.133	79.5877	536.133	80.1919	536.133	79.9238	536.133	80.2739	536.133	80.9756	536.133	80.9436	536.133	82.1288	536.133	81.8475	536.133	83.08	536.133	82.7278	536.133	83.7505	536.133	83.4545	536.133	84.1228	536.133	83.9573	536.133	84.1894
555.176	87.7811	555.176	87.6794	555.176	87.789	555.176	87.4868	555.176	87.7003	555.176	87.2034	555.176	87.512	555.176	86.8223	555.176	87.2193	555.176	86.3251	555.176	86.8125	555.176	85.681	555.176	86.2734	555.176	84.8484	555.176	85.5698	555.176	83.7784	555.176	84.6526	555.176	82.4264	555.176	83.4582	555.176	80.8065	555.176	81.9317	555.176	79.1824	555.176	80.1093	555.176	78.3381	555.176	78.3601	555.176	78.8952	555.176	77.6319	555.176	80.1984	555.176	78.4405	555.176	81.4101	555.176	79.9165	555.176	82.2325	555.176	81.2379	555.176	82.6267	555.176	82.1424	555.176	82.5994
574.219	87.5462	574.219	87.4708	574.219	87.5628	574.219	87.3327	574.219	87.5169	574.219	87.1219	574.219	87.3964	574.219	86.8217	574.219	87.1832	574.219	86.4064	574.219	86.8565	574.219	85.8366	574.219	86.3932	574.219	85.0572	574.219	85.7664	574.219	83.9996	574.219	84.9448	574.219	82.5985	574.219	83.8955	574.219	80.8527	574.219	82.6024	574.219	79.0181	574.219	81.124	574.219	77.9137	574.219	79.7344	574.219	78.3116	574.219	79.0118	574.219	79.6218	574.219	79.3319	574.219	80.9249	574.219	80.2901	574.219	81.8515	574.219	81.2877	574.219	82.332	574.219	82.0187	574.219	82.3792
594.727	86.9191	594.727	86.9027	594.727	86.8845	594.727	86.8329	594.727	86.798	594.727	86.7021	594.727	86.659	594.727	86.4961	594.727	86.4672	594.727	86.1925	594.727	86.215	594.727	85.7563	594.727	85.8726	594.727	85.1364	594.727	85.3761	594.727	84.2685	594.727	84.6317	594.727	83.0956	594.727	83.5374	594.727	81.6251	594.727	82.0264	594.727	80.0715	594.727	80.1703	594.727	79.0461	594.727	78.4481	594.727	79.1887	594.727	77.887	594.727	80.2308	594.727	78.8165	594.727	81.4402	594.727	80.3006	594.727	82.3938	594.727	81.6196	594.727	82.9276	594.727	82.5356	594.727	82.979
615.234	86.953	615.234	86.8248	615.234	87.0178	615.234	86.6491	615.234	87.0022	615.234	86.4322	615.234	86.8945	615.234	86.1653	615.234	86.6937	615.234	85.8219	615.234	86.407	615.234	85.3582	615.234	86.0371	615.234	84.7128	615.234	85.5611	615.234	83.8007	615.234	84.9128	615.234	82.5083	615.234	83.9846	615.234	80.7219	615.234	82.6557	615.234	78.4956	615.234	80.8607	615.234	76.6462	615.234	78.7944	615.234	76.7809	615.234	77.357	615.234	78.4039	615.234	77.6502	615.234	79.9925	615.234	79.0418	615.234	81.0799	615.234	80.3969	615.234	81.647	615.234	81.31	615.234	81.723
637.207	86.715	637.207	86.6569	637.207	86.738	637.207	86.5901	637.207	86.7194	637.207	86.5381	637.207	86.675	637.207	86.4914	637.207	86.6224	637.207	86.3971	637.207	86.5546	637.207	86.1738	637.207	86.427	637.207	85.7324	637.207	86.1659	637.207	84.9827	637.207	85.6851	637.207	83.8188	637.207	84.8929	637.207	82.0949	637.207	83.6936	637.207	79.6728	637.207	82.0156	637.207	76.9964	637.207	79.9723	637.207	76.5793	637.207	78.3599	637.207	78.8345	637.207	78.5403	637.207	81.0221	637.207	80.0868	637.207	82.4252	637.207	81.6471	637.207	83.119	637.207	82.7117	637.207	83.2031
659.18	86.9409	659.18	86.8549	659.18	86.9351	659.18	86.6751	659.18	86.8528	659.18	86.427	659.18	86.7097	659.18	86.1577	659.18	86.523	659.18	85.8999	659.18	86.3106	659.18	85.6345	659.18	86.0735	659.18	85.2823	659.18	85.7682	659.18	84.7207	659.18	85.3004	659.18	83.802	659.18	84.5447	659.18	82.3738	659.18	83.3688	659.18	80.337	659.18	81.6508	659.18	77.9391	659.18	79.3656	659.18	76.6483	659.18	77.0669	659.18	77.8365	659.18	76.6076	659.18	79.7945	659.18	78.2608	659.18	81.2175	659.18	80.0875	659.18	81.9093	659.18	81.3285	659.18	81.9307
682.617	86.7439	682.617	86.6164	682.617	86.7815	682.617	86.4292	682.617	86.6992	682.617	86.2028	682.617	86.4894	682.617	85.9535	682.617	86.1833	682.617	85.6977	682.617	85.8446	682.617	85.4352	682.617	85.5315	682.617	85.1211	682.617	85.2427	682.617	84.6591	682.617	84.8887	682.617	83.9188	682.617	84.3182	682.617	82.7476	682.617	83.371	682.617	80.9928	682.617	81.9165	682.617	78.7242	682.617	79.9035	682.617	77.1115	682.617	77.6482	682.617	77.9046	682.617	76.6209	682.617	79.7807	682.617	77.9171	682.617	81.2387	682.617	79.8668	682.617	81.9874	682.617	81.3026	682.617	82.0112
707.52	86.9562	707.52	86.8168	707.52	86.9512	707.52	86.5699	707.52	86.8077	707.52	86.2812	707.52	86.5531	707.52	85.9983	707.52	86.222	707.52	85.7224	707.52	85.8682	707.52	85.4244	707.52	85.5604	707.52	85.0547	707.52	85.3178	707.52	84.5167	707.52	85.0393	707.52	83.6363	707.52	84.5223	707.52	82.1793	707.52	83.5522	707.52	79.9287	707.52	81.9773	707.52	77.0307	707.52	79.8094	707.52	75.4995	707.52	77.5967	707.52	77.3909	707.52	76.9483	707.52	79.9254	707.52	78.3967	707.52	81.661	707.52	80.3154	707.52	82.5009	707.52	81.7648	707.52	82.5156
732.422	86.6712	732.422	86.5346	732.422	86.6443	732.422	86.2585	732.422	86.4694	732.422	85.9023	732.422	86.1927	732.422	85.5397	732.422	85.8775	732.422	85.2204	732.422	85.5808	732.422	84.9333	732.422	85.3155	732.422	84.6038	732.422	85.0379	732.422	84.1287	732.422	84.6727	732.422	83.3911	732.422	84.1224	732.422	82.2311	732.422	83.2507	732.422	80.439	732.422	81.887	732.422	77.9124	732.422	79.8968	732.422	75.5442	732.422	77.4939	732.422	75.9623	732.422	76.1567	732.422	78.2035	732.422	77.2734	732.422	79.9807	732.422	79.1145	732.422	80.8916	732.422	80.4215	732.422	81.0153
757.324	86.5476	757.324	86.4198	757.324	86.5495	757.324	86.1555	757.324	86.4214	757.324	85.7734	757.324	86.152	757.324	85.3583	757.324	85.7698	757.324	85.0248	757.324	85.3778	757.324	84.8243	757.324	85.106	757.324	84.6807	757.324	84.9668	757.324	84.4082	757.324	84.7835	757.324	83.7891	757.324	84.3216	757.324	82.628	757.324	83.4299	757.324	80.7377	757.324	82.0388	757.324	77.981	757.324	80.0855	757.324	75.181	757.324	77.6256	757.324	75.6392	757.324	75.7962	757.324	78.1853	757.324	76.7295	757.324	80.0894	757.324	78.9267	757.324	81.072	757.324	80.5298	757.324	81.2258
785.156	86.8222	785.156	86.6622	785.156	86.7722	785.156	86.3244	785.156	86.5409	785.156	85.8836	785.156	86.1825	785.156	85.4178	785.156	85.7326	785.156	84.9952	785.156	85.2171	785.156	84.6815	785.156	84.6983	785.156	84.5086	785.156	84.2777	785.156	84.3757	785.156	83.9835	785.156	83.9936	785.156	83.6405	785.156	82.9847	785.156	82.9406	785.156	81.019	785.156	81.6417	785.156	77.8995	785.156	79.6796	785.156	74.2658	785.156	77.2486	785.156	74.0721	785.156	75.2729	785.156	76.9423	785.156	75.7197	785.156	79.2607	785.156	77.9997	785.156	80.5467	785.156	79.9287	785.156	80.792
811.523	87.1322	811.523	86.8663	811.523	87.1299	811.523	86.3759	811.523	86.8559	811.523	85.7576	811.523	86.3509	811.523	85.1464	811.523	85.7196	811.523	84.6535	811.523	85.1188	811.523	84.3216	811.523	84.6667	811.523	84.1115	811.523	84.3629	811.523	83.8785	811.523	84.1336	811.523	83.4086	811.523	83.8773	811.523	82.5032	811.523	83.4058	811.523	80.9973	811.523	82.4349	811.523	78.7615	811.523	80.7353	811.523	76.1729	811.523	78.5131	811.523	75.7638	811.523	77.2016	811.523	78.1673	811.523	78.1354	811.523	80.3397	811.523	79.839	811.523	81.4633	811.523	81.0954	811.523	81.6618
840.82	87.5401	840.82	87.338	840.82	87.4261	840.82	86.7963	840.82	87.074	840.82	85.9653	840.82	86.5366	840.82	84.9544	840.82	85.788	840.82	83.9335	840.82	84.8092	840.82	83.1202	840.82	83.7661	840.82	82.6691	840.82	83.0331	840.82	82.5416	840.82	82.789	840.82	82.4816	840.82	82.6944	840.82	82.0817	840.82	82.2735	840.82	80.9222	840.82	81.2351	840.82	78.6839	840.82	79.3776	840.82	75.4832	840.82	76.4514	840.82	73.8099	840.82	73.2038	840.82	75.899	840.82	74.3828	840.82	78.266	840.82	77.6242	840.82	79.6727	840.82	79.531	840.82	80.121
870.117	87.6991	870.117	87.4037	870.117	87.7151	870.117	86.8483	870.117	87.4423	870.117	86.0776	870.117	86.9056	870.117	85.2028	870.117	86.1907	870.117	84.3789	870.117	85.4374	870.117	83.7024	870.117	84.8031	870.117	83.2031	870.117	84.4011	870.117	82.8813	870.117	84.1917	870.117	82.5808	870.117	83.9362	870.117	81.9424	870.117	83.3456	870.117	80.6101	870.117	82.2507	870.117	78.4299	870.117	80.6127	870.117	75.8786	870.117	78.5211	870.117	75.3672	870.117	76.7351	870.117	77.644	870.117	77.0806	870.117	79.9193	870.117	79.0314	870.117	81.2088	870.117	80.6889	870.117	81.4495
900.879	88.013	900.879	87.8062	900.879	87.9316	900.879	87.323	900.879	87.556	900.879	86.569	900.879	86.9089	900.879	85.5733	900.879	86.0417	900.879	84.4478	900.879	85.0343	900.879	83.4419	900.879	84.0277	900.879	82.8474	900.879	83.1995	900.879	82.6905	900.879	82.6208	900.879	82.6553	900.879	82.1799	900.879	82.2899	900.879	81.6133	900.879	81.1179	900.879	80.5898	900.879	78.6891	900.879	78.9297	900.879	74.8353	900.879	76.9325	900.879	72.3723	900.879	75.7884	900.879	75.2149	900.879	76.6733	900.879	78.2983	900.879	78.5637	900.879	80.072	900.879	80.0377	900.879	80.5968
933.105	88.504	933.105	88.2916	933.105	88.4853	933.105	87.8065	933.105	88.2268	933.105	86.9911	933.105	87.6823	933.105	85.8757	933.105	86.8176	933.105	84.6868	933.105	85.7037	933.105	83.7719	933.105	84.5917	933.105	83.2848	933.105	83.8058	933.105	83.0665	933.105	83.4132	933.105	82.821	933.105	83.1439	933.105	82.2005	933.105	82.6877	933.105	80.8475	933.105	81.7679	933.105	78.3996	933.105	79.9425	933.105	74.4115	933.105	76.5523	933.105	71.1242	933.105	72.2341	933.105	74.9185	933.105	74.4001	933.105	78.4708	933.105	78.3027	933.105	80.3714	933.105	80.4132	933.105	81.0167
965.332	89.0572	965.332	88.8725	965.332	88.9354	965.332	88.3443	965.332	88.5808	965.332	87.5282	965.332	88.0381	965.332	86.5502	965.332	87.3196	965.332	85.5074	965.332	86.4394	965.332	84.4391	965.332	85.4207	965.332	83.5057	965.332	84.3532	965.332	83.0564	965.332	83.5106	965.332	83.0613	965.332	83.0659	965.332	82.8529	965.332	82.6279	965.332	81.7837	965.332	81.6143	965.332	79.564	965.332	79.6432	965.332	76.3731	965.332	76.4156	965.332	73.9915	965.332	73.3192	965.332	75.5527	965.332	75.8358	965.332	78.5017	965.332	79.1244	965.332	80.4544	965.332	80.7945	965.332	81.1849
1,000.49	90.2152	1,000.49	90.0387	1,000.49	90.0523	1,000.49	89.5094	1,000.49	89.5915	1,000.49	88.6619	1,000.49	88.8532	1,000.49	87.5474	1,000.49	87.828	1,000.49	86.205	1,000.49	86.5367	1,000.49	84.7795	1,000.49	85.1422	1,000.49	83.7366	1,000.49	84.1048	1,000.49	83.4324	1,000.49	83.8721	1,000.49	83.385	1,000.49	84.044	1,000.49	82.9503	1,000.49	83.8595	1,000.49	81.878	1,000.49	82.9834	1,000.49	80.0016	1,000.49	81.2243	1,000.49	77.1965	1,000.49	78.0684	1,000.49	75.3163	1,000.49	73.2789	1,000.49	77.148	1,000.49	73.7017	1,000.49	79.7224	1,000.49	78.2336	1,000.49	81.4214	1,000.49	80.918	1,000.49	81.8923
1,035.64	90.1736	1,035.64	90.0204	1,035.64	89.9737	1,035.64	89.544	1,035.64	89.474	1,035.64	88.8077	1,035.64	88.7262	1,035.64	87.8312	1,035.64	87.7127	1,035.64	86.6511	1,035.64	86.4571	1,035.64	85.4378	1,035.64	85.1287	1,035.64	84.3533	1,035.64	83.986	1,035.64	83.412	1,035.64	83.3523	1,035.64	82.882	1,035.64	83.2435	1,035.64	82.8279	1,035.64	83.0013	1,035.64	82.2958	1,035.64	81.9833	1,035.64	80.3096	1,035.64	79.9928	1,035.64	76.6359	1,035.64	76.7535	1,035.64	74.4938	1,035.64	70.7975	1,035.64	77.1473	1,035.64	71.7475	1,035.64	79.8007	1,035.64	78.2845	1,035.64	81.3777	1,035.64	81.1522	1,035.64	81.9207
1,072.27	89.346	1,072.27	89.1465	1,072.27	89.3252	1,072.27	88.722	1,072.27	88.983	1,072.27	87.9489	1,072.27	88.2522	1,072.27	86.7545	1,072.27	87.1846	1,072.27	85.2434	1,072.27	85.9002	1,072.27	83.6656	1,072.27	84.4368	1,072.27	82.46	1,072.27	82.8144	1,072.27	82.1001	1,072.27	81.6001	1,072.27	82.2341	1,072.27	81.5268	1,072.27	82.0252	1,072.27	81.8301	1,072.27	81.054	1,072.27	81.4583	1,072.27	78.8989	1,072.27	79.9106	1,072.27	74.2921	1,072.27	76.7145	1,072.27	69.1726	1,072.27	71.1522	1,072.27	75.4479	1,072.27	70.8507	1,072.27	79.1573	1,072.27	76.8585	1,072.27	80.8612	1,072.27	80.1039	1,072.27	81.2431
1,108.89	88.8732	1,108.89	88.6629	1,108.89	88.7564	1,108.89	88.1865	1,108.89	88.2782	1,108.89	87.4214	1,108.89	87.5152	1,108.89	86.2966	1,108.89	86.5188	1,108.89	84.812	1,108.89	85.1563	1,108.89	83.2128	1,108.89	83.3253	1,108.89	81.9719	1,108.89	81.51	1,108.89	81.2629	1,108.89	80.635	1,108.89	80.9835	1,108.89	80.6242	1,108.89	80.9648	1,108.89	80.8285	1,108.89	80.5561	1,108.89	80.721	1,108.89	78.9028	1,108.89	79.7528	1,108.89	75.1881	1,108.89	77.4179	1,108.89	70.3615	1,108.89	72.2513	1,108.89	74.1137	1,108.89	64.8774	1,108.89	78.0038	1,108.89	74.3654	1,108.89	79.6307	1,108.89	78.3024	1,108.89	79.7004
1,148.44	89.035	1,148.44	88.712	1,148.44	89.1327	1,148.44	88.2203	1,148.44	88.9537	1,148.44	87.5649	1,148.44	88.4339	1,148.44	86.592	1,148.44	87.5442	1,148.44	85.1045	1,148.44	86.3557	1,148.44	83.2329	1,148.44	84.957	1,148.44	81.666	1,148.44	83.3152	1,148.44	80.8364	1,148.44	81.5077	1,148.44	80.5504	1,148.44	80.2955	1,148.44	80.683	1,148.44	80.3378	1,148.44	80.3615	1,148.44	80.7097	1,148.44	78.2379	1,148.44	80.3336	1,148.44	72.7963	1,148.44	78.4826	1,148.44	59.797	1,148.44	73.9112	1,148.44	71.445	1,148.44	67.0126	1,148.44	76.6821	1,148.44	74.3922	1,148.44	79.0508	1,148.44	78.3632	1,148.44	79.613
1,189.45	89.3018	1,189.45	88.9927	1,189.45	89.3605	1,189.45	88.4472	1,189.45	89.1092	1,189.45	87.663	1,189.45	88.4928	1,189.45	86.6275	1,189.45	87.5158	1,189.45	85.2532	1,189.45	86.2487	1,189.45	83.4907	1,189.45	84.7728	1,189.45	81.585	1,189.45	83.0826	1,189.45	79.9769	1,189.45	81.2796	1,189.45	79.1281	1,189.45	79.9765	1,189.45	79.3579	1,189.45	79.6611	1,189.45	79.6834	1,189.45	79.8329	1,189.45	78.8292	1,189.45	79.6544	1,189.45	75.8476	1,189.45	78.3791	1,189.45	68.5691	1,189.45	74.9912	1,189.45	69.2846	1,189.45	67.8971	1,189.45	76.1489	1,189.45	72.6613	1,189.45	78.9257	1,189.45	77.7095	1,189.45	79.4253
1,230.47	89.4544	1,230.47	89.2547	1,230.47	89.4304	1,230.47	88.8194	1,230.47	89.1656	1,230.47	88.1228	1,230.47	88.6157	1,230.47	87.1596	1,230.47	87.7444	1,230.47	85.902	1,230.47	86.5782	1,230.47	84.2979	1,230.47	85.2085	1,230.47	82.6539	1,230.47	83.7538	1,230.47	81.7186	1,230.47	82.4594	1,230.47	81.4367	1,230.47	81.6975	1,230.47	81.2599	1,230.47	81.3863	1,230.47	80.9787	1,230.47	81.1501	1,230.47	79.9144	1,230.47	80.6346	1,230.47	76.9986	1,230.47	78.9961	1,230.47	70.6684	1,230.47	74.8682	1,230.47	66.4555	1,230.47	67.6086	1,230.47	74.3613	1,230.47	72.3049	1,230.47	77.671	1,230.47	76.6734	1,230.47	78.2727
1,274.41	89.2129	1,274.41	89.0476	1,274.41	89.1351	1,274.41	88.5466	1,274.41	88.8885	1,274.41	87.7875	1,274.41	88.3764	1,274.41	86.8782	1,274.41	87.4608	1,274.41	85.6911	1,274.41	86.1715	1,274.41	83.9908	1,274.41	84.6508	1,274.41	81.9435	1,274.41	82.9261	1,274.41	80.5483	1,274.41	81.2816	1,274.41	80.2014	1,274.41	80.473	1,274.41	79.82	1,274.41	80.256	1,274.41	79.3667	1,274.41	79.9914	1,274.41	78.8304	1,274.41	79.3835	1,274.41	76.7743	1,274.41	77.6806	1,274.41	71.949	1,274.41	73.8616	1,274.41	70.4351	1,274.41	69.0036	1,274.41	75.7938	1,274.41	73.7906	1,274.41	78.7078	1,274.41	77.794	1,274.41	79.2624
1,319.82	88.9151	1,319.82	88.8316	1,319.82	88.8401	1,319.82	88.5559	1,319.82	88.6162	1,319.82	88.0513	1,319.82	88.1314	1,319.82	87.2519	1,319.82	87.2441	1,319.82	86.0006	1,319.82	86.0279	1,319.82	84.1622	1,319.82	84.6378	1,319.82	82.1909	1,319.82	82.9447	1,319.82	81.084	1,319.82	81.0148	1,319.82	80.5522	1,319.82	80.0582	1,319.82	79.9542	1,319.82	80.3297	1,319.82	79.5539	1,319.82	80.3168	1,319.82	78.7275	1,319.82	79.3891	1,319.82	76.291	1,319.82	77.2978	1,319.82	71.6229	1,319.82	72.6003	1,319.82	71.6273	1,319.82	67.5888	1,319.82	76.5233	1,319.82	74.1361	1,319.82	78.9547	1,319.82	77.6439	1,319.82	79.1652
1,366.7	88.564	1,366.7	88.4613	1,366.7	88.4436	1,366.7	88.1603	1,366.7	88.1392	1,366.7	87.6139	1,366.7	87.7427	1,366.7	86.6924	1,366.7	87.169	1,366.7	85.372	1,366.7	86.1143	1,366.7	83.7531	1,366.7	84.3878	1,366.7	81.7393	1,366.7	82.0567	1,366.7	79.5972	1,366.7	79.2779	1,366.7	79.1266	1,366.7	77.8079	1,366.7	79.6604	1,366.7	78.9934	1,366.7	79.4321	1,366.7	79.7711	1,366.7	78.2294	1,366.7	79.0986	1,366.7	75.6141	1,366.7	77.1954	1,366.7	69.3835	1,366.7	72.4758	1,366.7	70.0625	1,366.7	59.4545	1,366.7	76.3767	1,366.7	73.5202	1,366.7	78.7502	1,366.7	77.8248	1,366.7	79.132
1,413.57	88.089	1,413.57	87.9222	1,413.57	88.1694	1,413.57	87.6637	1,413.57	87.9804	1,413.57	87.1255	1,413.57	87.4863	1,413.57	86.2548	1,413.57	86.7703	1,413.57	85.1567	1,413.57	85.7221	1,413.57	83.7219	1,413.57	84.1766	1,413.57	81.531	1,413.57	82.1467	1,413.57	79.1067	1,413.57	79.6732	1,413.57	78.871	1,413.57	77.9973	1,413.57	79.8295	1,413.57	79.106	1,413.57	79.935	1,413.57	79.9624	1,413.57	78.4135	1,413.57	79.3149	1,413.57	74.4848	1,413.57	77.5251	1,413.57	64.4435	1,413.57	73.5663	1,413.57	69.8203	1,413.57	58.9131	1,413.57	76.4976	1,413.57	71.0676	1,413.57	79.2511	1,413.57	77.5735	1,413.57	79.7216
1,463.38	87.8692	1,463.38	87.5381	1,463.38	87.8699	1,463.38	87.0879	1,463.38	87.4048	1,463.38	86.7503	1,463.38	86.7658	1,463.38	86.2243	1,463.38	86.4281	1,463.38	84.984	1,463.38	85.9347	1,463.38	83.1542	1,463.38	84.6446	1,463.38	80.7913	1,463.38	82.755	1,463.38	77.7664	1,463.38	80.3338	1,463.38	76.8816	1,463.38	77.2449	1,463.38	78.3875	1,463.38	77.7616	1,463.38	79.5775	1,463.38	79.385	1,463.38	78.9313	1,463.38	79.37	1,463.38	75.1645	1,463.38	78.4404	1,463.38	65.5451	1,463.38	75.0203	1,463.38	65.2155	1,463.38	62.4349	1,463.38	75.3121	1,463.38	71.6573	1,463.38	78.9616	1,463.38	77.2353	1,463.38	79.3591
1,516.11	88.7635	1,516.11	88.3309	1,516.11	88.5946	1,516.11	87.5127	1,516.11	87.8549	1,516.11	86.7963	1,516.11	86.97	1,516.11	86.2326	1,516.11	86.4523	1,516.11	85.1833	1,516.11	86.0117	1,516.11	83.5654	1,516.11	85.0429	1,516.11	81.5236	1,516.11	83.4361	1,516.11	78.6464	1,516.11	80.9933	1,516.11	75.8268	1,516.11	77.712	1,516.11	76.1134	1,516.11	77.0451	1,516.11	78.4736	1,516.11	78.7626	1,516.11	79.1238	1,516.11	79.6082	1,516.11	76.998	1,516.11	78.9866	1,516.11	71.0032	1,516.11	75.2415	1,516.11	62.7798	1,516.11	59.8953	1,516.11	74.3161	1,516.11	70.4962	1,516.11	78.3495	1,516.11	76.5018	1,516.11	78.8788
1,568.85	88.8048	1,568.85	88.4531	1,568.85	88.5882	1,568.85	87.57	1,568.85	87.7911	1,568.85	86.4484	1,568.85	86.706	1,568.85	85.5923	1,568.85	85.8839	1,568.85	84.778	1,568.85	85.2123	1,568.85	83.7852	1,568.85	84.0863	1,568.85	82.3419	1,568.85	82.6099	1,568.85	79.6235	1,568.85	80.4177	1,568.85	76.6177	1,568.85	76.4746	1,568.85	76.038	1,568.85	74.9313	1,568.85	77.5355	1,568.85	77.3517	1,568.85	78.8646	1,568.85	78.764	1,568.85	77.8086	1,568.85	78.6262	1,568.85	73.4546	1,568.85	75.5337	1,568.85	58.3339	1,568.85	63.2953	1,568.85	71.8273	1,568.85	69.6826	1,568.85	77.7224	1,568.85	76.516	1,568.85	78.8386
1,624.51	88.2354	1,624.51	87.7196	1,624.51	88.0886	1,624.51	86.8373	1,624.51	87.2326	1,624.51	85.8858	1,624.51	85.9778	1,624.51	84.8927	1,624.51	84.8303	1,624.51	84.0298	1,624.51	83.6377	1,624.51	83.4671	1,624.51	82.1782	1,624.51	82.3505	1,624.51	80.9679	1,624.51	79.8399	1,624.51	79.2293	1,624.51	76.9348	1,624.51	75.0164	1,624.51	75.4371	1,624.51	71.1934	1,624.51	76.3326	1,624.51	74.5621	1,624.51	78.0732	1,624.51	77.1388	1,624.51	78.1053	1,624.51	77.6458	1,624.51	75.7111	1,624.51	75.6124	1,624.51	67.3633	1,624.51	68.273	1,624.51	69.6016	1,624.51	67.2745	1,624.51	76.251	1,624.51	75.3564	1,624.51	77.4028
1,681.64	87.3529	1,681.64	86.5787	1,681.64	87.5266	1,681.64	85.8215	1,681.64	86.8307	1,681.64	84.9718	1,681.64	85.6825	1,681.64	83.7653	1,681.64	84.3731	1,681.64	82.8384	1,681.64	82.7429	1,681.64	82.5515	1,681.64	81.0277	1,681.64	81.5164	1,681.64	80.4043	1,681.64	78.8333	1,681.64	79.6788	1,681.64	75.6661	1,681.64	76.3466	1,681.64	74.2831	1,681.64	71.3948	1,681.64	75.2972	1,681.64	71.4567	1,681.64	76.0527	1,681.64	74.1334	1,681.64	75.1292	1,681.64	75.7628	1,681.64	73.2452	1,681.64	74.0272	1,681.64	66.1104	1,681.64	68.5058	1,681.64	67.5774	1,681.64	62.7062	1,681.64	74.4546	1,681.64	72.3135	1,681.64	75.2493
1,741.7	87.675	1,741.7	87.4986	1,741.7	87.6843	1,741.7	86.7741	1,741.7	87.3756	1,741.7	85.3977	1,741.7	86.5805	1,741.7	83.8483	1,741.7	85.2577	1,741.7	82.2547	1,741.7	83.5349	1,741.7	80.5643	1,741.7	82.048	1,741.7	79.4831	1,741.7	81.2058	1,741.7	78.6826	1,741.7	80.0771	1,741.7	76.3697	1,741.7	77.1823	1,741.7	73.3523	1,741.7	72.5142	1,741.7	74.1208	1,741.7	71.6833	1,741.7	76.0319	1,741.7	73.8417	1,741.7	75.7133	1,741.7	74.4869	1,741.7	72.5642	1,741.7	74.3504	1,741.7	64.2524	1,741.7	71.2103	1,741.7	68.3903	1,741.7	60.0235	1,741.7	75.7665	1,741.7	70.7037	1,741.7	75.9425
1,803.22	87.9394	1,803.22	87.8904	1,803.22	87.8661	1,803.22	87.0462	1,803.22	87.7053	1,803.22	85.467	1,803.22	86.8855	1,803.22	84.202	1,803.22	85.5958	1,803.22	83.0516	1,803.22	84.375	1,803.22	81.3345	1,803.22	82.8574	1,803.22	80.2507	1,803.22	81.279	1,803.22	79.4315	1,803.22	80.3191	1,803.22	76.9809	1,803.22	78.7841	1,803.22	73.4665	1,803.22	76.1395	1,803.22	72.5912	1,803.22	71.7256	1,803.22	74.3215	1,803.22	71.5399	1,803.22	74.5572	1,803.22	75.3733	1,803.22	74.1344	1,803.22	76.4561	1,803.22	70.3745	1,803.22	73.189	1,803.22	64.184	1,803.22	62.7466	1,803.22	72.5599	1,803.22	65.1989	1,803.22	71.0603
1,866.21	87.8507	1,866.21	87.7408	1,866.21	87.5253	1,866.21	87.1787	1,866.21	86.9058	1,866.21	86.0047	1,866.21	86.2034	1,866.21	84.5147	1,866.21	84.687	1,866.21	83.002	1,866.21	82.7479	1,866.21	81.7633	1,866.21	82.0355	1,866.21	81.1583	1,866.21	81.1388	1,866.21	80.6729	1,866.21	79.8266	1,866.21	78.697	1,866.21	79.1552	1,866.21	74.4999	1,866.21	77.801	1,866.21	73.8173	1,866.21	74.1986	1,866.21	75.2163	1,866.21	70.4207	1,866.21	74.8897	1,866.21	73.278	1,866.21	74.1215	1,866.21	76.4591	1,866.21	71.6769	1,866.21	75.6818	1,866.21	64.2619	1,866.21	67.3773	1,866.21	67.4757	1,866.21	65.8464	1,866.21	71.5812
1,932.13	87.8561	1,932.13	87.0923	1,932.13	87.2998	1,932.13	85.9953	1,932.13	85.9641	1,932.13	85.6322	1,932.13	84.8452	1,932.13	84.9781	1,932.13	83.6459	1,932.13	82.9614	1,932.13	82.3893	1,932.13	81.2042	1,932.13	81.0399	1,932.13	80.662	1,932.13	79.4924	1,932.13	80.223	1,932.13	78.4113	1,932.13	79.6075	1,932.13	77.1145	1,932.13	77.0085	1,932.13	75.6103	1,932.13	73.1706	1,932.13	72.4942	1,932.13	75.3171	1,932.13	69.9076	1,932.13	75.9635	1,932.13	71.8625	1,932.13	74.6553	1,932.13	72.7989	1,932.13	71.187	1,932.13	72.9215	1,932.13	68.8827	1,932.13	67.5158	1,932.13	72.3994	1,932.13	68.3014	1,932.13	74.7637
1,999.51	87.7901	1,999.51	87.2795	1,999.51	87.4913	1,999.51	86.6525	1,999.51	86.6766	1,999.51	85.9187	1,999.51	85.8339	1,999.51	84.4559	1,999.51	84.5777	1,999.51	82.4245	1,999.51	83.2963	1,999.51	80.7548	1,999.51	82.4394	1,999.51	79.7682	1,999.51	81.2598	1,999.51	78.3584	1,999.51	79.4481	1,999.51	78.0172	1,999.51	77.5782	1,999.51	77.8617	1,999.51	74.9427	1,999.51	74.8772	1,999.51	73.2407	1,999.51	72.9292	1,999.51	71.7913	1,999.51	74.2237	1,999.51	72.4766	1,999.51	73.6575	1,999.51	73.142	1,999.51	68.9179	1,999.51	70.3156	1,999.51	69.055	1,999.51	65.1768	1,999.51	75.6905	1,999.51	68.1069	1,999.51	75.4216
2,069.82	88.4497	2,069.82	87.8651	2,069.82	88.5061	2,069.82	87.8928	2,069.82	87.8569	2,069.82	87.2956	2,069.82	86.8549	2,069.82	85.7415	2,069.82	85.6404	2,069.82	84.4593	2,069.82	84.4885	2,069.82	82.4365	2,069.82	82.8077	2,069.82	80.9128	2,069.82	81.1849	2,069.82	80.2202	2,069.82	79.8347	2,069.82	77.8509	2,069.82	78.1172	2,069.82	76.4837	2,069.82	76.4663	2,069.82	75.0164	2,069.82	74.8468	2,069.82	73.047	2,069.82	72.3029	2,069.82	71.7145	2,069.82	71.9869	2,069.82	71.1997	2,069.82	71.5494	2,069.82	68.376	2,069.82	67.4783	2,069.82	64.374	2,069.82	55.3253	2,069.82	72.5118	2,069.82	70.9487	2,069.82	73.7406
2,143.07	87.9139	2,143.07	87.8646	2,143.07	87.5854	2,143.07	87.5065	2,143.07	86.8398	2,143.07	86.5018	2,143.07	85.7231	2,143.07	85.2227	2,143.07	85.021	2,143.07	84.3647	2,143.07	83.443	2,143.07	83.1611	2,143.07	81.512	2,143.07	82.1486	2,143.07	80.4664	2,143.07	81.0267	2,143.07	79.0449	2,143.07	77.8404	2,143.07	76.9091	2,143.07	74.7268	2,143.07	74.6069	2,143.07	76.3767	2,143.07	74.6379	2,143.07	75.6159	2,143.07	73.3245	2,143.07	73.9446	2,143.07	71.7888	2,143.07	74.7074	2,143.07	74.7543	2,143.07	70.86	2,143.07	70.6695	2,143.07	63.6537	2,143.07	65.5837	2,143.07	71.5234	2,143.07	64.3314	2,143.07	75.0386
2,219.24	87.0767	2,219.24	87.297	2,219.24	86.4861	2,219.24	86.9289	2,219.24	85.787	2,219.24	85.6725	2,219.24	85.6632	2,219.24	84.7668	2,219.24	84.2045	2,219.24	83.3204	2,219.24	82.0167	2,219.24	81.4444	2,219.24	81.5758	2,219.24	80.2926	2,219.24	80.8369	2,219.24	79.9133	2,219.24	79.4888	2,219.24	79.1677	2,219.24	78.4698	2,219.24	75.5965	2,219.24	77.3939	2,219.24	71.1122	2,219.24	73.4386	2,219.24	73.7225	2,219.24	70.567	2,219.24	76.5013	2,219.24	73.417	2,219.24	77.5959	2,219.24	75.1366	2,219.24	71.7052	2,219.24	72.5125	2,219.24	70.9839	2,219.24	63.8287	2,219.24	71.7939	2,219.24	64.4363	2,219.24	72.8092
2,296.88	87.2635	2,296.88	86.9857	2,296.88	87.836	2,296.88	86.315	2,296.88	87.7854	2,296.88	85.7013	2,296.88	87.0859	2,296.88	85.4349	2,296.88	86.8603	2,296.88	84.4685	2,296.88	85.8928	2,296.88	83.0049	2,296.88	83.8242	2,296.88	81.6239	2,296.88	81.4175	2,296.88	78.4738	2,296.88	79.3869	2,296.88	76.8679	2,296.88	78.2989	2,296.88	76.7322	2,296.88	76.8901	2,296.88	71.8168	2,296.88	75.5685	2,296.88	68.1625	2,296.88	74.6845	2,296.88	74.488	2,296.88	74.3775	2,296.88	77.5346	2,296.88	75.4512	2,296.88	71.4617	2,296.88	74.6254	2,296.88	69.8127	2,296.88	69.6653	2,296.88	71.9155	2,296.88	72.07	2,296.88	74.4664
2,378.91	87.9062	2,378.91	87.7296	2,378.91	87.171	2,378.91	87.1852	2,378.91	86.7619	2,378.91	86.5938	2,378.91	87.512	2,378.91	85.795	2,378.91	87.0414	2,378.91	84.6893	2,378.91	85.4685	2,378.91	83.6742	2,378.91	84.7593	2,378.91	82.0077	2,378.91	83.2291	2,378.91	81.379	2,378.91	81.2689	2,378.91	79.9374	2,378.91	80.8574	2,378.91	75.9759	2,378.91	78.5025	2,378.91	76.1012	2,378.91	75.2543	2,378.91	74.2181	2,378.91	75.5468	2,378.91	69.6418	2,378.91	73.3759	2,378.91	71.3766	2,378.91	74.6465	2,378.91	70.9805	2,378.91	75.1049	2,378.91	69.0806	2,378.91	70.7929	2,378.91	74.7175	2,378.91	71.889	2,378.91	76.1147
2,462.4	86.4446	2,462.4	86.2296	2,462.4	86.4482	2,462.4	86.3145	2,462.4	85.9245	2,462.4	86.2451	2,462.4	85.7786	2,462.4	85.9357	2,462.4	85.2869	2,462.4	85.0861	2,462.4	84.6593	2,462.4	84.0312	2,462.4	83.596	2,462.4	82.3789	2,462.4	81.9237	2,462.4	80.7336	2,462.4	79.8714	2,462.4	79.7675	2,462.4	78.4943	2,462.4	77.5239	2,462.4	76.8698	2,462.4	74.3672	2,462.4	73.9631	2,462.4	75.373	2,462.4	73.4823	2,462.4	75.0425	2,462.4	74.2275	2,462.4	72.7413	2,462.4	72.0136	2,462.4	70.6506	2,462.4	70.9915	2,462.4	69.9585	2,462.4	64.1626	2,462.4	72.0942	2,462.4	72.4609	2,462.4	74.3054
2,548.83	85.4025	2,548.83	85.5986	2,548.83	85.121	2,548.83	85.4053	2,548.83	85.3789	2,548.83	85.1569	2,548.83	85.196	2,548.83	84.5112	2,548.83	84.6144	2,548.83	84.0886	2,548.83	83.9166	2,548.83	82.9261	2,548.83	83.2453	2,548.83	81.0655	2,548.83	81.9298	2,548.83	79.3177	2,548.83	79.6911	2,548.83	78.6171	2,548.83	77.7776	2,548.83	77.3381	2,548.83	76.787	2,548.83	73.9146	2,548.83	74.2728	2,548.83	72.2797	2,548.83	71.7319	2,548.83	74.8595	2,548.83	70.686	2,548.83	74.1539	2,548.83	69.9586	2,548.83	69.4897	2,548.83	70.0397	2,548.83	62.446	2,548.83	67.0327	2,548.83	73.5045	2,548.83	67.1226	2,548.83	75.5488
2,639.65	85.4019	2,639.65	85.5816	2,639.65	85.4622	2,639.65	85.838	2,639.65	85.439	2,639.65	85.523	2,639.65	85.4365	2,639.65	84.8811	2,639.65	85.2879	2,639.65	83.8896	2,639.65	84.4372	2,639.65	82.6584	2,639.65	83.2431	2,639.65	80.8196	2,639.65	82.0143	2,639.65	78.852	2,639.65	80.1706	2,639.65	77.9282	2,639.65	77.917	2,639.65	76.2092	2,639.65	77.1393	2,639.65	74.3781	2,639.65	75.2525	2,639.65	73.7701	2,639.65	71.9239	2,639.65	72.1421	2,639.65	71.5376	2,639.65	71.2892	2,639.65	71.0617	2,639.65	69.3858	2,639.65	70.9384	2,639.65	65.2959	2,639.65	66.4174	2,639.65	73.4442	2,639.65	66.9987	2,639.65	74.053
2,731.93	84.9914	2,731.93	85.4123	2,731.93	84.898	2,731.93	85.6738	2,731.93	85.1921	2,731.93	85.6608	2,731.93	85.0879	2,731.93	84.9617	2,731.93	84.9173	2,731.93	83.8758	2,731.93	84.2017	2,731.93	82.7869	2,731.93	82.8152	2,731.93	81.0256	2,731.93	81.1133	2,731.93	79.4173	2,731.93	79.5441	2,731.93	77.5877	2,731.93	77.749	2,731.93	75.575	2,731.93	76.2299	2,731.93	74.7852	2,731.93	74.865	2,731.93	70.3701	2,731.93	72.1808	2,731.93	72.6738	2,731.93	70.6549	2,731.93	73.9325	2,731.93	70.4124	2,731.93	69.8086	2,731.93	72.1228	2,731.93	59.5487	2,731.93	63.2448	2,731.93	70.7515	2,731.93	67.2059	2,731.93	72.2693
2,828.61	84.616	2,828.61	84.8885	2,828.61	84.5582	2,828.61	85.3903	2,828.61	84.7236	2,828.61	85.475	2,828.61	85.0459	2,828.61	85.0774	2,828.61	84.8409	2,828.61	83.7448	2,828.61	84.3556	2,828.61	82.1995	2,828.61	83.1381	2,828.61	80.4267	2,828.61	81.1407	2,828.61	78.7836	2,828.61	79.1689	2,828.61	77.0641	2,828.61	77.5182	2,828.61	74.7064	2,828.61	75.2073	2,828.61	73.6271	2,828.61	74.1711	2,828.61	73.3406	2,828.61	72.2059	2,828.61	69.8811	2,828.61	71.7501	2,828.61	72.3975	2,828.61	71.8659	2,828.61	72.6031	2,828.61	72.7203	2,828.61	64.625	2,828.61	68.8899	2,828.61	72.0657	2,828.61	60.7543	2,828.61	71.1049
2,928.22	83.9578	2,928.22	84.5827	2,928.22	84.0408	2,928.22	85.2893	2,928.22	84.4787	2,928.22	85.4485	2,928.22	84.8535	2,928.22	84.8073	2,928.22	84.5029	2,928.22	83.7694	2,928.22	83.6451	2,928.22	82.3298	2,928.22	82.5023	2,928.22	80.3527	2,928.22	80.6255	2,928.22	78.1918	2,928.22	78.4208	2,928.22	75.91	2,928.22	76.741	2,928.22	74.4285	2,928.22	74.841	2,928.22	73.1084	2,928.22	73.124	2,928.22	72.3141	2,928.22	71.416	2,928.22	69.6271	2,928.22	68.5084	2,928.22	72.3967	2,928.22	69.4888	2,928.22	73.6182	2,928.22	72.7392	2,928.22	65.2672	2,928.22	70.3796	2,928.22	67.7532	2,928.22	58.1686	2,928.22	70.6992
3,030.76	83.634	3,030.76	84.0885	3,030.76	83.3915	3,030.76	84.7078	3,030.76	84.0339	3,030.76	84.9118	3,030.76	84.5271	3,030.76	84.09	3,030.76	84.3844	3,030.76	82.7669	3,030.76	83.2592	3,030.76	81.2058	3,030.76	81.7097	3,030.76	79.4089	3,030.76	80.6997	3,030.76	76.8419	3,030.76	78.4552	3,030.76	74.9111	3,030.76	75.1996	3,030.76	73.9021	3,030.76	74.0995	3,030.76	70.7114	3,030.76	72.376	3,030.76	71.4068	3,030.76	70.2392	3,030.76	71.302	3,030.76	70.8021	3,030.76	69.7397	3,030.76	67.6798	3,030.76	72.4915	3,030.76	70.8786	3,030.76	65.2332	3,030.76	71.1369	3,030.76	68.5791	3,030.76	62.5771	3,030.76	71.5733
3,137.7	83.7736	3,137.7	84.2946	3,137.7	83.7112	3,137.7	84.7324	3,137.7	84.0279	3,137.7	84.7898	3,137.7	84.406	3,137.7	84.2976	3,137.7	84.3191	3,137.7	82.6494	3,137.7	83.3536	3,137.7	80.8292	3,137.7	81.5368	3,137.7	79.2271	3,137.7	79.5898	3,137.7	76.8194	3,137.7	78.039	3,137.7	74.5302	3,137.7	75.5143	3,137.7	73.511	3,137.7	73.7326	3,137.7	71.6442	3,137.7	72.6592	3,137.7	68.5979	3,137.7	69.1394	3,137.7	68.9298	3,137.7	68.9611	3,137.7	68.4711	3,137.7	67.3624	3,137.7	70.3249	3,137.7	70.3797	3,137.7	67.1496	3,137.7	70.0114	3,137.7	70.3223	3,137.7	62.8198	3,137.7	72.0049
3,249.02	83.6794	3,249.02	84.183	3,249.02	83.451	3,249.02	84.5598	3,249.02	83.7799	3,249.02	84.6514	3,249.02	83.9031	3,249.02	83.9838	3,249.02	83.6465	3,249.02	82.6878	3,249.02	82.6766	3,249.02	80.6761	3,249.02	80.6853	3,249.02	78.8123	3,249.02	78.6717	3,249.02	76.7709	3,249.02	77.1267	3,249.02	73.7248	3,249.02	74.6232	3,249.02	72.8972	3,249.02	72.0483	3,249.02	70.8976	3,249.02	71.8028	3,249.02	68.7842	3,249.02	67.2849	3,249.02	70.355	3,249.02	66.9272	3,249.02	68.1561	3,249.02	66.606	3,249.02	70.4745	3,249.02	67.8903	3,249.02	68.0703	3,249.02	68.9753	3,249.02	68.2029	3,249.02	60.576	3,249.02	69.93
3,363.28	83.9059	3,363.28	84.3206	3,363.28	83.75	3,363.28	84.463	3,363.28	84.0642	3,363.28	84.4317	3,363.28	84.0021	3,363.28	83.7566	3,363.28	83.5243	3,363.28	82.2572	3,363.28	82.3708	3,363.28	80.295	3,363.28	80.7402	3,363.28	78.6929	3,363.28	78.5849	3,363.28	76.7689	3,363.28	76.2515	3,363.28	74.0802	3,363.28	73.9073	3,363.28	72.19	3,363.28	71.2883	3,363.28	71.1101	3,363.28	70.672	3,363.28	69.5467	3,363.28	67.5636	3,363.28	69.6156	3,363.28	66.1908	3,363.28	66.9712	3,363.28	67.6712	3,363.28	70.4306	3,363.28	66.039	3,363.28	67.1404	3,363.28	68.9275	3,363.28	66.2702	3,363.28	62.1892	3,363.28	68.3923
3,481.93	83.7995	3,481.93	84.1625	3,481.93	84.2218	3,481.93	84.4607	3,481.93	83.9917	3,481.93	83.9544	3,481.93	83.7983	3,481.93	83.6933	3,481.93	83.4523	3,481.93	82.082	3,481.93	82.5738	3,481.93	80.4041	3,481.93	80.6455	3,481.93	78.7546	3,481.93	77.8453	3,481.93	76.9495	3,481.93	76.3534	3,481.93	74.9965	3,481.93	74.7563	3,481.93	73.1484	3,481.93	71.2502	3,481.93	71.8042	3,481.93	69.6927	3,481.93	66.8279	3,481.93	69.3901	3,481.93	70.3012	3,481.93	65.9823	3,481.93	69.1491	3,481.93	67.6746	3,481.93	69.398	3,481.93	65.5994	3,481.93	64.9372	3,481.93	67.9353	3,481.93	67.302	3,481.93	60.9574	3,481.93	69.5791
3,604.98	84.596	3,604.98	84.6024	3,604.98	84.4912	3,604.98	84.6568	3,604.98	84.708	3,604.98	84.7387	3,604.98	84.4634	3,604.98	83.5476	3,604.98	83.674	3,604.98	83.0641	3,604.98	82.4997	3,604.98	81.4291	3,604.98	80.654	3,604.98	78.9541	3,604.98	78.3191	3,604.98	77.0584	3,604.98	76.0014	3,604.98	75.1303	3,604.98	74.8604	3,604.98	72.3571	3,604.98	72.4474	3,604.98	71.5557	3,604.98	70.7889	3,604.98	68.0363	3,604.98	68.5638	3,604.98	68.9593	3,604.98	62.8545	3,604.98	69.3078	3,604.98	67.6014	3,604.98	70.2199	3,604.98	65.4715	3,604.98	68.4284	3,604.98	68.9916	3,604.98	68.8013	3,604.98	59.6882	3,604.98	71.1977
3,732.42	85.0471	3,732.42	84.7145	3,732.42	85.1954	3,732.42	84.5581	3,732.42	85.3578	3,732.42	84.5851	3,732.42	84.8271	3,732.42	83.7037	3,732.42	83.8967	3,732.42	82.4347	3,732.42	82.1826	3,732.42	80.7356	3,732.42	80.7505	3,732.42	78.9221	3,732.42	79.0939	3,732.42	77.0047	3,732.42	77.4684	3,732.42	75.1111	3,732.42	75.3315	3,732.42	72.5126	3,732.42	72.9449	3,732.42	71.4413	3,732.42	70.4999	3,732.42	69.1825	3,732.42	69.3916	3,732.42	67.1232	3,732.42	66.0885	3,732.42	67.4657	3,732.42	66.0499	3,732.42	69.4453	3,732.42	64.1372	3,732.42	68.5973	3,732.42	70.0572	3,732.42	69.3629	3,732.42	63.5208	3,732.42	70.1442
3,864.26	85.6642	3,864.26	85.1745	3,864.26	86.0027	3,864.26	84.7566	3,864.26	85.1966	3,864.26	83.2293	3,864.26	84.801	3,864.26	82.8267	3,864.26	84.0056	3,864.26	81.6318	3,864.26	82.7452	3,864.26	80.2833	3,864.26	81.1615	3,864.26	78.9706	3,864.26	79.1619	3,864.26	77.7838	3,864.26	77.8735	3,864.26	75.7612	3,864.26	76.2254	3,864.26	73.2371	3,864.26	73.4383	3,864.26	71.3109	3,864.26	70.3175	3,864.26	70.7735	3,864.26	71.7385	3,864.26	66.4105	3,864.26	68.2135	3,864.26	67.2664	3,864.26	66.0751	3,864.26	68.1226	3,864.26	65.0452	3,864.26	67.1387	3,864.26	68.9225	3,864.26	67.3668	3,864.26	63.0476	3,864.26	69.4882
4,000.49	86.3136	4,000.49	85.7346	4,000.49	86.1673	4,000.49	84.7947	4,000.49	85.4794	4,000.49	83.9698	4,000.49	84.6734	4,000.49	82.5695	4,000.49	83.9458	4,000.49	82.3119	4,000.49	82.5987	4,000.49	80.7007	4,000.49	81.0505	4,000.49	78.3447	4,000.49	79.969	4,000.49	77.2978	4,000.49	77.9	4,000.49	75.7077	4,000.49	76.4185	4,000.49	73.4535	4,000.49	74.5356	4,000.49	72.0338	4,000.49	71.6336	4,000.49	68.7987	4,000.49	69.9161	4,000.49	66.8002	4,000.49	67.9089	4,000.49	69.0522	4,000.49	69.2609	4,000.49	67.649	4,000.49	65.9402	4,000.49	67.0727	4,000.49	67.4244	4,000.49	65.1802	4,000.49	62.224	4,000.49	70.438
4,141.11	86.6183	4,141.11	86.138	4,141.11	86.0873	4,141.11	84.7114	4,141.11	85.7418	4,141.11	85.1027	4,141.11	84.231	4,141.11	84.425	4,141.11	83.0775	4,141.11	82.5649	4,141.11	81.474	4,141.11	81.7551	4,141.11	81.0416	4,141.11	80.1992	4,141.11	80.1055	4,141.11	76.9824	4,141.11	78.6517	4,141.11	75.3586	4,141.11	76.196	4,141.11	72.3933	4,141.11	73.9299	4,141.11	70.0008	4,141.11	71.8423	4,141.11	69.1161	4,141.11	70.3359	4,141.11	67.9054	4,141.11	67.8292	4,141.11	69.1499	4,141.11	67.5511	4,141.11	66.3566	4,141.11	66.1767	4,141.11	68.6545	4,141.11	67.9946	4,141.11	68.6923	4,141.11	61.8837	4,141.11	69.355
4,287.6	86.8581	4,287.6	85.2467	4,287.6	87.6918	4,287.6	84.3756	4,287.6	85.3144	4,287.6	82.3851	4,287.6	84.1149	4,287.6	82.1383	4,287.6	83.3262	4,287.6	81.4859	4,287.6	83.7145	4,287.6	81.07	4,287.6	82.3915	4,287.6	78.7733	4,287.6	80.7517	4,287.6	78.3901	4,287.6	79.0751	4,287.6	75.297	4,287.6	77.1483	4,287.6	73.0827	4,287.6	74.5284	4,287.6	71.42	4,287.6	72.1259	4,287.6	70.1426	4,287.6	71.9418	4,287.6	68.5226	4,287.6	67.5479	4,287.6	69.6366	4,287.6	66.0347	4,287.6	67.0272	4,287.6	68.3677	4,287.6	69.1693	4,287.6	69.4486	4,287.6	69.183	4,287.6	66.721	4,287.6	70.7013
4,438.48	87.2354	4,438.48	86.7308	4,438.48	86.6666	4,438.48	84.661	4,438.48	85.929	4,438.48	83.9018	4,438.48	83.9592	4,438.48	83.3053	4,438.48	83.8948	4,438.48	84.3967	4,438.48	83.6166	4,438.48	82.4082	4,438.48	82.0983	4,438.48	80.9172	4,438.48	81.1369	4,438.48	79.4792	4,438.48	79.6192	4,438.48	76.9959	4,438.48	77.5667	4,438.48	74.5726	4,438.48	75.3102	4,438.48	73.3623	4,438.48	73.0467	4,438.48	70.6356	4,438.48	70.37	4,438.48	61.1039	4,438.48	70.0281	4,438.48	68.791	4,438.48	65.9708	4,438.48	66.781	4,438.48	68.4456	4,438.48	69.4538	4,438.48	68.5545	4,438.48	64.7578	4,438.48	66.0631	4,438.48	69.3822
4,595.21	87.59	4,595.21	86.1969	4,595.21	87.1347	4,595.21	84.9617	4,595.21	85.3504	4,595.21	84.4311	4,595.21	83.7373	4,595.21	84.9275	4,595.21	82.9878	4,595.21	83.1508	4,595.21	82.5453	4,595.21	82.805	4,595.21	83.3224	4,595.21	81.1024	4,595.21	81.8626	4,595.21	77.1124	4,595.21	79.6774	4,595.21	74.8471	4,595.21	76.9646	4,595.21	73.818	4,595.21	75.1761	4,595.21	70.993	4,595.21	72.7209	4,595.21	70.3873	4,595.21	70.1739	4,595.21	69.1398	4,595.21	69.5365	4,595.21	69.4898	4,595.21	67.9291	4,595.21	67.9253	4,595.21	68.5706	4,595.21	69.0671	4,595.21	68.0982	4,595.21	65.0853	4,595.21	67.8015	4,595.21	69.0593
4,756.35	87.5205	4,756.35	85.8742	4,756.35	87.6777	4,756.35	84.4959	4,756.35	85.0512	4,756.35	82.6308	4,756.35	84.0779	4,756.35	83.3499	4,756.35	83.6167	4,756.35	83.7591	4,756.35	84.6129	4,756.35	82.2503	4,756.35	83.3269	4,756.35	80.304	4,756.35	81.6042	4,756.35	79.2449	4,756.35	79.441	4,756.35	76.0599	4,756.35	76.9087	4,756.35	73.4631	4,756.35	74.4405	4,756.35	70.0034	4,756.35	71.6188	4,756.35	68.1088	4,756.35	71.8912	4,756.35	66.3069	4,756.35	69.3372	4,756.35	63.126	4,756.35	65.562	4,756.35	65.6252	4,756.35	68.8971	4,756.35	66.7179	4,756.35	66.2854	4,756.35	67.3169	4,756.35	64.162	4,756.35	70.5358
4,924.8	87.8579	4,924.8	87.3611	4,924.8	86.55	4,924.8	84.6534	4,924.8	86.2357	4,924.8	85.2888	4,924.8	84.1375	4,924.8	84.837	4,924.8	84.8426	4,924.8	84.4007	4,924.8	83.9455	4,924.8	82.5638	4,924.8	83.477	4,924.8	80.0777	4,924.8	81.6975	4,924.8	77.498	4,924.8	79.1	4,924.8	76.5895	4,924.8	76.9779	4,924.8	73.6165	4,924.8	73.9227	4,924.8	70.4284	4,924.8	72.1072	4,924.8	71.6608	4,924.8	71.4378	4,924.8	67.3361	4,924.8	69.9764	4,924.8	67.2422	4,924.8	66.3223	4,924.8	63.6223	4,924.8	65.7794	4,924.8	67.2012	4,924.8	67.3875	4,924.8	54.9193	4,924.8	63.1931	4,924.8	66.1517
5,097.66	87.0679	5,097.66	85.0214	5,097.66	87.5283	5,097.66	85.3178	5,097.66	84.9385	5,097.66	84.7935	5,097.66	84.5045	5,097.66	85.2595	5,097.66	83.5553	5,097.66	84.2137	5,097.66	84.145	5,097.66	83.0059	5,097.66	83.3269	5,097.66	80.7266	5,097.66	81.413	5,097.66	78.5017	5,097.66	79.5999	5,097.66	75.4361	5,097.66	76.4686	5,097.66	71.9032	5,097.66	73.5302	5,097.66	71.4352	5,097.66	70.618	5,097.66	67.7447	5,097.66	70.1071	5,097.66	68.5845	5,097.66	69.6154	5,097.66	67.5495	5,097.66	66.5813	5,097.66	66.4726	5,097.66	68.5805	5,097.66	67.5087	5,097.66	62.3037	5,097.66	59.6847	5,097.66	66.5329	5,097.66	63.9762
5,277.83	86.9764	5,277.83	86.6919	5,277.83	86.2978	5,277.83	84.8009	5,277.83	85.6926	5,277.83	84.8936	5,277.83	84.5211	5,277.83	84.5494	5,277.83	84.4584	5,277.83	83.8635	5,277.83	84.1913	5,277.83	81.5116	5,277.83	82.9284	5,277.83	79.4319	5,277.83	80.87	5,277.83	77.7199	5,277.83	77.8731	5,277.83	74.4109	5,277.83	75.5965	5,277.83	72.3654	5,277.83	73.9061	5,277.83	68.264	5,277.83	69.9096	5,277.83	67.6451	5,277.83	66.1459	5,277.83	67.8846	5,277.83	68.2999	5,277.83	65.7199	5,277.83	64.9961	5,277.83	66.0716	5,277.83	66.1032	5,277.83	66.2234	5,277.83	60.8539	5,277.83	51.0551	5,277.83	63.5617	5,277.83	63.738
5,463.87	86.7198	5,463.87	85.6754	5,463.87	86.8334	5,463.87	85.7821	5,463.87	85.4025	5,463.87	85.1226	5,463.87	84.6057	5,463.87	84.6021	5,463.87	83.9956	5,463.87	82.6787	5,463.87	83.4557	5,463.87	80.8214	5,463.87	81.912	5,463.87	79.3031	5,463.87	80.0255	5,463.87	75.6336	5,463.87	77.5311	5,463.87	74.377	5,463.87	74.6627	5,463.87	72.2643	5,463.87	71.332	5,463.87	70.4366	5,463.87	70.2673	5,463.87	68.8955	5,463.87	66.6594	5,463.87	68.2634	5,463.87	67.8621	5,463.87	67.2005	5,463.87	63.2117	5,463.87	65.8037	5,463.87	66.1625	5,463.87	67.1252	5,463.87	61.9405	5,463.87	61.6776	5,463.87	62.7035	5,463.87	64.4482
5,657.23	86.1298	5,657.23	86.1362	5,657.23	85.8345	5,657.23	85.4661	5,657.23	85.3521	5,657.23	84.9666	5,657.23	84.3514	5,657.23	84.402	5,657.23	83.7164	5,657.23	83.2726	5,657.23	82.8516	5,657.23	81.8958	5,657.23	81.1295	5,657.23	79.0591	5,657.23	78.5945	5,657.23	76.9479	5,657.23	76.1353	5,657.23	74.4307	5,657.23	73.5709	5,657.23	71.1259	5,657.23	70.6193	5,657.23	68.2244	5,657.23	66.8504	5,657.23	67.0015	5,657.23	64.917	5,657.23	65.7562	5,657.23	65.5942	5,657.23	64.3477	5,657.23	60.6624	5,657.23	65.7824	5,657.23	63.6451	5,657.23	61.9325	5,657.23	54.4522	5,657.23	61.8456	5,657.23	65.0019	5,657.23	65.0803
5,856.45	86.2765	5,856.45	86.5781	5,856.45	86.0647	5,856.45	86.353	5,856.45	85.5938	5,856.45	85.4973	5,856.45	84.4484	5,856.45	84.5513	5,856.45	83.3568	5,856.45	83.5609	5,856.45	82.2075	5,856.45	81.6606	5,856.45	80.1188	5,856.45	78.9624	5,856.45	77.7792	5,856.45	76.3054	5,856.45	75.4089	5,856.45	74.459	5,856.45	74.053	5,856.45	72.5513	5,856.45	70.323	5,856.45	68.9579	5,856.45	69.2292	5,856.45	66.7241	5,856.45	65.9067	5,856.45	65.4008	5,856.45	64.4032	5,856.45	65.5306	5,856.45	62.06	5,856.45	67.2973	5,856.45	63.6109	5,856.45	64.3388	5,856.45	62.0449	5,856.45	61.6812	5,856.45	55.7592	5,856.45	65.5677
6,062.99	86.4524	6,062.99	87.0782	6,062.99	86.2697	6,062.99	86.8381	6,062.99	86.3397	6,062.99	85.6693	6,062.99	85.2628	6,062.99	84.7155	6,062.99	83.7335	6,062.99	83.5094	6,062.99	82.266	6,062.99	82.0737	6,062.99	80.5385	6,062.99	80.0102	6,062.99	78.031	6,062.99	77.8048	6,062.99	76.2283	6,062.99	75.399	6,062.99	73.7551	6,062.99	73.3027	6,062.99	70.6677	6,062.99	70.3307	6,062.99	67.9787	6,062.99	68.1051	6,062.99	65.7306	6,062.99	65.0231	6,062.99	63.5357	6,062.99	66.2543	6,062.99	60.3109	6,062.99	66.6835	6,062.99	63.938	6,062.99	64.2491	6,062.99	59.8415	6,062.99	59.6002	6,062.99	59.1617	6,062.99	66.557
6,276.86	86.4613	6,276.86	87.1528	6,276.86	86.4528	6,276.86	86.9262	6,276.86	86.5453	6,276.86	85.9293	6,276.86	85.8867	6,276.86	84.9392	6,276.86	84.0734	6,276.86	84.3542	6,276.86	82.734	6,276.86	83.281	6,276.86	80.9218	6,276.86	80.8572	6,276.86	79.2295	6,276.86	77.8136	6,276.86	77.1348	6,276.86	76.065	6,276.86	74.542	6,276.86	74.1869	6,276.86	70.9252	6,276.86	70.4174	6,276.86	69.6445	6,276.86	69.1704	6,276.86	68.2135	6,276.86	66.6659	6,276.86	63.5428	6,276.86	64.2063	6,276.86	62.9211	6,276.86	66.1744	6,276.86	61.3449	6,276.86	61.7739	6,276.86	63.7932	6,276.86	61.4203	6,276.86	55.494	6,276.86	65.5244
6,498.05	86.4336	6,498.05	87.4922	6,498.05	86.3168	6,498.05	87.3857	6,498.05	86.7363	6,498.05	86.3562	6,498.05	85.6814	6,498.05	85.5417	6,498.05	83.9451	6,498.05	84.7983	6,498.05	82.8264	6,498.05	83.3619	6,498.05	81.3251	6,498.05	81.0978	6,498.05	79.1502	6,498.05	78.8772	6,498.05	76.9399	6,498.05	75.6921	6,498.05	73.9978	6,498.05	72.9398	6,498.05	70.9013	6,498.05	70.2797	6,498.05	68.5732	6,498.05	68.8671	6,498.05	66.1341	6,498.05	65.7792	6,498.05	64.7941	6,498.05	63.2544	6,498.05	62.5217	6,498.05	66.9099	6,498.05	63.8474	6,498.05	58.8175	6,498.05	61.5395	6,498.05	59.9251	6,498.05	53.5696	6,498.05	64.7267
6,726.56	86.5131	6,726.56	87.5756	6,726.56	86.5924	6,726.56	87.3988	6,726.56	86.7907	6,726.56	86.1619	6,726.56	85.6586	6,726.56	85.265	6,726.56	83.6207	6,726.56	84.4342	6,726.56	82.4957	6,726.56	82.9895	6,726.56	81.1282	6,726.56	80.6111	6,726.56	79.4081	6,726.56	78.0226	6,726.56	76.8279	6,726.56	74.8593	6,726.56	73.8165	6,726.56	73.1181	6,726.56	70.332	6,726.56	69.3297	6,726.56	68.0661	6,726.56	68.5079	6,726.56	66.5757	6,726.56	64.9877	6,726.56	64.2362	6,726.56	61.8231	6,726.56	60.3417	6,726.56	65.2813	6,726.56	61.0735	6,726.56	59.2371	6,726.56	63.6425	6,726.56	56.4746	6,726.56	38.5013	6,726.56	64.5902
6,963.87	85.9963	6,963.87	87.0027	6,963.87	86.2393	6,963.87	86.8362	6,963.87	86.5114	6,963.87	85.5863	6,963.87	84.9725	6,963.87	84.7401	6,963.87	83.07	6,963.87	84.0744	6,963.87	82.3379	6,963.87	82.7186	6,963.87	80.8866	6,963.87	80.1241	6,963.87	79.0102	6,963.87	77.9781	6,963.87	76.3644	6,963.87	75.2096	6,963.87	73.9139	6,963.87	72.5236	6,963.87	70.4133	6,963.87	69.3287	6,963.87	67.5397	6,963.87	67.9816	6,963.87	65.9066	6,963.87	66.0477	6,963.87	65.0332	6,963.87	64.8223	6,963.87	61.4937	6,963.87	65.5146	6,963.87	63.381	6,963.87	59.5846	6,963.87	62.077	6,963.87	53.1961	6,963.87	55.9571	6,963.87	62.135
7,209.96	85.58	7,209.96	86.6553	7,209.96	86.0833	7,209.96	86.7139	7,209.96	86.2635	7,209.96	85.1112	7,209.96	84.9096	7,209.96	84.2584	7,209.96	82.5459	7,209.96	83.8122	7,209.96	81.871	7,209.96	82.4651	7,209.96	80.7418	7,209.96	79.9118	7,209.96	79.5908	7,209.96	77.785	7,209.96	76.6314	7,209.96	74.9468	7,209.96	74.1088	7,209.96	71.7341	7,209.96	70.592	7,209.96	68.3945	7,209.96	67.3652	7,209.96	66.8795	7,209.96	64.3852	7,209.96	65.0117	7,209.96	64.5573	7,209.96	64.0656	7,209.96	62.6106	7,209.96	65.5302	7,209.96	63.3214	7,209.96	60.2345	7,209.96	63.1726	7,209.96	50.9993	7,209.96	54.2724	7,209.96	60.6586
7,464.84	85.5007	7,464.84	86.4622	7,464.84	85.9149	7,464.84	86.6525	7,464.84	86.1079	7,464.84	85.1462	7,464.84	84.3991	7,464.84	83.7875	7,464.84	82.1199	7,464.84	83.4976	7,464.84	81.9237	7,464.84	81.9661	7,464.84	80.5588	7,464.84	79.5882	7,464.84	79.004	7,464.84	77.0294	7,464.84	76.5553	7,464.84	74.1691	7,464.84	73.3941	7,464.84	71.0576	7,464.84	69.5532	7,464.84	68.3842	7,464.84	67.8433	7,464.84	66.1819	7,464.84	64.8497	7,464.84	64.5677	7,464.84	63.5591	7,464.84	64.9121	7,464.84	61.9924	7,464.84	65.9358	7,464.84	63.6551	7,464.84	57.5775	7,464.84	62.0852	7,464.84	55.9015	7,464.84	52.5764	7,464.84	61.2218
7,727.05	85.8731	7,727.05	86.6885	7,727.05	86.2368	7,727.05	86.6488	7,727.05	86.4579	7,727.05	84.8174	7,727.05	84.4702	7,727.05	83.4401	7,727.05	82.0493	7,727.05	83.3355	7,727.05	81.5597	7,727.05	82.0269	7,727.05	80.5111	7,727.05	79.7943	7,727.05	79.2437	7,727.05	77.1819	7,727.05	76.4848	7,727.05	74.1026	7,727.05	73.5847	7,727.05	70.69	7,727.05	70.3444	7,727.05	68.7957	7,727.05	68.8905	7,727.05	64.6229	7,727.05	63.7066	7,727.05	63.4931	7,727.05	62.6847	7,727.05	65.3495	7,727.05	62.8453	7,727.05	65.7447	7,727.05	63.5195	7,727.05	57.4462	7,727.05	61.6872	7,727.05	56.7728	7,727.05	55.7768	7,727.05	63.1803
7,999.51	86.718	7,999.51	87.0218	7,999.51	86.7646	7,999.51	86.827	7,999.51	86.7307	7,999.51	85.1043	7,999.51	84.6259	7,999.51	83.8072	7,999.51	82.7249	7,999.51	83.7202	7,999.51	81.8691	7,999.51	82.2885	7,999.51	80.8436	7,999.51	79.5711	7,999.51	79.1194	7,999.51	76.9461	7,999.51	76.4009	7,999.51	73.8004	7,999.51	73.7097	7,999.51	69.9294	7,999.51	69.7228	7,999.51	68.7484	7,999.51	67.7707	7,999.51	64.9638	7,999.51	63.329	7,999.51	63.0891	7,999.51	60.8293	7,999.51	65.6822	7,999.51	60.6604	7,999.51	65.7533	7,999.51	64.4868	7,999.51	56.806	7,999.51	60.3595	7,999.51	58.5176	7,999.51	54.8316	7,999.51	63.9124
8,282.23	87.6636	8,282.23	87.4124	8,282.23	87.1938	8,282.23	86.9498	8,282.23	86.7716	8,282.23	85.7989	8,282.23	85.418	8,282.23	84.2982	8,282.23	83.707	8,282.23	83.4754	8,282.23	82.0291	8,282.23	81.9085	8,282.23	80.7954	8,282.23	78.9085	8,282.23	78.9698	8,282.23	76.1684	8,282.23	76.0752	8,282.23	73.2097	8,282.23	72.9846	8,282.23	69.0967	8,282.23	69.1384	8,282.23	68.297	8,282.23	65.9529	8,282.23	62.9154	8,282.23	60.5111	8,282.23	63.8671	8,282.23	61.9604	8,282.23	65.2006	8,282.23	60.669	8,282.23	66.6886	8,282.23	64.0149	8,282.23	57.7374	8,282.23	61.6482	8,282.23	59.5137	8,282.23	51.4705	8,282.23	64.1108
8,573.73	88.3088	8,573.73	87.3599	8,573.73	87.832	8,573.73	86.8839	8,573.73	86.5565	8,573.73	85.9799	8,573.73	85.6561	8,573.73	83.9897	8,573.73	83.94	8,573.73	82.7653	8,573.73	81.9741	8,573.73	80.9581	8,573.73	80.3943	8,573.73	78.35	8,573.73	78.2521	8,573.73	74.961	8,573.73	75.383	8,573.73	72.8648	8,573.73	71.8461	8,573.73	68.6	8,573.73	68.314	8,573.73	66.2061	8,573.73	63.9079	8,573.73	61.8927	8,573.73	61.348	8,573.73	63.9267	8,573.73	60.136	8,573.73	64.1538	8,573.73	58.3722	8,573.73	64.9356	8,573.73	63.759	8,573.73	57.4411	8,573.73	60.054	8,573.73	59.1231	8,573.73	49.963	8,573.73	62.7704
8,876.95	88.3741	8,876.95	87.3228	8,876.95	87.804	8,876.95	86.5999	8,876.95	86.5214	8,876.95	85.5735	8,876.95	85.6662	8,876.95	83.7062	8,876.95	83.79	8,876.95	82.2562	8,876.95	81.6718	8,876.95	80.4164	8,876.95	79.9358	8,876.95	77.7214	8,876.95	77.75	8,876.95	74.1466	8,876.95	74.1091	8,876.95	71.0729	8,876.95	70.0082	8,876.95	67.4886	8,876.95	66.645	8,876.95	63.9733	8,876.95	62.669	8,876.95	59.3098	8,876.95	61.7378	8,876.95	63.4976	8,876.95	59.4029	8,876.95	63.3811	8,876.95	58.3488	8,876.95	64.071	8,876.95	64.0153	8,876.95	56.181	8,876.95	60.8866	8,876.95	58.8273	8,876.95	53.4598	8,876.95	61.3923
9,188.96	88.3181	9,188.96	87.2751	9,188.96	87.7513	9,188.96	86.2799	9,188.96	86.5589	9,188.96	85.0933	9,188.96	85.6046	9,188.96	83.5035	9,188.96	83.5049	9,188.96	81.3526	9,188.96	81.2421	9,188.96	79.049	9,188.96	79.2177	9,188.96	76.6859	9,188.96	76.8657	9,188.96	72.8254	9,188.96	72.4701	9,188.96	69.7637	9,188.96	68.8632	9,188.96	66.5389	9,188.96	66.0006	9,188.96	62.2453	9,188.96	62.3121	9,188.96	58.5567	9,188.96	61.2695	9,188.96	61.6931	9,188.96	55.4073	9,188.96	61.968	9,188.96	57.4246	9,188.96	62.9457	9,188.96	63.6256	9,188.96	57.011	9,188.96	58.795	9,188.96	56.408	9,188.96	54.9081	9,188.96	58.4701
9,514.16	88.339	9,514.16	87.2269	9,514.16	87.9368	9,514.16	86.2771	9,514.16	86.6736	9,514.16	85.0529	9,514.16	85.7285	9,514.16	83.2723	9,514.16	83.4812	9,514.16	80.4612	9,514.16	80.9939	9,514.16	77.3136	9,514.16	78.4149	9,514.16	75.2254	9,514.16	75.5601	9,514.16	70.9312	9,514.16	72.1545	9,514.16	68.1168	9,514.16	67.2399	9,514.16	65.643	9,514.16	66.0099	9,514.16	59.1387	9,514.16	60.0977	9,514.16	60.2483	9,514.16	60.5784	9,514.16	58.2493	9,514.16	52.4916	9,514.16	61.3066	9,514.16	55.5388	9,514.16	60.8888	9,514.16	62.8611	9,514.16	54.8618	9,514.16	58.9604	9,514.16	56.146	9,514.16	57.1172	9,514.16	57.2384
9,849.61	88.5048	9,849.61	87.3557	9,849.61	88.2435	9,849.61	86.4256	9,849.61	86.9672	9,849.61	85.0009	9,849.61	85.7795	9,849.61	82.9072	9,849.61	83.5385	9,849.61	79.6532	9,849.61	80.9125	9,849.61	76.3218	9,849.61	77.636	9,849.61	75.0969	9,849.61	75.3908	9,849.61	70.3637	9,849.61	71.9562	9,849.61	65.5861	9,849.61	65.8951	9,849.61	64.4754	9,849.61	65.0057	9,849.61	54.9984	9,849.61	58.0037	9,849.61	59.5789	9,849.61	59.9387	9,849.61	55.93	9,849.61	47.6404	9,849.61	59.3142	9,849.61	57.3927	9,849.61	59.2038	9,849.61	61.1637	9,849.61	55.3797	9,849.61	58.6282	9,849.61	53.1666	9,849.61	56.2726	9,849.61	54.3513
10,196.8	88.762	10,196.8	87.6346	10,196.8	88.6762	10,196.8	86.4813	10,196.8	87.2664	10,196.8	84.8238	10,196.8	85.9682	10,196.8	82.5349	10,196.8	83.8526	10,196.8	78.8604	10,196.8	80.9144	10,196.8	76.0914	10,196.8	77.2712	10,196.8	75.0855	10,196.8	75.1782	10,196.8	70.6803	10,196.8	72.0866	10,196.8	65.3024	10,196.8	67.2303	10,196.8	64.6568	10,196.8	63.6628	10,196.8	56.9728	10,196.8	60.1887	10,196.8	59.3148	10,196.8	58.5828	10,196.8	57.3771	10,196.8	52.2076	10,196.8	59.2642	10,196.8	56.5444	10,196.8	57.8924	10,196.8	60.5659	10,196.8	51.9681	10,196.8	56.8759	10,196.8	54.1011	10,196.8	50.6302	10,196.8	52.6235
10,555.7	88.7441	10,555.7	87.8579	10,555.7	88.7789	10,555.7	86.5031	10,555.7	87.5625	10,555.7	84.8366	10,555.7	86.156	10,555.7	82.5162	10,555.7	83.7457	10,555.7	78.5572	10,555.7	80.0686	10,555.7	75.4273	10,555.7	76.5494	10,555.7	73.7896	10,555.7	74.4963	10,555.7	71.1882	10,555.7	72.4431	10,555.7	65.3035	10,555.7	67.8582	10,555.7	64.2071	10,555.7	64.0065	10,555.7	56.3852	10,555.7	60.4218	10,555.7	55.4339	10,555.7	57.4928	10,555.7	55.0044	10,555.7	51.408	10,555.7	58.8176	10,555.7	59.584	10,555.7	53.1224	10,555.7	60.4508	10,555.7	50.3539	10,555.7	56.9742	10,555.7	54.9787	10,555.7	53.1793	10,555.7	49.6391
10,927.7	88.5599	10,927.7	87.831	10,927.7	88.6433	10,927.7	86.4996	10,927.7	87.485	10,927.7	84.6683	10,927.7	85.7831	10,927.7	82.1738	10,927.7	83.2482	10,927.7	78.4456	10,927.7	79.6215	10,927.7	74.6065	10,927.7	76.0081	10,927.7	72.8202	10,927.7	73.6986	10,927.7	69.5938	10,927.7	71.6584	10,927.7	63.1644	10,927.7	65.2555	10,927.7	61.0652	10,927.7	61.289	10,927.7	56.3383	10,927.7	57.1927	10,927.7	54.392	10,927.7	51.7945	10,927.7	52.0898	10,927.7	49.6058	10,927.7	56.9146	10,927.7	59.1527	10,927.7	50.9927	10,927.7	60.9079	10,927.7	51.1003	10,927.7	57.618	10,927.7	49.2896	10,927.7	52.878	10,927.7	38.7999
11,313	88.4598	11,313	87.7499	11,313	88.5859	11,313	86.3513	11,313	87.4676	11,313	84.0163	11,313	85.6135	11,313	81.7829	11,313	83.0225	11,313	78.0496	11,313	79.5687	11,313	74.7137	11,313	75.8284	11,313	71.7159	11,313	72.5075	11,313	68.3747	11,313	69.6538	11,313	62.2567	11,313	62.779	11,313	59.5927	11,313	56.0304	11,313	58.4252	11,313	57.1599	11,313	52.4178	11,313	44.2993	11,313	49.1147	11,313	51.8359	11,313	51.2997	11,313	57.5807	11,313	47.0026	11,313	61.0817	11,313	52.1322	11,313	57.9125	11,313	46.0426	11,313	55.3778	11,313	48.5001
11,712.9	88.3494	11,712.9	87.7058	11,712.9	88.3837	11,712.9	86.3018	11,712.9	87.4488	11,712.9	83.6595	11,712.9	85.4559	11,712.9	81.7132	11,712.9	82.7782	11,712.9	78.5031	11,712.9	79.4479	11,712.9	74.087	11,712.9	75.7182	11,712.9	70.4126	11,712.9	71.0101	11,712.9	67.5944	11,712.9	69.0636	11,712.9	62.3209	11,712.9	64.2877	11,712.9	58.9937	11,712.9	53.9201	11,712.9	58.4616	11,712.9	57.4811	11,712.9	52.542	11,712.9	43.2233	11,712.9	51.3073	11,712.9	54.0955	11,712.9	49.7576	11,712.9	57.7144	11,712.9	51.3407	11,712.9	61.1303	11,712.9	53.9024	11,712.9	58.5601	11,712.9	50.4699	11,712.9	56.7884	11,712.9	53.8316
12,126	88.2172	12,126	87.759	12,126	88.2317	12,126	86.2352	12,126	87.4551	12,126	83.5143	12,126	85.2372	12,126	81.6732	12,126	82.5482	12,126	78.0088	12,126	79.337	12,126	72.9711	12,126	75.2025	12,126	69.8505	12,126	70.2693	12,126	65.5485	12,126	68.1435	12,126	62.6047	12,126	64.5391	12,126	58.6354	12,126	56.449	12,126	55.8927	12,126	55.5007	12,126	52.2097	12,126	47.6558	12,126	48.3235	12,126	57.3263	12,126	49.5262	12,126	57.7424	12,126	54.4217	12,126	61.3352	12,126	56.1704	12,126	58.6994	12,126	56.8109	12,126	57.8567	12,126	56.5675
12,553.7	88.2422	12,553.7	87.9041	12,553.7	88.2693	12,553.7	86.0486	12,553.7	87.5911	12,553.7	83.0792	12,553.7	85.0439	12,553.7	81.6381	12,553.7	82.3289	12,553.7	77.1641	12,553.7	79.0895	12,553.7	72.9755	12,553.7	74.4088	12,553.7	70.0029	12,553.7	70.7107	12,553.7	65.1728	12,553.7	67.2263	12,553.7	62.3353	12,553.7	64.1681	12,553.7	59.0142	12,553.7	55.7204	12,553.7	52.451	12,553.7	54.8597	12,553.7	50.9755	12,553.7	46.5622	12,553.7	37.7405	12,553.7	57.4464	12,553.7	47.2616	12,553.7	59.9749	12,553.7	56.5535	12,553.7	62.7207	12,553.7	58.6911	12,553.7	58.1671	12,553.7	59.2392	12,553.7	59.984	12,553.7	59.9221
12,996.1	88.1762	12,996.1	87.8166	12,996.1	88.2178	12,996.1	85.7745	12,996.1	87.4267	12,996.1	82.7733	12,996.1	84.7981	12,996.1	81.1536	12,996.1	81.8946	12,996.1	76.1585	12,996.1	78.2803	12,996.1	72.0125	12,996.1	72.9149	12,996.1	68.2514	12,996.1	69.7678	12,996.1	63.4913	12,996.1	65.0108	12,996.1	60.3927	12,996.1	62.1842	12,996.1	57.1356	12,996.1	52.7183	12,996.1	50.9666	12,996.1	52.3094	12,996.1	52.8251	12,996.1	41.9128	12,996.1	47.0493	12,996.1	56.4609	12,996.1	47.4627	12,996.1	61.3271	12,996.1	57.5221	12,996.1	62.9839	12,996.1	60.427	12,996.1	58.3606	12,996.1	61.5636	12,996.1	62.2126	12,996.1	62.8949
13,454.6	88.1622	13,454.6	87.7146	13,454.6	88.1956	13,454.6	85.7329	13,454.6	87.2151	13,454.6	82.5912	13,454.6	84.6068	13,454.6	80.5241	13,454.6	81.246	13,454.6	75.1207	13,454.6	77.1991	13,454.6	71.148	13,454.6	70.7797	13,454.6	66.7265	13,454.6	67.8415	13,454.6	62.14	13,454.6	62.0574	13,454.6	57.2508	13,454.6	60.0211	13,454.6	55.4343	13,454.6	50.7207	13,454.6	50.8223	13,454.6	48.866	13,454.6	54.2183	13,454.6	36.4267	13,454.6	44.7659	13,454.6	53.9946	13,454.6	50.6131	13,454.6	60.9584	13,454.6	58.5354	13,454.6	63.6744	13,454.6	61.4167	13,454.6	57.5455	13,454.6	62.559	13,454.6	64.0299	13,454.6	63.8926
13,929.2	88.0412	13,929.2	87.4703	13,929.2	88.0718	13,929.2	85.5558	13,929.2	86.8531	13,929.2	82.0839	13,929.2	84.1231	13,929.2	79.7322	13,929.2	80.1537	13,929.2	74.0908	13,929.2	76.3964	13,929.2	70.5442	13,929.2	69.1396	13,929.2	65.5056	13,929.2	67.2064	13,929.2	61.408	13,929.2	61.0661	13,929.2	54.9248	13,929.2	59.1253	13,929.2	54.9624	13,929.2	50.6423	13,929.2	48.8454	13,929.2	26.9535	13,929.2	54.0527	13,929.2	37.2885	13,929.2	48.3534	13,929.2	51.9306	13,929.2	54.1913	13,929.2	62.1974	13,929.2	59.6696	13,929.2	63.4379	13,929.2	61.6668	13,929.2	56.8047	13,929.2	63.5847	13,929.2	65.0729	13,929.2	65.0422
14,419.9	87.7765	14,419.9	86.8906	14,419.9	87.7707	14,419.9	84.9348	14,419.9	86.3426	14,419.9	81.1967	14,419.9	83.415	14,419.9	78.4766	14,419.9	78.9787	14,419.9	72.5838	14,419.9	75.2127	14,419.9	68.6753	14,419.9	67.9366	14,419.9	63.7189	14,419.9	66.6324	14,419.9	60.224	14,419.9	58.521	14,419.9	49.8625	14,419.9	57.5573	14,419.9	55.1057	14,419.9	44.8519	14,419.9	50.7044	14,419.9	47.5288	14,419.9	54.6558	14,419.9	42.7413	14,419.9	50.04	14,419.9	48.9464	14,419.9	56.8837	14,419.9	62.1994	14,419.9	60.3947	14,419.9	62.9904	14,419.9	62.7682	14,419.9	56.0871	14,419.9	64.6142	14,419.9	65.3295	14,419.9	66.0169
14,928.2	87.3938	14,928.2	86.376	14,928.2	87.4252	14,928.2	84.0925	14,928.2	85.7871	14,928.2	80.3014	14,928.2	82.6307	14,928.2	77.6028	14,928.2	77.4592	14,928.2	71.1385	14,928.2	73.8934	14,928.2	67.4415	14,928.2	65.5489	14,928.2	61.0896	14,928.2	64.1572	14,928.2	57.6309	14,928.2	52.8715	14,928.2	51.2531	14,928.2	51.1956	14,928.2	53.8879	14,928.2	43.2349	14,928.2	53.7923	14,928.2	47.8229	14,928.2	54.9896	14,928.2	46.7651	14,928.2	51.8579	14,928.2	44.7318	14,928.2	57.6175	14,928.2	62.5348	14,928.2	59.6404	14,928.2	63.4368	14,928.2	63.3617	14,928.2	55.4715	14,928.2	64.2826	14,928.2	65.6742	14,928.2	65.6677
15,455.6	87.0285	15,455.6	86.1785	15,455.6	86.8558	15,455.6	83.4733	15,455.6	85.2419	15,455.6	80.201	15,455.6	81.5522	15,455.6	76.9247	15,455.6	76.7493	15,455.6	70.4995	15,455.6	73.4144	15,455.6	66.7736	15,455.6	65.055	15,455.6	59.764	15,455.6	65.2703	15,455.6	57.1766	15,455.6	57.0944	15,455.6	56.8365	15,455.6	41.0227	15,455.6	51.0588	15,455.6	53.9208	15,455.6	55.1779	15,455.6	51.6591	15,455.6	57.2931	15,455.6	54.0192	15,455.6	52.9369	15,455.6	43.2519	15,455.6	56.5473	15,455.6	62.8136	15,455.6	58.7718	15,455.6	63.1133	15,455.6	63.8245	15,455.6	54.257	15,455.6	63.4346	15,455.6	65.1623	15,455.6	64.9802
16,000.5	86.4059	16,000.5	85.5478	16,000.5	86.0395	16,000.5	82.6752	16,000.5	84.2548	16,000.5	80.5322	16,000.5	80.7066	16,000.5	76.5069	16,000.5	76.0376	16,000.5	70.7296	16,000.5	74.1223	16,000.5	67.027	16,000.5	65.7846	16,000.5	63.8352	16,000.5	67.7747	16,000.5	61.4618	16,000.5	62.8352	16,000.5	57.3152	16,000.5	44.886	16,000.5	53.7305	16,000.5	55.6712	16,000.5	52.0069	16,000.5	49.7379	16,000.5	57.0784	16,000.5	55.6655	16,000.5	49.135	16,000.5	48.4305	16,000.5	53.3745	16,000.5	62.3808	16,000.5	57.4565	16,000.5	62.3798	16,000.5	63.9052	16,000.5	52.3432	16,000.5	62.9453	16,000.5	64.0165	16,000.5	64.588
16,564.5	85.6542	16,564.5	84.9441	16,564.5	85.2611	16,564.5	82.0924	16,564.5	83.5699	16,564.5	80.3824	16,564.5	80.4228	16,564.5	76.1584	16,564.5	76.701	16,564.5	71.4112	16,564.5	74.4367	16,564.5	68.5414	16,564.5	67.9962	16,564.5	65.9823	16,564.5	70.1402	16,564.5	63.6727	16,564.5	67.0874	16,564.5	58.1142	16,564.5	53.8254	16,564.5	55.6876	16,564.5	54.0793	16,564.5	45.904	16,564.5	43.4975	16,564.5	54.1371	16,564.5	56.6332	16,564.5	47.2206	16,564.5	50.9971	16,564.5	54.154	16,564.5	62.6703	16,564.5	53.353	16,564.5	60.6023	16,564.5	62.7832	16,564.5	49.5072	16,564.5	61.6275	16,564.5	62.491	16,564.5	63.8106
17,148.9	85.1534	17,148.9	84.5959	17,148.9	84.8858	17,148.9	81.4775	17,148.9	83.1258	17,148.9	80.8295	17,148.9	80.3524	17,148.9	76.1709	17,148.9	76.4663	17,148.9	72.1703	17,148.9	74.489	17,148.9	69.8781	17,148.9	70.8894	17,148.9	66.3825	17,148.9	71.0925	17,148.9	65.8488	17,148.9	67.8975	17,148.9	57.5793	17,148.9	54.7448	17,148.9	54.0847	17,148.9	47.0373	17,148.9	45.8513	17,148.9	46.0701	17,148.9	47.7477	17,148.9	57.2607	17,148.9	40.9279	17,148.9	51.339	17,148.9	49.7922	17,148.9	62.1599	17,148.9	48.2772	17,148.9	59.7317	17,148.9	61.9609	17,148.9	48.1255	17,148.9	60.5441	17,148.9	62.5927	17,148.9	62.6233
17,752.4	85.0507	17,752.4	84.5943	17,752.4	84.6006	17,752.4	81.2484	17,752.4	82.7514	17,752.4	81.1551	17,752.4	80.1681	17,752.4	76.5197	17,752.4	76.2847	17,752.4	73.2787	17,752.4	74.3875	17,752.4	71.2644	17,752.4	71.2426	17,752.4	66.7136	17,752.4	70.0347	17,752.4	66.6992	17,752.4	67.6206	17,752.4	59.8394	17,752.4	56.8418	17,752.4	52.7311	17,752.4	42.2415	17,752.4	48.0958	17,752.4	53.0313	17,752.4	45.7843	17,752.4	55.0484	17,752.4	36.7351	17,752.4	54.443	17,752.4	47.189	17,752.4	61.4822	17,752.4	47.8915	17,752.4	58.6119	17,752.4	62.3178	17,752.4	50.9852	17,752.4	59.9054	17,752.4	61.5946	17,752.4	62.6635
18,379.4	84.8329	18,379.4	84.357	18,379.4	84.298	18,379.4	80.9391	18,379.4	82.6038	18,379.4	81.0309	18,379.4	80.0184	18,379.4	76.1422	18,379.4	75.9425	18,379.4	73.0011	18,379.4	74.1236	18,379.4	71.3943	18,379.4	70.2378	18,379.4	65.8401	18,379.4	68.4129	18,379.4	66.3416	18,379.4	65.6543	18,379.4	59.9866	18,379.4	55.5758	18,379.4	53.0101	18,379.4	44.6611	18,379.4	50.503	18,379.4	53.8272	18,379.4	39.5682	18,379.4	53.5627	18,379.4	43.4753	18,379.4	54.0708	18,379.4	48.4695	18,379.4	60.0105	18,379.4	48.5567	18,379.4	57.4176	18,379.4	62.4829	18,379.4	54.1898	18,379.4	60.8895	18,379.4	61.867	18,379.4	62.2805
19,026.9	84.5201	19,026.9	83.8784	19,026.9	83.9904	19,026.9	80.4677	19,026.9	82.2057	19,026.9	80.3438	19,026.9	79.3901	19,026.9	74.9212	19,026.9	75.0271	19,026.9	71.4628	19,026.9	72.3826	19,026.9	70.9969	19,026.9	67.3638	19,026.9	63.8446	19,026.9	65.6323	19,026.9	64.4936	19,026.9	60.9885	19,026.9	58.7684	19,026.9	49.2721	19,026.9	50.7783	19,026.9	50.4162	19,026.9	49.8431	19,026.9	53.0308	19,026.9	43.6919	19,026.9	48.9693	19,026.9	45.5191	19,026.9	51.5195	19,026.9	51.6353	19,026.9	58.3183	19,026.9	46.4555	19,026.9	56.1981	19,026.9	61.0533	19,026.9	54.1174	19,026.9	59.3128	19,026.9	60.9793	19,026.9	60.7856
19,697.8	84.6268	19,697.8	84.0761	19,697.8	83.9164	19,697.8	80.4513	19,697.8	82.127	19,697.8	79.4526	19,697.8	78.5268	19,697.8	73.1195	19,697.8	74.1745	19,697.8	70.0434	19,697.8	71.8638	19,697.8	69.0249	19,697.8	64.4238	19,697.8	60.7665	19,697.8	62.2171	19,697.8	58.5919	19,697.8	56.6119	19,697.8	56.1899	19,697.8	48.7617	19,697.8	49.6827	19,697.8	54.3668	19,697.8	47.3959	19,697.8	52.8697	19,697.8	48.5314	19,697.8	48.7428	19,697.8	49.3463	19,697.8	46.6856	19,697.8	52.4566	19,697.8	57.553	19,697.8	49.0009	19,697.8	55.845	19,697.8	60.4014	19,697.8	51.85	19,697.8	59.0417	19,697.8	61.1451	19,697.8	60.0991
19,999.5	84.3857	19,999.5	83.9433	19,999.5	83.7098	19,999.5	80.1902	19,999.5	81.9395	19,999.5	78.9966	19,999.5	78.18	19,999.5	72.7239	19,999.5	74.1671	19,999.5	68.86	19,999.5	71.5611	19,999.5	68.0529	19,999.5	62.7243	19,999.5	59.2071	19,999.5	60.7557	19,999.5	57.1363	19,999.5	57.1928	19,999.5	54.5092	19,999.5	52.5696	19,999.5	49.7532	19,999.5	55.3987	19,999.5	49.2986	19,999.5	52.0905	19,999.5	49.2269	19,999.5	52.4141	19,999.5	47.6547	19,999.5	43.1981	19,999.5	51.2016	19,999.5	57.3402	19,999.5	54.3558	19,999.5	53.1782	19,999.5	59.5777	19,999.5	49.746	19,999.5	57.4964	19,999.5	59.7244	19,999.5	58.1532
