"Vertical Reflections"					
"Floor Reflection"		"Ceiling Reflection"		"Total Vertical Reflection"	
"Frequency [Hz]"	"Sound Pessure Level [dB]  / [2.83V 1m] "	"Frequency [Hz]"	"Sound Pessure Level [dB]  / [2.83V 1m] "	"Frequency [Hz]"	"Sound Pessure Level [dB]  / [2.83V 1m] "
20.5078	45.6964	20.5078	48.8995	20.5078	47.5868
21.9727	42.1035	21.9727	49.9155	21.9727	47.5703
23.4375	41.5534	23.4375	44.6664	23.4375	43.383
24.9023	37.9757	24.9023	45.6669	24.9023	43.3391
26.3672	40.354	26.3672	46.7012	26.3672	44.5966
27.832	44.2583	27.832	47.9434	27.832	46.4805
29.2969	48.3844	29.2969	50.5529	29.2969	49.6026
30.7617	53.0641	30.7617	52.7702	30.7617	52.9196
32.2266	56.1141	32.2266	55.2549	32.2266	55.7057
33.6914	59.1378	33.6914	57.407	33.6914	58.3581
35.1563	60.9936	35.1563	58.9073	35.1563	60.0746
36.6211	62.6788	36.6211	60.8927	36.6211	61.8769
38.0859	64.607	38.0859	63.0464	38.0859	63.8965
39.5508	66.5341	39.5508	64.9792	39.5508	65.8259
41.0156	68.4807	41.0156	67.0136	41.0156	67.8088
42.4805	69.4372	42.4805	67.8627	42.4805	68.7209
43.9453	70.4318	43.9453	68.9929	43.9453	69.7717
45.4102	71.4128	45.4102	70.1165	45.4102	70.8128
46.875	72.503	46.875	71.3779	46.875	71.9768
48.3398	73.5501	48.3398	72.5042	48.3398	73.0586
51.2695	75.184	51.2695	74.2922	51.2695	74.761
52.7344	75.9854	52.7344	75.1711	52.7344	75.5973
54.1992	76.8097	54.1992	76.0834	54.1992	76.4617
55.6641	77.56	55.6641	76.9087	55.6641	77.2466
58.5938	78.8733	58.5938	78.277	58.5938	78.5854
60.0586	79.4545	60.0586	78.8626	60.0586	79.1686
62.9883	80.5373	62.9883	80.0233	62.9883	80.2879
64.4531	80.9687	64.4531	80.4875	64.4531	80.7348
67.3828	81.5424	67.3828	81.0612	67.3828	81.3085
68.8477	81.8069	68.8477	81.3326	68.8477	81.5762
71.7773	82.8385	71.7773	82.4057	71.7773	82.6275
74.707	83.4109	74.707	82.9861	74.707	83.2037
77.6367	83.578	77.6367	83.1506	77.6367	83.3696
79.1016	84.0083	79.1016	83.5829	79.1016	83.8008
82.0313	84.8158	82.0313	84.3689	82.0313	84.5981
84.9609	84.9967	84.9609	84.5242	84.9609	84.7669
87.8906	85.6217	87.8906	85.0953	87.8906	85.3665
90.8203	85.8442	90.8203	85.3028	90.8203	85.5819
95.2148	86.1803	95.2148	85.663	95.2148	85.9294
98.1445	86.3669	98.1445	85.8055	98.1445	86.0953
101.074	86.7888	101.074	86.2141	101.074	86.511
105.469	86.5594	105.469	85.9777	105.469	86.2783
108.398	86.733	108.398	86.0994	108.398	86.4277
112.793	87.3413	112.793	86.6665	112.793	87.017
117.188	87.037	117.188	86.4176	117.188	86.7384
120.117	87.3736	120.117	86.7502	120.117	87.0731
124.512	87.4011	124.512	86.702	124.512	87.0656
128.906	87.1984	128.906	86.4449	128.906	86.838
133.301	87.3265	133.301	86.6095	133.301	86.9828
139.16	87.0364	139.16	86.2818	139.16	86.6755
143.555	87.2598	143.555	86.4622	143.555	86.8793
147.949	86.8899	147.949	86.0858	147.949	86.5064
153.809	86.9884	153.809	86.0627	153.809	86.5502
159.668	87.22	159.668	86.2043	159.668	86.7418
165.527	87.1535	165.527	86.2293	165.527	86.7159
171.387	86.9715	171.387	86.0884	171.387	86.5524
177.246	86.7954	177.246	85.9116	177.246	86.3759
183.105	86.6683	183.105	85.6595	183.105	86.1931
188.965	86.6875	188.965	85.7179	188.965	86.2297
196.289	86.74	196.289	85.7494	196.289	86.2729
203.613	86.6108	203.613	85.5753	203.613	86.1239
210.938	86.558	210.938	85.4264	210.938	86.029
218.262	86.4293	218.262	85.3069	218.262	85.9042
225.586	86.3474	225.586	85.1889	225.586	85.8066
232.91	86.4078	232.91	85.2539	232.91	85.8691
241.699	86.2558	241.699	85.2222	241.699	85.7697
250.488	86.21	250.488	84.8421	250.488	85.5797
259.277	86.338	259.277	85.026	259.277	85.7313
268.066	86.014	268.066	84.5304	268.066	85.3353
276.855	85.9881	276.855	84.2782	276.855	85.2168
287.109	86.0066	287.109	84.4626	287.109	85.3029
297.363	85.9629	297.363	84.2086	297.363	85.1737
307.617	86.1659	307.617	84.252	307.617	85.3136
319.336	85.6752	319.336	84.3625	319.336	85.0683
329.59	85.9645	329.59	84.0766	329.59	85.1223
341.309	86.1073	341.309	83.6153	341.309	85.0377
353.027	86.6213	353.027	83.9323	353.027	85.4817
366.211	87.0408	366.211	84.3916	366.211	85.9152
379.395	87.0734	379.395	84.6107	379.395	86.0144
392.578	86.8097	392.578	84.3004	392.578	85.7338
405.762	86.1623	405.762	84.0108	405.762	85.2184
420.41	86.93	420.41	84.2188	420.41	85.7826
435.059	86.1927	435.059	84.2106	435.059	85.3137
451.172	86.816	451.172	83.9692	451.172	85.6218
465.82	86.1336	465.82	84.0059	465.82	85.1988
483.398	85.8886	483.398	83.5715	483.398	84.8828
499.512	86.0218	499.512	83.3735	499.512	84.8964
517.09	87.1905	517.09	84.5363	517.09	86.0631
536.133	87.0221	536.133	84.0665	536.133	85.791
555.176	87.5986	555.176	84.2713	555.176	86.2461
574.219	87.261	574.219	84.3367	574.219	86.0404
594.727	86.5884	594.727	84.1673	594.727	85.5444
615.234	86.6764	615.234	84.4144	615.234	85.6911
637.207	86.3904	637.207	83.2114	637.207	85.0855
659.18	86.4639	659.18	83.4395	659.18	85.2098
682.617	86.4104	682.617	83.3138	682.617	85.1325
707.52	86.6192	707.52	82.77	707.52	85.1078
732.422	86.3833	732.422	83.4236	732.422	85.1508
757.324	86.1763	757.324	83.6753	757.324	85.1034
785.156	86.3186	785.156	83.6143	785.156	85.1737
811.523	86.5474	811.523	83.7263	811.523	85.362
840.82	86.8073	840.82	84.6693	840.82	85.8686
870.117	86.519	870.117	84.1889	870.117	85.5084
900.879	86.6619	900.879	84.1682	900.879	85.5917
933.105	85.7907	933.105	84.7931	933.105	85.3204
965.332	87.0422	965.332	85.4439	965.332	86.3162
1,000.49	88.1574	1,000.49	85.1018	1,000.49	86.8929
1,035.64	88.1225	1,035.64	86.1011	1,035.64	87.2284
1,072.27	87.9696	1,072.27	85.6306	1,072.27	86.9557
1,108.89	88.16	1,108.89	85.6871	1,108.89	87.0973
1,148.44	88.1031	1,148.44	85.471	1,148.44	86.9835
1,189.45	87.6048	1,189.45	84.8687	1,189.45	86.4488
1,230.47	87.6459	1,230.47	85.0837	1,230.47	86.5511
1,274.41	87.5272	1,274.41	84.846	1,274.41	86.3903
1,319.82	87.397	1,319.82	83.6921	1,319.82	85.9282
1,366.7	86.6962	1,366.7	83.3121	1,366.7	85.3258
1,413.57	86.53	1,413.57	83.5254	1,413.57	85.2825
1,463.38	86.5051	1,463.38	84.207	1,463.38	85.5063
1,516.11	86.3412	1,516.11	83.5054	1,516.11	85.1508
1,568.85	86.1752	1,568.85	82.729	1,568.85	84.7853
1,624.51	85.5052	1,624.51	82.0198	1,624.51	84.1032
1,681.64	84.4143	1,681.64	80.4952	1,681.64	82.8826
1,741.7	83.233	1,741.7	76.8811	1,741.7	81.1276
1,803.22	82.4161	1,803.22	77.5023	1,803.22	80.6199
1,866.21	82.194	1,866.21	76.7086	1,866.21	80.2653
1,932.13	81.6609	1,932.13	76.2635	1,932.13	79.7517
1,999.51	80.1825	1,999.51	76.483	1,999.51	78.7153
2,069.82	80.3418	2,069.82	74.1476	2,069.82	78.2664
2,143.07	79.9285	2,143.07	71.4928	2,143.07	77.5001
2,219.24	79.4868	2,219.24	74.5562	2,219.24	77.6866
2,296.88	79.5697	2,296.88	77.5963	2,296.88	78.6941
2,378.91	81.1867	2,378.91	77.5851	2,378.91	79.749
2,462.4	81.093	2,462.4	79.2296	2,462.4	80.2605
2,548.83	79.2598	2,548.83	79.928	2,548.83	79.6068
2,639.65	78.1068	2,639.65	80.4228	2,639.65	79.4174
2,731.93	77.8421	2,731.93	80.8624	2,731.93	79.6097
2,828.61	77.2996	2,828.61	81.5421	2,828.61	79.9195
2,928.22	77.3451	2,928.22	81.3179	2,928.22	79.7708
3,030.76	78.0506	3,030.76	81.7339	3,030.76	80.2715
3,137.7	79.155	3,137.7	82.1936	3,137.7	80.9348
3,249.02	79.5695	3,249.02	82.4927	3,249.02	81.2725
3,363.28	80.4336	3,363.28	82.9093	3,363.28	81.8455
3,481.93	81.1123	3,481.93	82.9593	3,481.93	82.1333
3,604.98	81.9002	3,604.98	83.1793	3,604.98	82.5867
3,732.42	82.3922	3,732.42	83.1551	3,732.42	82.7904
3,864.26	82.7275	3,864.26	82.8277	3,864.26	82.7779
4,000.49	83.3196	4,000.49	82.2969	4,000.49	82.8383
4,141.11	83.4718	4,141.11	82.3604	4,141.11	82.9515
4,287.6	82.87	4,287.6	82.2823	4,287.6	82.5861
4,438.48	84.1321	4,438.48	82.2344	4,438.48	83.2861
4,595.21	84.9402	4,595.21	82.339	4,595.21	83.8315
4,756.35	85.0624	4,756.35	82.0072	4,756.35	83.7981
4,924.8	86.083	4,924.8	81.5801	4,924.8	84.3907
5,097.66	86.8286	5,097.66	81.9438	5,097.66	85.0396
5,277.83	86.4308	5,277.83	82.3606	5,277.83	84.856
5,463.87	86.1447	5,463.87	82.5683	5,463.87	84.7147
5,657.23	86.1293	5,657.23	82.6423	5,657.23	84.7268
5,856.45	85.2126	5,856.45	82.5536	5,856.45	84.0835
6,062.99	84.5389	6,062.99	82.5142	6,062.99	83.6435
6,276.86	84.7574	6,276.86	82.1498	6,276.86	83.6464
6,498.05	84.8332	6,498.05	81.896	6,498.05	83.6084
6,726.56	84.9456	6,726.56	81.8636	6,726.56	83.6724
6,963.87	84.1504	6,963.87	82.114	6,963.87	83.2505
7,209.96	83.652	7,209.96	82.0718	7,209.96	82.9334
7,464.84	83.5972	7,464.84	81.8687	7,464.84	82.8184
7,727.05	83.424	7,727.05	81.6575	7,727.05	82.63
7,999.51	83.7313	7,999.51	81.616	7,999.51	82.8012
8,282.23	84.2826	8,282.23	81.4943	8,282.23	83.1085
8,573.73	84.9082	8,573.73	81.4696	8,573.73	83.5207
8,876.95	85.2819	8,876.95	81.3362	8,876.95	83.7425
9,188.96	85.379	9,188.96	81.2818	9,188.96	83.7966
9,514.16	85.721	9,514.16	81.3206	9,514.16	84.0558
9,849.61	85.6874	9,849.61	81.3616	9,849.61	84.0422
10,196.8	85.6746	10,196.8	80.9451	10,196.8	83.9241
10,555.7	85.2076	10,555.7	80.3856	10,555.7	83.4341
10,927.7	84.9858	10,927.7	80.2184	10,927.7	83.2259
11,313	84.7745	11,313	80.3785	11,313	83.1105
11,712.9	84.1839	11,712.9	79.9605	11,712.9	82.5666
12,126	83.6197	12,126	79.4794	12,126	82.0253
12,553.7	83.2012	12,553.7	79.3895	12,553.7	81.7008
12,996.1	82.5342	12,996.1	79.0765	12,996.1	81.1407
13,454.6	81.752	13,454.6	78.0847	13,454.6	80.2944
13,929.2	81.3099	13,929.2	76.8815	13,929.2	79.6373
14,419.9	80.7457	14,419.9	75.8947	14,419.9	78.9649
14,928.2	80.048	14,928.2	75.4106	14,928.2	78.321
15,455.6	79.5452	15,455.6	74.3873	15,455.6	77.6908
16,000.5	78.9909	16,000.5	73.4388	16,000.5	77.0475
16,564.5	78.5174	16,564.5	72.4707	16,564.5	76.471
17,148.9	78.3647	17,148.9	71.7324	17,148.9	76.2079
17,752.4	78.2226	17,752.4	71.5082	17,752.4	76.0513
18,379.4	77.896	18,379.4	71.4709	18,379.4	75.7769
19,026.9	78.216	19,026.9	72.0295	19,026.9	76.1421
19,697.8	78.6022	19,697.8	71.7475	19,697.8	76.4065
19,999.5	78.6071	19,999.5	71.0118	19,999.5	76.2934
