"SPL Vertical"																																																																							
"On-Axis"		"10°"		"-10°"		"20°"		"-20°"		"30°"		"-30°"		"40°"		"-40°"		"50°"		"-50°"		"60°"		"-60°"		"70°"		"-70°"		"80°"		"-80°"		"90°"		"-90°"		"100°"		"-100°"		"110°"		"-110°"		"120°"		"-120°"		"130°"		"-130°"		"140°"		"-140°"		"150°"		"-150°"		"160°"		"-160°"		"170°"		"-170°"		"180°"	
"Frequency [Hz]"	"Sound Pessure Level [dB]  / [2.83V 1m] "	"Frequency [Hz]"	"Sound Pessure Level [dB]  / [2.83V 1m] "	"Frequency [Hz]"	"Sound Pessure Level [dB]  / [2.83V 1m] "	"Frequency [Hz]"	"Sound Pessure Level [dB]  / [2.83V 1m] "	"Frequency [Hz]"	"Sound Pessure Level [dB]  / [2.83V 1m] "	"Frequency [Hz]"	"Sound Pessure Level [dB]  / [2.83V 1m] "	"Frequency [Hz]"	"Sound Pessure Level [dB]  / [2.83V 1m] "	"Frequency [Hz]"	"Sound Pessure Level [dB]  / [2.83V 1m] "	"Frequency [Hz]"	"Sound Pessure Level [dB]  / [2.83V 1m] "	"Frequency [Hz]"	"Sound Pessure Level [dB]  / [2.83V 1m] "	"Frequency [Hz]"	"Sound Pessure Level [dB]  / [2.83V 1m] "	"Frequency [Hz]"	"Sound Pessure Level [dB]  / [2.83V 1m] "	"Frequency [Hz]"	"Sound Pessure Level [dB]  / [2.83V 1m] "	"Frequency [Hz]"	"Sound Pessure Level [dB]  / [2.83V 1m] "	"Frequency [Hz]"	"Sound Pessure Level [dB]  / [2.83V 1m] "	"Frequency [Hz]"	"Sound Pessure Level [dB]  / [2.83V 1m] "	"Frequency [Hz]"	"Sound Pessure Level [dB]  / [2.83V 1m] "	"Frequency [Hz]"	"Sound Pessure Level [dB]  / [2.83V 1m] "	"Frequency [Hz]"	"Sound Pessure Level [dB]  / [2.83V 1m] "	"Frequency [Hz]"	"Sound Pessure Level [dB]  / [2.83V 1m] "	"Frequency [Hz]"	"Sound Pessure Level [dB]  / [2.83V 1m] "	"Frequency [Hz]"	"Sound Pessure Level [dB]  / [2.83V 1m] "	"Frequency [Hz]"	"Sound Pessure Level [dB]  / [2.83V 1m] "	"Frequency [Hz]"	"Sound Pessure Level [dB]  / [2.83V 1m] "	"Frequency [Hz]"	"Sound Pessure Level [dB]  / [2.83V 1m] "	"Frequency [Hz]"	"Sound Pessure Level [dB]  / [2.83V 1m] "	"Frequency [Hz]"	"Sound Pessure Level [dB]  / [2.83V 1m] "	"Frequency [Hz]"	"Sound Pessure Level [dB]  / [2.83V 1m] "	"Frequency [Hz]"	"Sound Pessure Level [dB]  / [2.83V 1m] "	"Frequency [Hz]"	"Sound Pessure Level [dB]  / [2.83V 1m] "	"Frequency [Hz]"	"Sound Pessure Level [dB]  / [2.83V 1m] "	"Frequency [Hz]"	"Sound Pessure Level [dB]  / [2.83V 1m] "	"Frequency [Hz]"	"Sound Pessure Level [dB]  / [2.83V 1m] "	"Frequency [Hz]"	"Sound Pessure Level [dB]  / [2.83V 1m] "	"Frequency [Hz]"	"Sound Pessure Level [dB]  / [2.83V 1m] "	"Frequency [Hz]"	"Sound Pessure Level [dB]  / [2.83V 1m] "
20.5078	53.0866	20.5078	52.7392	20.5078	53.4174	20.5078	52.4982	20.5078	53.651	20.5078	52.5164	20.5078	53.7405	20.5078	52.9159	20.5078	53.6656	20.5078	53.7102	20.5078	53.4395	20.5078	54.7986	20.5078	53.1391	20.5078	56.0392	20.5078	52.9571	20.5078	57.3157	20.5078	53.2065	20.5078	58.554	20.5078	54.1228	20.5078	59.7123	20.5078	55.6005	20.5078	60.767	20.5078	57.3074	20.5078	61.7031	20.5078	58.9682	20.5078	62.5082	20.5078	60.4419	20.5078	63.1706	20.5078	61.6743	20.5078	63.6773	20.5078	62.6521	20.5078	64.0148	20.5078	63.3789	20.5078	64.1684	20.5078	63.8649	20.5078	64.1234
23.4375	57.3892	23.4375	57.195	23.4375	57.5962	23.4375	57.1018	23.4375	57.7515	23.4375	57.2076	23.4375	57.8165	23.4375	57.5856	23.4375	57.7787	23.4375	58.248	23.4375	57.6602	23.4375	59.141	23.4375	57.5372	23.4375	60.1772	23.4375	57.5604	23.4375	61.2719	23.4375	57.9289	23.4375	62.3609	23.4375	58.7675	23.4375	63.4009	23.4375	60.0069	23.4375	64.3633	23.4375	61.4402	23.4375	65.2279	23.4375	62.8688	23.4375	65.9786	23.4375	64.1676	23.4375	66.6007	23.4375	65.2743	23.4375	67.0797	23.4375	66.1639	23.4375	67.401	23.4375	66.8303	23.4375	67.5503	23.4375	67.2772	23.4375	67.5134
26.3672	61.9782	26.3672	61.8376	26.3672	62.1313	26.3672	61.7641	26.3672	62.2561	26.3672	61.8187	26.3672	62.3282	26.3672	62.0539	26.3672	62.3416	26.3672	62.4949	26.3672	62.3141	26.3672	63.1294	26.3672	62.2968	26.3672	63.9136	26.3672	62.3795	26.3672	64.7899	26.3672	62.676	26.3672	65.7028	26.3672	63.2716	26.3672	66.6066	26.3672	64.1607	26.3672	67.4661	26.3672	65.2428	26.3672	68.2542	26.3672	66.3832	26.3672	68.9491	26.3672	67.4684	26.3672	69.532	26.3672	68.4242	26.3672	69.9856	26.3672	69.2097	26.3672	70.2939	26.3672	69.806	26.3672	70.4422	26.3672	70.2076	26.3672	70.4171
29.2969	66.2387	29.2969	66.1391	29.2969	66.3539	29.2969	66.09	29.2969	66.4583	29.2969	66.1298	29.2969	66.5361	29.2969	66.2937	29.2969	66.5842	29.2969	66.6041	29.2969	66.6162	29.2969	67.0633	29.2969	66.6659	29.2969	67.6527	29.2969	66.7891	29.2969	68.3388	29.2969	67.0539	29.2969	69.0819	29.2969	67.5149	29.2969	69.8429	29.2969	68.1816	29.2969	70.5875	29.2969	69.0061	29.2969	71.2863	29.2969	69.9043	29.2969	71.914	29.2969	70.7889	29.2969	72.4489	29.2969	71.5903	29.2969	72.8715	29.2969	72.2624	29.2969	73.1643	29.2969	72.7783	29.2969	73.3121	29.2969	73.1258	29.2969	73.3023
32.2266	69.9126	32.2266	69.839	32.2266	70.0037	32.2266	69.8056	32.2266	70.0947	32.2266	69.838	32.2266	70.1753	32.2266	69.9601	32.2266	70.2441	32.2266	70.1898	32.2266	70.3111	32.2266	70.5336	32.2266	70.3993	32.2266	70.9851	32.2266	70.5443	32.2266	71.5259	32.2266	70.789	32.2266	72.1295	32.2266	71.1688	32.2266	72.7659	32.2266	71.6942	32.2266	73.4048	32.2266	72.3408	32.2266	74.0178	32.2266	73.0557	32.2266	74.5792	32.2266	73.7752	32.2266	75.0655	32.2266	74.4406	32.2266	75.456	32.2266	75.0074	32.2266	75.7323	32.2266	75.4462	32.2266	75.879	32.2266	75.7405	32.2266	75.8843
35.1563	73.0138	35.1563	72.949	35.1563	73.0969	35.1563	72.9183	35.1563	73.1862	35.1563	72.9393	35.1563	73.2745	35.1563	73.0292	35.1563	73.3608	35.1563	73.2019	35.1563	73.4519	35.1563	73.4648	35.1563	73.5629	35.1563	73.8167	35.1563	73.7171	35.1563	74.248	35.1563	73.942	35.1563	74.7412	35.1563	74.2611	35.1563	75.2738	35.1563	74.6838	35.1563	75.821	35.1563	75.1974	35.1563	76.3569	35.1563	75.7684	35.1563	76.857	35.1563	76.3506	35.1563	77.2977	35.1563	76.8971	35.1563	77.658	35.1563	77.3678	35.1563	77.9192	35.1563	77.7335	35.1563	78.0659	35.1563	77.976	35.1563	78.0869
38.0859	75.5126	38.0859	75.4591	38.0859	75.5855	38.0859	75.4358	38.0859	75.6696	38.0859	75.4547	38.0859	75.7601	38.0859	75.5277	38.0859	75.8563	38.0859	75.665	38.0859	75.9626	38.0859	75.873	38.0859	76.0891	38.0859	76.153	38.0859	76.2507	38.0859	76.5002	38.0859	76.4648	38.0859	76.9038	38.0859	76.7464	38.0859	77.3478	38.0859	77.1018	38.0859	77.8129	38.0859	77.5231	38.0859	78.2773	38.0859	77.9878	38.0859	78.7185	38.0859	78.4624	38.0859	79.1145	38.0859	78.9102	38.0859	79.4444	38.0859	79.2972	38.0859	79.6899	38.0859	79.5969	38.0859	79.8359	38.0859	79.7914	38.0859	79.8715
41.0156	77.3364	41.0156	77.2873	41.0156	77.4063	41.0156	77.2663	41.0156	77.491	41.0156	77.2821	41.0156	77.587	41.0156	77.3429	41.0156	77.6934	41.0156	77.4564	41.0156	77.8127	41.0156	77.6275	41.0156	77.9513	41.0156	77.8584	41.0156	78.1181	41.0156	78.1464	41.0156	78.3241	41.0156	78.4846	41.0156	78.5784	41.0156	78.8616	41.0156	78.8847	41.0156	79.2622	41.0156	79.2377	41.0156	79.6683	41.0156	79.6214	41.0156	80.0601	41.0156	80.0114	41.0156	80.4174	41.0156	80.379	41.0156	80.7205	41.0156	80.696	41.0156	80.9518	41.0156	80.9392	41.0156	81.0966	41.0156	81.0919	41.0156	81.1449
43.9453	78.7448	43.9453	78.6984	43.9453	78.812	43.9453	78.6779	43.9453	78.896	43.9453	78.689	43.9453	78.994	43.9453	78.7374	43.9453	79.1053	43.9453	78.8285	43.9453	79.2308	43.9453	78.9665	43.9453	79.3739	43.9453	79.1532	43.9453	79.5396	43.9453	79.3881	43.9453	79.7341	43.9453	79.6669	43.9453	79.9624	43.9453	79.982	43.9453	80.2262	43.9453	80.3219	43.9453	80.5213	43.9453	80.6722	43.9453	80.8363	43.9453	81.0159	43.9453	81.1529	43.9453	81.3351	43.9453	81.4492	43.9453	81.6116	43.9453	81.7025	43.9453	81.8287	43.9453	81.893	43.9453	81.9723	43.9453	82.0059	43.9453	82.0329
46.875	79.7233	46.875	79.6797	46.875	79.7884	46.875	79.6608	46.875	79.8722	46.875	79.6704	46.875	79.9726	46.875	79.7123	46.875	80.0884	46.875	79.7901	46.875	80.2198	46.875	79.9068	46.875	80.3679	46.875	80.064	46.875	80.5348	46.875	80.2617	46.875	80.7233	46.875	80.4975	46.875	80.9355	46.875	80.766	46.875	81.1712	46.875	81.0589	46.875	81.4263	46.875	81.3646	46.875	81.692	46.875	81.6692	46.875	81.9542	46.875	81.9566	46.875	82.1958	46.875	82.2107	46.875	82.3985	46.875	82.4158	46.875	82.5458	46.875	82.5588	46.875	82.6254	46.875	82.6301
49.8047	80.5069	49.8047	80.4626	49.8047	80.5727	49.8047	80.442	49.8047	80.6582	49.8047	80.4473	49.8047	80.7617	49.8047	80.4809	49.8047	80.8818	49.8047	80.5452	49.8047	81.0175	49.8047	80.6422	49.8047	81.1684	49.8047	80.7732	49.8047	81.3345	49.8047	80.9387	49.8047	81.5159	49.8047	81.1372	49.8047	81.7124	49.8047	81.3654	49.8047	81.9225	49.8047	81.6171	49.8047	82.1422	49.8047	81.8835	49.8047	82.3643	49.8047	82.1531	49.8047	82.5783	49.8047	82.4122	49.8047	82.7706	49.8047	82.6462	49.8047	82.9271	49.8047	82.8409	49.8047	83.0345	49.8047	82.9838	49.8047	83.0827	49.8047	83.066
52.7344	81.146	52.7344	81.1031	52.7344	81.2106	52.7344	81.0831	52.7344	81.2958	52.7344	81.087	52.7344	81.4001	52.7344	81.1161	52.7344	81.522	52.7344	81.1715	52.7344	81.6598	52.7344	81.2546	52.7344	81.8117	52.7344	81.3661	52.7344	81.9761	52.7344	81.5066	52.7344	82.1512	52.7344	81.6753	52.7344	82.3352	52.7344	81.8703	52.7344	82.5253	52.7344	82.0872	52.7344	82.7175	52.7344	82.3194	52.7344	82.9058	52.7344	82.5576	52.7344	83.0817	52.7344	82.7905	52.7344	83.2349	52.7344	83.0051	52.7344	83.3544	52.7344	83.1887	52.7344	83.4296	52.7344	83.3296	52.7344	83.4526	52.7344	83.4192
55.6641	81.7261	55.6641	81.6837	55.6641	81.7902	55.6641	81.6632	55.6641	81.8753	55.6641	81.665	55.6641	81.9802	55.6641	81.6893	55.6641	82.1031	55.6641	81.7363	55.6641	82.242	55.6641	81.8066	55.6641	82.394	55.6641	81.9007	55.6641	82.5562	55.6641	82.0192	55.6641	82.7254	55.6641	82.1618	55.6641	82.8986	55.6641	82.3277	55.6641	83.072	55.6641	82.514	55.6641	83.2414	55.6641	82.7161	55.6641	83.4014	55.6641	82.9268	55.6641	83.5453	55.6641	83.1368	55.6641	83.6649	55.6641	83.335	55.6641	83.7517	55.6641	83.5097	55.6641	83.7978	55.6641	83.6501	55.6641	83.7974	55.6641	83.7478
58.5938	82.2912	58.5938	82.246	58.5938	82.358	58.5938	82.2221	58.5938	82.4458	58.5938	82.2192	58.5938	82.5536	58.5938	82.2368	58.5938	82.6793	58.5938	82.2745	58.5938	82.82	58.5938	82.3323	58.5938	82.9723	58.5938	82.4102	58.5938	83.1321	58.5938	82.5087	58.5938	83.2951	58.5938	82.628	58.5938	83.4571	58.5938	82.7678	58.5938	83.6137	58.5938	82.9267	58.5938	83.7606	58.5938	83.1016	58.5938	83.893	58.5938	83.2874	58.5938	84.0055	58.5938	83.4765	58.5938	84.0921	58.5938	83.6596	58.5938	84.1468	58.5938	83.8266	58.5938	84.164	58.5938	83.9674	58.5938	84.14	58.5938	84.0737
61.5234	82.7214	61.5234	82.6756	61.5234	82.7887	61.5234	82.6507	61.5234	82.8776	61.5234	82.6458	61.5234	82.9868	61.5234	82.6596	61.5234	83.1143	61.5234	82.6912	61.5234	83.257	61.5234	82.7399	61.5234	83.4104	61.5234	82.8057	61.5234	83.5699	61.5234	82.8889	61.5234	83.73	61.5234	82.9898	61.5234	83.8856	61.5234	83.1088	61.5234	84.0315	61.5234	83.2456	61.5234	84.1631	61.5234	83.3985	61.5234	84.2758	61.5234	83.564	61.5234	84.365	61.5234	83.7362	61.5234	84.4263	61.5234	83.9074	61.5234	84.4555	61.5234	84.0686	61.5234	84.4491	61.5234	84.2104	61.5234	84.4053	61.5234	84.3247
64.4531	83.1431	64.4531	83.0949	64.4531	83.2123	64.4531	83.0667	64.4531	83.3025	64.4531	83.0571	64.4531	83.4126	64.4531	83.0646	64.4531	83.5403	64.4531	83.0876	64.4531	83.682	64.4531	83.1252	64.4531	83.833	64.4531	83.1769	64.4531	83.9876	64.4531	83.2428	64.4531	84.1401	64.4531	83.3237	64.4531	84.2845	64.4531	83.4205	64.4531	84.4154	64.4531	83.5336	64.4531	84.528	64.4531	83.6628	64.4531	84.6181	64.4531	83.8062	64.4531	84.6821	64.4531	83.9596	64.4531	84.717	64.4531	84.1171	64.4531	84.7202	64.4531	84.2707	64.4531	84.6903	64.4531	84.4121	64.4531	84.6273	64.4531	84.5331
67.3828	83.6153	67.3828	83.5644	67.3828	83.6864	67.3828	83.5325	67.3828	83.7779	67.3828	83.5179	67.3828	83.8888	67.3828	83.5185	67.3828	84.0167	67.3828	83.5326	67.3828	84.1577	67.3828	83.5587	67.3828	84.3067	67.3828	83.5964	67.3828	84.4577	67.3828	83.6457	67.3828	84.6042	67.3828	83.7077	67.3828	84.7398	67.3828	83.7837	67.3828	84.8585	67.3828	83.8754	67.3828	84.9554	67.3828	83.9835	67.3828	85.0263	67.3828	84.1078	67.3828	85.0684	67.3828	84.2458	67.3828	85.0795	67.3828	84.3927	67.3828	85.0587	67.3828	84.5419	67.3828	85.0062	67.3828	84.6853	67.3828	84.9238	67.3828	84.815
70.3125	84.0241	70.3125	83.9703	70.3125	84.0986	70.3125	83.9359	70.3125	84.1939	70.3125	83.9189	70.3125	84.3088	70.3125	83.9169	70.3125	84.4405	70.3125	83.9279	70.3125	84.5846	70.3125	83.95	70.3125	84.7356	70.3125	83.9824	70.3125	84.8867	70.3125	84.0251	70.3125	85.0311	70.3125	84.0788	70.3125	85.1619	70.3125	84.1453	70.3125	85.2729	70.3125	84.2263	70.3125	85.3591	70.3125	84.3234	70.3125	85.4169	70.3125	84.4368	70.3125	85.4439	70.3125	84.5652	70.3125	85.4392	70.3125	84.7048	70.3125	85.4028	70.3125	84.8497	70.3125	85.3364	70.3125	84.9928	70.3125	85.2427	70.3125	85.1262
73.2422	84.3871	73.2422	84.3349	73.2422	84.4595	73.2422	84.3017	73.2422	84.5525	73.2422	84.2851	73.2422	84.6647	73.2422	84.2825	73.2422	84.7934	73.2422	84.2916	73.2422	84.934	73.2422	84.3102	73.2422	85.0808	73.2422	84.3369	73.2422	85.227	73.2422	84.3716	73.2422	85.3655	73.2422	84.4149	73.2422	85.4893	73.2422	84.4685	73.2422	85.5919	73.2422	84.5347	73.2422	85.6683	73.2422	84.6156	73.2422	85.7148	73.2422	84.7127	73.2422	85.7294	73.2422	84.8258	73.2422	85.7115	73.2422	84.9525	73.2422	85.6624	73.2422	85.0884	73.2422	85.5845	73.2422	85.2269	73.2422	85.4821	73.2422	85.3607
76.1719	84.7735	76.1719	84.715	76.1719	84.852	76.1719	84.6752	76.1719	84.9506	76.1719	84.6519	76.1719	85.0677	76.1719	84.6422	76.1719	85.2003	76.1719	84.6435	76.1719	85.3435	76.1719	84.6536	76.1719	85.4912	76.1719	84.671	76.1719	85.6363	76.1719	84.6951	76.1719	85.7713	76.1719	84.7267	76.1719	85.8889	76.1719	84.7676	76.1719	85.9824	76.1719	84.8205	76.1719	86.0466	76.1719	84.8883	76.1719	86.078	76.1719	84.9734	76.1719	86.0749	76.1719	85.0768	76.1719	86.0377	76.1719	85.1974	76.1719	85.9685	76.1719	85.3318	76.1719	85.8713	76.1719	85.474	76.1719	85.7517	76.1719	85.6167
79.1016	85.0281	79.1016	84.9683	79.1016	85.1086	79.1016	84.9277	79.1016	85.2099	79.1016	84.9038	79.1016	85.3306	79.1016	84.8937	79.1016	85.4673	79.1016	84.8945	79.1016	85.6153	79.1016	84.9036	79.1016	85.7681	79.1016	84.9192	79.1016	85.9182	79.1016	84.9408	79.1016	86.0578	79.1016	84.9689	79.1016	86.1789	79.1016	85.0054	79.1016	86.2744	79.1016	85.0532	79.1016	86.3386	79.1016	85.1157	79.1016	86.3674	79.1016	85.196	79.1016	86.359	79.1016	85.2961	79.1016	86.3138	79.1016	85.4157	79.1016	86.2346	79.1016	85.5519	79.1016	86.1261	79.1016	85.6992	79.1016	85.9952	79.1016	85.8499
82.0313	85.4076	82.0313	85.3491	82.0313	85.4846	82.0313	85.3076	82.0313	85.5804	82.0313	85.2806	82.0313	85.6934	82.0313	85.2649	82.0313	85.8204	82.0313	85.2574	82.0313	85.9568	82.0313	85.2553	82.0313	86.0962	82.0313	85.2567	82.0313	86.2314	82.0313	85.261	82.0313	86.3548	82.0313	85.2688	82.0313	86.4587	82.0313	85.2824	82.0313	86.5362	82.0313	85.3055	82.0313	86.5815	82.0313	85.3424	82.0313	86.591	82.0313	85.3977	82.0313	86.5631	82.0313	85.475	82.0313	86.4991	82.0313	85.5757	82.0313	86.4026	82.0313	85.6982	82.0313	86.2796	82.0313	85.838	82.0313	86.1382	82.0313	85.9877
84.9609	85.7333	84.9609	85.669	84.9609	85.8121	84.9609	85.6179	84.9609	85.9055	84.9609	85.5774	84.9609	86.0119	84.9609	85.5446	84.9609	86.1282	84.9609	85.5165	84.9609	86.2496	84.9609	85.4905	84.9609	86.3702	84.9609	85.4649	84.9609	86.4828	84.9609	85.4393	84.9609	86.5802	84.9609	85.4149	84.9609	86.6551	84.9609	85.3946	84.9609	86.701	84.9609	85.3829	84.9609	86.713	84.9609	85.3857	84.9609	86.6881	84.9609	85.409	84.9609	86.6259	84.9609	85.4582	84.9609	86.5289	84.9609	85.5366	84.9609	86.4022	84.9609	85.6444	84.9609	86.2536	84.9609	85.7781	84.9609	86.0928	84.9609	85.9307
87.8906	85.8092	87.8906	85.7455	87.8906	85.8913	87.8906	85.6985	87.8906	85.9921	87.8906	85.6652	87.8906	86.1101	87.8906	85.6421	87.8906	86.2415	87.8906	85.6255	87.8906	86.3812	87.8906	85.6124	87.8906	86.5221	87.8906	85.6006	87.8906	86.6565	87.8906	85.5896	87.8906	86.7759	87.8906	85.5804	87.8906	86.8722	87.8906	85.5759	87.8906	86.9384	87.8906	85.5805	87.8906	86.9687	87.8906	85.5998	87.8906	86.9597	87.8906	85.6399	87.8906	86.9107	87.8906	85.7056	87.8906	86.8236	87.8906	85.7997	87.8906	86.7034	87.8906	85.9216	87.8906	86.5575	87.8906	86.067	87.8906	86.3955	87.8906	86.2283
90.8203	85.7529	90.8203	85.6931	90.8203	85.8348	90.8203	85.6538	90.8203	85.9388	90.8203	85.6322	90.8203	86.0628	90.8203	85.6245	90.8203	86.2031	90.8203	85.6268	90.8203	86.3543	90.8203	85.6352	90.8203	86.5093	90.8203	85.647	90.8203	86.6604	90.8203	85.6605	90.8203	86.7991	90.8203	85.6758	90.8203	86.9168	90.8203	85.6947	90.8203	87.0059	90.8203	85.7206	90.8203	87.0597	90.8203	85.7585	90.8203	87.0737	90.8203	85.8135	90.8203	87.046	90.8203	85.8905	90.8203	86.9777	90.8203	85.992	90.8203	86.873	90.8203	86.118	90.8203	86.739	90.8203	86.2642	90.8203	86.5855	90.8203	86.4234
93.75	86.1779	93.75	86.1068	93.75	86.2646	93.75	86.0505	93.75	86.3666	93.75	86.0068	93.75	86.4818	93.75	85.973	93.75	86.6066	93.75	85.9457	93.75	86.7361	93.75	85.9219	93.75	86.8644	93.75	85.8997	93.75	86.9845	93.75	85.8779	93.75	87.0892	93.75	85.8572	93.75	87.171	93.75	85.8401	93.75	87.2232	93.75	85.831	93.75	87.24	93.75	85.8356	93.75	87.2177	93.75	85.8604	93.75	87.1549	93.75	85.9116	93.75	87.0537	93.75	85.9933	93.75	86.9192	93.75	86.1068	93.75	86.7598	93.75	86.2488	93.75	86.5867	93.75	86.4123
96.6797	86.4391	96.6797	86.3676	96.6797	86.5245	96.6797	86.3087	96.6797	86.6238	96.6797	86.2596	96.6797	86.7349	96.6797	86.217	96.6797	86.8543	96.6797	86.1771	96.6797	86.9767	96.6797	86.1366	96.6797	87.0956	96.6797	86.0931	96.6797	87.2037	96.6797	86.046	96.6797	87.2934	96.6797	85.9963	96.6797	87.3568	96.6797	85.9473	96.6797	87.3872	96.6797	85.9046	96.6797	87.379	96.6797	85.8759	96.6797	87.3289	96.6797	85.8696	96.6797	87.2365	96.6797	85.8942	96.6797	87.1049	96.6797	85.9561	96.6797	86.9408	96.6797	86.0582	96.6797	86.7545	96.6797	86.1983	96.6797	86.5592	96.6797	86.3691
102.539	86.5791	102.539	86.5043	102.539	86.669	102.539	86.4439	102.539	86.7733	102.539	86.3954	102.539	86.8894	102.539	86.3558	102.539	87.0133	102.539	86.3212	102.539	87.1398	102.539	86.2881	102.539	87.2624	102.539	86.2539	102.539	87.3742	102.539	86.2171	102.539	87.4679	102.539	86.1784	102.539	87.5361	102.539	86.1405	102.539	87.5721	102.539	86.1086	102.539	87.5705	102.539	86.0895	102.539	87.5278	102.539	86.0915	102.539	87.4431	102.539	86.1226	102.539	87.3189	102.539	86.189	102.539	87.1617	102.539	86.2934	102.539	86.9813	102.539	86.4339	102.539	86.7904	102.539	86.6034
105.469	86.636	105.469	86.5619	105.469	86.7239	105.469	86.5008	105.469	86.8248	105.469	86.4506	105.469	86.9361	105.469	86.4081	105.469	87.0539	105.469	86.3696	105.469	87.1732	105.469	86.3316	105.469	87.2879	105.469	86.2915	105.469	87.3914	105.469	86.248	105.469	87.4768	105.469	86.2018	105.469	87.5372	105.469	86.1559	105.469	87.5661	105.469	86.1155	105.469	87.5581	105.469	86.0878	105.469	87.5098	105.469	86.0813	105.469	87.4203	105.469	86.1045	105.469	87.292	105.469	86.1642	105.469	87.1313	105.469	86.2634	105.469	86.9482	105.469	86.4005	105.469	86.7557	105.469	86.5684
108.398	86.7416	108.398	86.6641	108.398	86.832	108.398	86.5991	108.398	86.934	108.398	86.5445	108.398	87.045	108.398	86.4974	108.398	87.1609	108.398	86.454	108.398	87.2763	108.398	86.4109	108.398	87.3855	108.398	86.3654	108.398	87.4819	108.398	86.3162	108.398	87.5591	108.398	86.2639	108.398	87.6104	108.398	86.2115	108.398	87.6299	108.398	86.1641	108.398	87.6126	108.398	86.1292	108.398	87.5553	108.398	86.1156	108.398	87.4574	108.398	86.132	108.398	87.3215	108.398	86.1857	108.398	87.1543	108.398	86.2803	108.398	86.9661	108.398	86.4145	108.398	86.7702	108.398	86.5816
111.328	86.8965	111.328	86.8135	111.328	86.9916	111.328	86.7425	111.328	87.0974	111.328	86.6817	111.328	87.211	111.328	86.6282	111.328	87.3279	111.328	86.5784	111.328	87.4431	111.328	86.529	111.328	87.5505	111.328	86.4772	111.328	87.6438	111.328	86.4217	111.328	87.7166	111.328	86.3634	111.328	87.7626	111.328	86.3051	111.328	87.7758	111.328	86.2522	111.328	87.7514	111.328	86.2125	111.328	87.6864	111.328	86.1948	111.328	87.5803	111.328	86.2084	111.328	87.4359	111.328	86.2608	111.328	87.26	111.328	86.356	111.328	87.0633	111.328	86.4929	111.328	86.8597	111.328	86.6647
117.188	87.07	117.188	86.9837	117.188	87.167	117.188	86.9086	117.188	87.273	117.188	86.8432	117.188	87.3845	117.188	86.7848	117.188	87.4971	117.188	86.7301	117.188	87.6055	117.188	86.6755	117.188	87.7044	117.188	86.6183	117.188	87.7879	117.188	86.557	117.188	87.8506	117.188	86.4925	117.188	87.8868	117.188	86.4278	117.188	87.8915	117.188	86.3685	117.188	87.8603	117.188	86.3224	117.188	87.79	117.188	86.299	117.188	87.68	117.188	86.3078	117.188	87.5329	117.188	86.3564	117.188	87.355	117.188	86.449	117.188	87.1567	117.188	86.5846	117.188	86.952	117.188	86.7563
120.117	87.2176	120.117	87.1288	120.117	87.3159	120.117	87.0502	120.117	87.4212	120.117	86.9812	120.117	87.5298	120.117	86.9194	120.117	87.6371	120.117	86.8617	120.117	87.7378	120.117	86.8049	120.117	87.8268	120.117	86.7461	120.117	87.8988	120.117	86.684	120.117	87.9487	120.117	86.619	120.117	87.9719	120.117	86.5538	120.117	87.9642	120.117	86.4935	120.117	87.9221	120.117	86.4454	120.117	87.8434	120.117	86.4183	120.117	87.7281	120.117	86.4213	120.117	87.5792	120.117	86.462	120.117	87.4033	120.117	86.5447	120.117	87.2105	120.117	86.6691	120.117	87.0143	120.117	86.8292
125.977	87.241	125.977	87.1476	125.977	87.3417	125.977	87.0622	125.977	87.4476	125.977	86.9836	125.977	87.555	125.977	86.9098	125.977	87.6595	125.977	86.8378	125.977	87.7558	125.977	86.7645	125.977	87.8386	125.977	86.6876	125.977	87.9022	125.977	86.6059	125.977	87.9414	125.977	86.5205	125.977	87.951	125.977	86.4345	125.977	87.9266	125.977	86.3535	125.977	87.8644	125.977	86.2853	125.977	87.7627	125.977	86.2393	125.977	87.6219	125.977	86.2254	125.977	87.4463	125.977	86.2526	125.977	87.244	125.977	86.3268	125.977	87.0275	125.977	86.449	125.977	86.8121	125.977	86.6144
128.906	87.1632	128.906	87.0704	128.906	87.2633	128.906	86.9852	128.906	87.3686	128.906	86.9063	128.906	87.4758	128.906	86.8309	128.906	87.5802	128.906	86.7556	128.906	87.6768	128.906	86.6773	128.906	87.76	128.906	86.5934	128.906	87.8242	128.906	86.503	128.906	87.8641	128.906	86.4073	128.906	87.8742	128.906	86.3103	128.906	87.8498	128.906	86.2181	128.906	87.7867	128.906	86.1397	128.906	87.6822	128.906	86.0854	128.906	87.5366	128.906	86.0663	128.906	87.3535	128.906	86.092	128.906	87.1413	128.906	86.169	128.906	86.9127	128.906	86.2982	128.906	86.6842	128.906	86.474
134.766	87.1147	134.766	87.0145	134.766	87.224	134.766	86.9242	134.766	87.3394	134.766	86.8427	134.766	87.4568	134.766	86.7676	134.766	87.5711	134.766	86.6951	134.766	87.6769	134.766	86.6217	134.766	87.769	134.766	86.5445	134.766	87.8422	134.766	86.4625	134.766	87.892	134.766	86.3769	134.766	87.9137	134.766	86.2917	134.766	87.9028	134.766	86.2134	134.766	87.8549	134.766	86.1511	134.766	87.7668	134.766	86.1149	134.766	87.6371	134.766	86.1154	134.766	87.4677	134.766	86.1615	134.766	87.2652	134.766	86.258	134.766	87.0412	134.766	86.4044	134.766	86.8112	134.766	86.5933
137.695	87.0694	137.695	86.9631	137.695	87.185	137.695	86.8677	137.695	87.3065	137.695	86.7826	137.695	87.429	137.695	86.7055	137.695	87.5472	137.695	86.6328	137.695	87.6554	137.695	86.5609	137.695	87.7487	137.695	86.4868	137.695	87.8225	137.695	86.4094	137.695	87.8729	137.695	86.3298	137.695	87.8959	137.695	86.2519	137.695	87.8875	137.695	86.1821	137.695	87.8437	137.695	86.1291	137.695	87.7611	137.695	86.1029	137.695	87.638	137.695	86.1133	137.695	87.4755	137.695	86.1684	137.695	87.2795	137.695	86.2724	137.695	87.0604	137.695	86.4241	137.695	86.8333	137.695	86.6155
143.555	86.9476	143.555	86.8243	143.555	87.0767	143.555	86.7103	143.555	87.2065	143.555	86.6071	143.555	87.3312	143.555	86.5138	143.555	87.4449	143.555	86.4282	143.555	87.5425	143.555	86.3473	143.555	87.6199	143.555	86.2684	143.555	87.6742	143.555	86.1903	143.555	87.7033	143.555	86.1136	143.555	87.7057	143.555	86.0418	143.555	87.6795	143.555	85.9805	143.555	87.6227	143.555	85.9374	143.555	87.5329	143.555	85.9211	143.555	87.4088	143.555	85.9398	143.555	87.2511	143.555	86.0002	143.555	87.0642	143.555	86.1052	143.555	86.8571	143.555	86.253	143.555	86.6426	143.555	86.4362
149.414	87.0287	149.414	86.8942	149.414	87.1618	149.414	86.7622	149.414	87.2884	149.414	86.6348	149.414	87.403	149.414	86.5125	149.414	87.5001	149.414	86.3942	149.414	87.5752	149.414	86.2785	149.414	87.6248	149.414	86.1643	149.414	87.6469	149.414	86.0518	149.414	87.6406	149.414	85.9431	149.414	87.6057	149.414	85.8428	149.414	87.542	149.414	85.7571	149.414	87.4493	149.414	85.6941	149.414	87.3268	149.414	85.6621	149.414	87.1742	149.414	85.6688	149.414	86.9933	149.414	85.7197	149.414	86.789	149.414	85.8175	149.414	86.5701	149.414	85.9603	149.414	86.3494	149.414	86.1414
155.273	87.0827	155.273	86.9451	155.273	87.2165	155.273	86.8072	155.273	87.3417	155.273	86.6707	155.273	87.4528	155.273	86.5359	155.273	87.5445	155.273	86.4017	155.273	87.6121	155.273	86.2668	155.273	87.6519	155.273	86.1302	155.273	87.6616	155.273	85.9928	155.273	87.6399	155.273	85.8575	155.273	87.5863	155.273	85.7294	155.273	87.5007	155.273	85.6161	155.273	87.3828	155.273	85.5264	155.273	87.2323	155.273	85.4696	155.273	87.0499	155.273	85.4545	155.273	86.8385	155.273	85.4881	155.273	86.6048	155.273	85.5744	155.273	86.3601	155.273	85.713	155.273	86.119	155.273	85.8983
158.203	87.0781	158.203	86.9419	158.203	87.211	158.203	86.8056	158.203	87.336	158.203	86.6708	158.203	87.4478	158.203	86.5375	158.203	87.5411	158.203	86.4043	158.203	87.6113	158.203	86.2699	158.203	87.655	158.203	86.1333	158.203	87.67	158.203	85.9956	158.203	87.6551	158.203	85.8598	158.203	87.6098	158.203	85.7318	158.203	87.5338	158.203	85.6193	158.203	87.426	158.203	85.5316	158.203	87.2853	158.203	85.4784	158.203	87.111	158.203	85.4687	158.203	86.905	158.203	85.5096	158.203	86.6731	158.203	85.605	158.203	86.4259	158.203	85.7538	158.203	86.1788	158.203	85.9493
164.063	87.0164	164.063	86.8784	164.063	87.1516	164.063	86.7414	164.063	87.2785	164.063	86.6075	164.063	87.3911	164.063	86.4766	164.063	87.4834	164.063	86.3474	164.063	87.5506	164.063	86.2183	164.063	87.5891	164.063	86.0883	164.063	87.5975	164.063	85.9584	164.063	87.5759	164.063	85.832	164.063	87.5251	164.063	85.7147	164.063	87.4466	164.063	85.6145	164.063	87.341	164.063	85.5402	164.063	87.208	164.063	85.5005	164.063	87.0472	164.063	85.503	164.063	86.8595	164.063	85.5529	164.063	86.6491	164.063	85.6522	164.063	86.4242	164.063	85.7982	164.063	86.1975	164.063	85.984
169.922	86.8233	169.922	86.6908	169.922	86.9525	169.922	86.5589	169.922	87.0727	169.922	86.4299	169.922	87.1779	169.922	86.3037	169.922	87.2623	169.922	86.1792	169.922	87.3212	169.922	86.0545	169.922	87.3521	169.922	85.9288	169.922	87.354	169.922	85.8034	169.922	87.3281	169.922	85.6818	169.922	87.2761	169.922	85.5699	169.922	87.1999	169.922	85.4753	169.922	87.1002	169.922	85.4064	169.922	86.9763	169.922	85.3709	169.922	86.8269	169.922	85.3752	169.922	86.6519	169.922	85.4235	169.922	86.4547	169.922	85.5172	169.922	86.2432	169.922	85.6545	169.922	86.0298	169.922	85.8289
175.781	86.6683	175.781	86.5215	175.781	86.8099	175.781	86.3748	175.781	86.9398	175.781	86.2313	175.781	87.0509	175.781	86.0919	175.781	87.1368	175.781	85.9561	175.781	87.193	175.781	85.8226	175.781	87.2168	175.781	85.691	175.781	87.2081	175.781	85.5628	175.781	87.1691	175.781	85.442	175.781	87.1032	175.781	85.3348	175.781	87.0142	175.781	85.2485	175.781	86.9043	175.781	85.1907	175.781	86.774	175.781	85.1676	175.781	86.6224	175.781	85.1838	175.781	86.4492	175.781	85.2415	175.781	86.2568	175.781	85.3407	175.781	86.052	175.781	85.479	175.781	85.8455	175.781	85.6504
181.641	86.6395	181.641	86.4754	181.641	86.7936	181.641	86.3067	181.641	86.9307	181.641	86.1373	181.641	87.0441	181.641	85.9691	181.641	87.1276	181.641	85.8024	181.641	87.1767	181.641	85.6372	181.641	87.1892	181.641	85.4746	181.641	87.1653	181.641	85.3174	181.641	87.1077	181.641	85.1713	181.641	87.0207	181.641	85.0436	181.641	86.9088	181.641	84.943	181.641	86.7751	181.641	84.8771	181.641	86.6208	181.641	84.8518	181.641	86.4454	181.641	84.8703	181.641	86.2491	181.641	84.9337	181.641	86.0346	181.641	85.0412	181.641	85.8093	181.641	85.1898	181.641	85.5847	181.641	85.3741
190.43	86.6245	190.43	86.4706	190.43	86.7673	190.43	86.3105	190.43	86.8922	190.43	86.1469	190.43	86.992	190.43	85.9799	190.43	87.0599	190.43	85.8083	190.43	87.0911	190.43	85.6308	190.43	87.0833	190.43	85.448	190.43	87.0374	190.43	85.2634	190.43	86.9574	190.43	85.0839	190.43	86.8493	190.43	84.9198	190.43	86.7194	190.43	84.7827	190.43	86.5719	190.43	84.6836	190.43	86.4079	190.43	84.6308	190.43	86.2257	190.43	84.629	190.43	86.0236	190.43	84.6797	190.43	85.8029	190.43	84.7815	190.43	85.5702	190.43	84.9304	190.43	85.3374	190.43	85.1194
196.289	86.5073	196.289	86.3533	196.289	86.6506	196.289	86.1951	196.289	86.7752	196.289	86.0365	196.289	86.8728	196.289	85.8784	196.289	86.9361	196.289	85.7199	196.289	86.9603	196.289	85.5596	196.289	86.9439	196.289	85.3974	196.289	86.8894	196.289	85.2362	196.289	86.8025	196.289	85.0821	196.289	86.6914	196.289	84.944	196.289	86.5643	196.289	84.8319	196.289	86.4268	196.289	84.7548	196.289	86.28	196.289	84.7187	196.289	86.1216	196.289	84.7264	196.289	85.9479	196.289	84.7779	196.289	85.7586	196.289	84.8713	196.289	85.5583	196.289	85.0033	196.289	85.3573	196.289	85.1683
202.148	86.4717	202.148	86.2999	202.148	86.6257	202.148	86.1182	202.148	86.7527	202.148	85.9326	202.148	86.8438	202.148	85.7465	202.148	86.8921	202.148	85.5613	202.148	86.8931	202.148	85.3777	202.148	86.8464	202.148	85.1975	202.148	86.7559	202.148	85.0247	202.148	86.6301	202.148	84.866	202.148	86.4803	202.148	84.7301	202.148	86.3186	202.148	84.6252	202.148	86.1541	202.148	84.5578	202.148	85.9904	202.148	84.5304	202.148	85.8255	202.148	84.5425	202.148	85.6545	202.148	84.5918	202.148	85.4751	202.148	84.6759	202.148	85.2901	202.148	84.7925	202.148	85.1076	202.148	84.9385
210.938	86.3923	210.938	86.2286	210.938	86.5363	210.938	86.0501	210.938	86.6538	210.938	85.8594	210.938	86.7373	210.938	85.6569	210.938	86.7799	210.938	85.4421	210.938	86.7767	210.938	85.2159	210.938	86.7261	210.938	84.9819	210.938	86.6308	210.938	84.7483	210.938	86.4978	210.938	84.528	210.938	86.3379	210.938	84.3362	210.938	86.1628	210.938	84.1877	210.938	85.982	210.938	84.0929	210.938	85.7993	210.938	84.0556	210.938	85.6128	210.938	84.0733	210.938	85.4174	210.938	84.1402	210.938	85.2104	210.938	84.25	210.938	84.9947	210.938	84.3973	210.938	84.7793	210.938	84.5765
216.797	86.1866	216.797	86.0207	216.797	86.3361	216.797	85.8457	216.797	86.4595	216.797	85.6654	216.797	86.5471	216.797	85.4802	216.797	86.5904	216.797	85.2885	216.797	86.584	216.797	85.0888	216.797	86.5275	216.797	84.8823	216.797	86.4255	216.797	84.6751	216.797	86.2886	216.797	84.4784	216.797	86.1313	216.797	84.3066	216.797	85.9686	216.797	84.1743	216.797	85.8109	216.797	84.0921	216.797	85.6604	216.797	84.0642	216.797	85.5106	216.797	84.0887	216.797	85.3515	216.797	84.1599	216.797	85.1758	216.797	84.2716	216.797	84.9841	216.797	84.4178	216.797	84.7852	216.797	84.5922
225.586	86.3482	225.586	86.1677	225.586	86.5015	225.586	85.9676	225.586	86.6175	225.586	85.7522	225.586	86.6855	225.586	85.5233	225.586	86.6957	225.586	85.2812	225.586	86.6411	225.586	85.0271	225.586	86.5196	225.586	84.7667	225.586	86.3358	225.586	84.5107	225.586	86.1032	225.586	84.2757	225.586	85.8439	225.586	84.0807	225.586	85.586	225.586	83.9427	225.586	85.3559	225.586	83.8713	225.586	85.1689	225.586	83.8657	225.586	85.0235	225.586	83.9162	225.586	84.9048	225.586	84.0083	225.586	84.7932	225.586	84.1278	225.586	84.6745	225.586	84.2629	225.586	84.5439	225.586	84.4044
234.375	86.2649	234.375	86.0627	234.375	86.4475	234.375	85.8504	234.375	86.598	234.375	85.6329	234.375	86.7031	234.375	85.41	234.375	86.7511	234.375	85.1787	234.375	86.733	234.375	84.9362	234.375	86.6447	234.375	84.6839	234.375	86.4871	234.375	84.4298	234.375	86.2679	234.375	84.1893	234.375	86.0014	234.375	83.9818	234.375	85.7075	234.375	83.8253	234.375	85.4076	234.375	83.7301	234.375	85.1201	234.375	83.6946	234.375	84.8565	234.375	83.7069	234.375	84.6213	234.375	83.751	234.375	84.4157	234.375	83.8136	234.375	84.2406	234.375	83.8895	234.375	84.0966	234.375	83.9815
240.234	86.0964	240.234	85.8907	240.234	86.2798	240.234	85.6729	240.234	86.428	240.234	85.4481	240.234	86.5275	240.234	85.2161	240.234	86.5669	240.234	84.9735	240.234	86.5381	240.234	84.7169	240.234	86.4383	240.234	84.4478	240.234	86.271	240.234	84.1755	240.234	86.0474	240.234	83.9176	240.234	85.786	240.234	83.6968	240.234	85.5103	240.234	83.5341	240.234	85.2423	240.234	83.441	240.234	84.9956	240.234	83.4157	240.234	84.7719	240.234	83.4448	240.234	84.5645	240.234	83.5112	240.234	84.3661	240.234	83.602	240.234	84.1761	240.234	83.7126	240.234	83.9999	240.234	83.8446
249.023	86.0675	249.023	85.8188	249.023	86.2863	249.023	85.5526	249.023	86.4606	249.023	85.2769	249.023	86.5762	249.023	84.9934	249.023	86.6214	249.023	84.6988	249.023	86.5879	249.023	84.3885	249.023	86.4719	249.023	84.0619	249.023	86.2752	249.023	83.7262	249.023	86.0069	249.023	83.399	249.023	85.6834	249.023	83.1054	249.023	85.328	249.023	82.8715	249.023	84.9659	249.023	82.715	249.023	84.6171	249.023	82.639	249.023	84.2915	249.023	82.6323	249.023	83.9895	249.023	82.6777	249.023	83.7085	249.023	82.7613	249.023	83.4505	249.023	82.8782	249.023	83.2221	249.023	83.0307
257.813	85.9929	257.813	85.7677	257.813	86.1941	257.813	85.531	257.813	86.3568	257.813	85.2909	257.813	86.4671	257.813	85.0493	257.813	86.5133	257.813	84.8028	257.813	86.4875	257.813	84.5466	257.813	86.3865	257.813	84.2787	257.813	86.2134	257.813	84.0041	257.813	85.9782	257.813	83.7367	257.813	85.6986	257.813	83.4967	257.813	85.3971	257.813	83.3053	257.813	85.0957	257.813	83.177	257.813	84.8093	257.813	83.1143	257.813	84.5415	257.813	83.1086	257.813	84.2884	257.813	83.1462	257.813	84.0468	257.813	83.2162	257.813	83.82	257.813	83.3159	257.813	83.6175	257.813	83.4485
266.602	85.6261	266.602	85.3278	266.602	85.8949	266.602	85.0181	266.602	86.1152	266.602	84.7107	266.602	86.2702	266.602	84.4114	266.602	86.3469	266.602	84.1181	266.602	86.3362	266.602	83.8243	266.602	86.2341	266.602	83.5252	266.602	86.043	266.602	83.2242	266.602	85.7726	266.602	82.9353	266.602	85.4426	266.602	82.682	266.602	85.0807	266.602	82.4891	266.602	84.7181	266.602	82.3735	266.602	84.3797	266.602	82.337	266.602	84.0754	266.602	82.3676	266.602	83.801	266.602	82.4475	266.602	83.5459	266.602	82.5622	266.602	83.3044	266.602	82.7059	266.602	83.0796	266.602	82.8784
278.32	85.4566	278.32	85.2439	278.32	85.6303	278.32	84.9995	278.32	85.7554	278.32	84.7269	278.32	85.8222	278.32	84.4262	278.32	85.8233	278.32	84.0974	278.32	85.7561	278.32	83.7447	278.32	85.6245	278.32	83.3815	278.32	85.4408	278.32	83.0332	278.32	85.2256	278.32	82.7346	278.32	85.0041	278.32	82.5204	278.32	84.7981	278.32	82.411	278.32	84.6155	278.32	82.4026	278.32	84.4447	278.32	82.4679	278.32	84.261	278.32	82.5703	278.32	84.0428	278.32	82.6799	278.32	83.787	278.32	82.7869	278.32	83.5145	278.32	82.9037	278.32	83.2608	278.32	83.0555
287.109	85.5265	287.109	85.2945	287.109	85.72	287.109	85.0374	287.109	85.8579	287.109	84.7616	287.109	85.9232	287.109	84.4654	287.109	85.9027	287.109	84.1421	287.109	85.7888	287.109	83.7859	287.109	85.5829	287.109	83.4003	287.109	85.2983	287.109	83.0037	287.109	84.9641	287.109	82.6305	287.109	84.625	287.109	82.3244	287.109	84.3318	287.109	82.1228	287.109	84.1199	287.109	82.0406	287.109	83.9879	287.109	82.0644	287.109	83.8961	287.109	82.1627	287.109	83.791	287.109	82.3052	287.109	83.634	287.109	82.4765	287.109	83.4179	287.109	82.6765	287.109	83.1648	287.109	82.9087
295.898	85.6073	295.898	85.3469	295.898	85.8345	295.898	85.0703	295.898	86.0071	295.898	84.7852	295.898	86.1041	295.898	84.4868	295.898	86.1086	295.898	84.1613	295.898	86.0092	295.898	83.7938	295.898	85.802	295.898	83.3784	295.898	85.4928	295.898	82.9266	295.898	85.102	295.898	82.4717	295.898	84.6675	295.898	82.0657	295.898	84.2428	295.898	81.7638	295.898	83.8816	295.898	81.6024	295.898	83.612	295.898	81.5825	295.898	83.4209	295.898	81.6726	295.898	83.265	295.898	81.8301	295.898	83.1003	295.898	82.0221	295.898	82.9056	295.898	82.2323	295.898	82.6849	295.898	82.4555
307.617	85.3723	307.617	85.0874	307.617	85.619	307.617	84.7902	307.617	85.8023	307.617	84.5004	307.617	85.9021	307.617	84.2242	307.617	85.9048	307.617	83.9537	307.617	85.8035	307.617	83.6734	307.617	85.5982	307.617	83.3711	307.617	85.2979	307.617	83.0481	307.617	84.9242	307.617	82.7239	307.617	84.514	307.617	82.433	307.617	84.1173	307.617	82.2132	307.617	83.7821	307.617	82.0899	307.617	83.533	307.617	82.0645	307.617	83.3579	307.617	82.116	307.617	83.22	307.617	82.2144	307.617	83.0833	307.617	82.3356	307.617	82.9322	307.617	82.4692	307.617	82.7716	307.617	82.6146
319.336	85.3409	319.336	85.0033	319.336	85.6226	319.336	84.6406	319.336	85.822	319.336	84.28	319.336	85.9197	319.336	83.9373	319.336	85.904	319.336	83.6126	319.336	85.7702	319.336	83.2955	319.336	85.5214	319.336	82.976	319.336	85.1707	319.336	82.6563	319.336	84.7465	319.336	82.3552	319.336	84.2952	319.336	82.1032	319.336	83.8755	319.336	81.9294	319.336	83.5372	319.336	81.8458	319.336	83.2937	319.336	81.84	319.336	83.1132	319.336	81.8823	319.336	82.9449	319.336	81.9426	319.336	82.7545	319.336	82.006	319.336	82.5445	319.336	82.0803	319.336	82.3451	319.336	82.1878
331.055	85.4026	331.055	85.0611	331.055	85.6694	331.055	84.6687	331.055	85.8444	331.055	84.2522	331.055	85.9164	331.055	83.8353	331.055	85.8792	331.055	83.4333	331.055	85.7305	331.055	83.0526	331.055	85.4737	331.055	82.6974	331.055	85.1225	331.055	82.3789	331.055	84.7084	331.055	82.1188	331.055	84.2863	331.055	81.9438	331.055	83.9279	331.055	81.8717	331.055	83.6928	331.055	81.8994	331.055	83.5895	331.055	82.0027	331.055	83.5655	331.055	82.1484	331.055	83.5418	331.055	82.3106	331.055	83.4594	331.055	82.4803	331.055	83.3023	331.055	82.6641	331.055	83.0932	331.055	82.8707
342.773	85.5187	342.773	85.1659	342.773	85.7841	342.773	84.7437	342.773	85.947	342.773	84.2711	342.773	85.9948	342.773	83.7653	342.773	85.9178	342.773	83.2409	342.773	85.7087	342.773	82.714	342.773	85.3652	342.773	82.2115	342.773	84.8961	342.773	81.7793	342.773	84.3314	342.773	81.4802	342.773	83.7364	342.773	81.3703	342.773	83.2141	342.773	81.4656	342.773	82.8741	342.773	81.7264	342.773	82.7663	342.773	82.0773	342.773	82.8424	342.773	82.4406	342.773	82.9983	342.773	82.7593	342.773	83.1452	342.773	83.003	342.773	83.2403	342.773	83.1646	342.773	83.2754	342.773	83.2517
354.492	85.642	354.492	85.3463	354.492	85.8613	354.492	84.9909	354.492	85.9865	354.492	84.5869	354.492	86.002	354.492	84.1357	354.492	85.8949	354.492	83.6298	354.492	85.6549	354.492	83.0611	354.492	85.2761	354.492	82.436	354.492	84.7621	354.492	81.7929	354.492	84.1354	354.492	81.2127	354.492	83.453	354.492	80.8052	354.492	82.8128	354.492	80.6575	354.492	82.3298	354.492	80.7723	354.492	82.0684	354.492	81.0625	354.492	81.994	354.492	81.4076	354.492	82.0111	354.492	81.7103	354.492	82.0407	354.492	81.9194	354.492	82.0564	354.492	82.0282	354.492	82.0642	354.492	82.0634
366.211	85.734	366.211	85.4385	366.211	85.9483	366.211	85.0794	366.211	86.0641	366.211	84.6689	366.211	86.0673	366.211	84.2078	366.211	85.9467	366.211	83.6841	366.211	85.694	366.211	83.0818	366.211	85.3045	366.211	82.3961	366.211	84.7815	366.211	81.654	366.211	84.1466	366.211	80.9305	366.211	83.4524	366.211	80.3476	366.211	82.7882	366.211	80.027	366.211	82.2532	366.211	80.0079	366.211	81.8956	366.211	80.2122	366.211	81.6753	366.211	80.5019	366.211	81.5063	366.211	80.7579	366.211	81.3339	366.211	80.9186	366.211	81.1684	366.211	80.9844	366.211	81.0536	366.211	81.006
377.93	85.692	377.93	85.4111	377.93	85.9073	377.93	85.0898	377.93	86.0333	377.93	84.7456	377.93	86.0515	377.93	84.3771	377.93	85.9472	377.93	83.9614	377.93	85.7079	377.93	83.4644	377.93	85.3234	377.93	82.8602	377.93	84.7918	377.93	82.1523	377.93	84.1331	377.93	81.3926	377.93	83.4103	377.93	80.6907	377.93	82.7444	377.93	80.1904	377.93	82.2794	377.93	79.9931	377.93	82.0796	377.93	80.0816	377.93	82.0618	377.93	80.3381	377.93	82.0689	377.93	80.6337	377.93	81.9892	377.93	80.8947	377.93	81.8041	377.93	81.1144	377.93	81.5635	377.93	81.3276
392.578	84.8474	392.578	84.5504	392.578	85.0944	392.578	84.2386	392.578	85.2596	392.578	83.94	392.578	85.3183	392.578	83.6604	392.578	85.2516	392.578	83.3772	392.578	85.0454	392.578	83.0496	392.578	84.6912	392.578	82.6408	392.578	84.1913	392.578	82.1388	392.578	83.5702	392.578	81.57	392.578	82.8914	392.578	81.0032	392.578	82.2646	392.578	80.5355	392.578	81.8095	392.578	80.2516	392.578	81.5734	392.578	80.1744	392.578	81.487	392.578	80.2527	392.578	81.4277	392.578	80.401	392.578	81.315	392.578	80.5515	392.578	81.1453	392.578	80.6815	392.578	80.9635	392.578	80.8091
407.227	84.9212	407.227	84.4818	407.227	85.2564	407.227	83.9855	407.227	85.4556	407.227	83.4875	407.227	85.4998	407.227	83.0279	407.227	85.376	407.227	82.6104	407.227	85.0726	407.227	82.2032	407.227	84.579	407.227	81.7668	407.227	83.8921	407.227	81.2882	407.227	83.0366	407.227	80.8013	407.227	82.1027	407.227	80.3849	407.227	81.282	407.227	80.1305	407.227	80.8093	407.227	80.0871	407.227	80.7606	407.227	80.2262	407.227	80.9602	407.227	80.4622	407.227	81.1681	407.227	80.7039	407.227	81.2592	407.227	80.8925	407.227	81.2372	407.227	81.0137	407.227	81.1657	407.227	81.0927
421.875	85.6789	421.875	85.2347	421.875	86.0092	421.875	84.7162	421.875	86.2041	421.875	84.1778	421.875	86.2524	421.875	83.6706	421.875	86.1464	421.875	83.2151	421.875	85.8765	421.875	82.7902	421.875	85.4313	421.875	82.3537	421.875	84.8035	421.875	81.8759	421.875	84.005	421.875	81.3664	421.875	83.0978	421.875	80.8806	421.875	82.226	421.875	80.5023	421.875	81.5897	421.875	80.2995	421.875	81.2967	421.875	80.2776	421.875	81.2399	421.875	80.3715	421.875	81.2091	421.875	80.4866	421.875	81.0774	421.875	80.5529	421.875	80.8616	421.875	80.5619	421.875	80.6664	421.875	80.5725
436.523	86.0514	436.523	85.6541	436.523	86.3062	436.523	85.1288	436.523	86.4128	436.523	84.5042	436.523	86.3675	436.523	83.8237	436.523	86.1643	436.523	83.1381	436.523	85.7936	436.523	82.4962	436.523	85.2451	436.523	81.9427	436.523	84.5179	436.523	81.523	436.523	83.6455	436.523	81.2832	436.523	82.743	436.523	81.2519	436.523	82.0418	436.523	81.414	436.523	81.7831	436.523	81.7049	436.523	81.9657	436.523	82.0342	436.523	82.3239	436.523	82.3178	436.523	82.5941	436.523	82.4992	436.523	82.6744	436.523	82.5617	436.523	82.6113	436.523	82.5369	436.523	82.5227	436.523	82.4992
451.172	86.6782	451.172	86.3675	451.172	86.8694	451.172	85.951	451.172	86.9297	451.172	85.445	451.172	86.8471	451.172	84.8628	451.172	86.6059	451.172	84.2101	451.172	86.1847	451.172	83.4873	451.172	85.5565	451.172	82.7065	451.172	84.6936	451.172	81.9183	451.172	83.5897	451.172	81.2338	451.172	82.3247	451.172	80.8048	451.172	81.1785	451.172	80.7329	451.172	80.617	451.172	80.9759	451.172	80.8185	451.172	81.3741	451.172	81.387	451.172	81.7596	451.172	81.8682	451.172	82.0236	451.172	82.0892	451.172	82.1299	451.172	82.1013	451.172	82.1114	451.172	82.052	451.172	82.0559
465.82	86.6361	465.82	86.27	465.82	86.9057	465.82	85.8422	465.82	87.0475	465.82	85.3764	465.82	87.039	465.82	84.8685	465.82	86.8631	465.82	84.2844	465.82	86.5017	465.82	83.5793	465.82	85.9279	465.82	82.7323	465.82	85.1023	465.82	81.7875	465.82	83.9837	465.82	80.8933	465.82	82.5811	465.82	80.2946	465.82	81.1019	465.82	80.1874	465.82	80.1396	465.82	80.5269	465.82	80.254	465.82	81.0751	465.82	81.0793	465.82	81.6054	465.82	81.895	465.82	81.9975	465.82	82.3794	465.82	82.2276	465.82	82.5358	465.82	82.3416	465.82	82.5013	465.82	82.4181
483.398	86.394	483.398	86.0253	483.398	86.6329	483.398	85.5612	483.398	86.7333	483.398	85.056	483.398	86.7005	483.398	84.5543	483.398	86.5387	483.398	84.0547	483.398	86.2396	483.398	83.5067	483.398	85.7785	483.398	82.8468	483.398	85.1162	483.398	82.049	483.398	84.2093	483.398	81.169	483.398	83.0395	483.398	80.3716	483.398	81.6808	483.398	79.8948	483.398	80.409	483.398	79.8863	483.398	79.684	483.398	80.2565	483.398	79.7135	483.398	80.7716	483.398	80.1821	483.398	81.2335	483.398	80.7044	483.398	81.5391	483.398	81.1231	483.398	81.6595	483.398	81.4236	483.398	81.6098
500.977	86.1989	500.977	85.7561	500.977	86.5108	500.977	85.2214	500.977	86.6788	500.977	84.6602	500.977	86.6992	500.977	84.1335	500.977	86.5646	500.977	83.6491	500.977	86.2579	500.977	83.1486	500.977	85.7498	500.977	82.5517	500.977	84.9989	500.977	81.8173	500.977	83.9596	500.977	80.991	500.977	82.6244	500.977	80.2319	500.977	81.144	500.977	79.776	500.977	80.0133	500.977	79.7757	500.977	79.8377	500.977	80.1513	500.977	80.4687	500.977	80.6806	500.977	81.2348	500.977	81.1791	500.977	81.7596	500.977	81.5615	500.977	81.9995	500.977	81.8169	500.977	82.0411	500.977	81.9705
518.555	85.7176	518.555	85.2762	518.555	85.9753	518.555	84.6632	518.555	86.0679	518.555	83.9434	518.555	86.0212	518.555	83.2297	518.555	85.8527	518.555	82.6279	518.555	85.5651	518.555	82.1602	518.555	85.1443	518.555	81.7575	518.555	84.5584	518.555	81.3361	518.555	83.7618	518.555	80.8755	518.555	82.7114	518.555	80.4454	518.555	81.4022	518.555	80.1792	518.555	79.9405	518.555	80.1916	518.555	78.6542	518.555	80.4879	518.555	78.0717	518.555	80.959	518.555	78.4464	518.555	81.4529	518.555	79.4183	518.555	81.8313	518.555	80.4771	518.555	81.9834	518.555	81.32	518.555	81.8275
536.133	85.9641	536.133	85.6804	536.133	86.0155	536.133	85.1387	536.133	85.8594	536.133	84.3346	536.133	85.5135	536.133	83.3259	536.133	84.9865	536.133	82.2762	536.133	84.2761	536.133	81.4341	536.133	83.3751	536.133	80.9676	536.133	82.301	536.133	80.81	536.133	81.1699	536.133	80.7674	536.133	80.2719	536.133	80.7156	536.133	79.9174	536.133	80.6573	536.133	80.0204	536.133	80.6729	536.133	80.1464	536.133	80.8338	536.133	80.0009	536.133	81.129	536.133	79.6718	536.133	81.4591	536.133	79.578	536.133	81.6871	536.133	80.0178	536.133	81.6871	536.133	80.7522	536.133	81.3736
553.711	85.778	553.711	85.5339	553.711	85.8586	553.711	85.1041	553.711	85.7896	553.711	84.4636	553.711	85.5765	553.711	83.6017	553.711	85.2127	553.711	82.551	553.711	84.671	553.711	81.4167	553.711	83.8978	553.711	80.3818	553.711	82.8164	553.711	79.6458	553.711	81.3544	553.711	79.3071	553.711	79.5472	553.711	79.3178	553.711	77.8321	553.711	79.5593	553.711	77.1697	553.711	79.9187	553.711	77.7195	553.711	80.3017	553.711	78.4798	553.711	80.621	553.711	78.8595	553.711	80.7934	553.711	78.9104	553.711	80.7481	553.711	78.9843	553.711	80.4469	553.711	79.3514	553.711	79.9257
574.219	85.5631	574.219	85.2826	574.219	85.6562	574.219	84.8204	574.219	85.5684	574.219	84.1989	574.219	85.3132	574.219	83.4541	574.219	84.9058	574.219	82.6205	574.219	84.3559	574.219	81.7117	574.219	83.6554	574.219	80.723	574.219	82.7679	574.219	79.6754	574.219	81.6302	574.219	78.6948	574.219	80.1846	574.219	78.0574	574.219	78.48	574.219	78.0313	574.219	76.9161	574.219	78.5677	574.219	76.3483	574.219	79.3391	574.219	77.0623	574.219	80.0494	574.219	78.2666	574.219	80.5536	574.219	79.3211	574.219	80.8197	574.219	80.0576	574.219	80.8773	574.219	80.514	574.219	80.7715
594.727	85.096	594.727	85.0503	594.727	85.0067	594.727	84.8538	594.727	84.7756	594.727	84.457	594.727	84.3992	594.727	83.7975	594.727	83.8944	594.727	82.8414	594.727	83.2991	594.727	81.6259	594.727	82.66	594.727	80.2918	594.727	82.0069	594.727	79.0763	594.727	81.311	594.727	78.2191	594.727	80.4385	594.727	77.8286	594.727	79.1373	594.727	77.8658	594.727	77.1431	594.727	78.2306	594.727	74.8883	594.727	78.8038	594.727	75.0893	594.727	79.4568	594.727	77.7105	594.727	80.0812	594.727	79.8894	594.727	80.6191	594.727	81.0693	594.727	81.0604	594.727	81.4672	594.727	81.3832
615.234	84.7025	615.234	84.809	615.234	84.4886	615.234	84.7796	615.234	84.1767	615.234	84.5633	615.234	83.76	615.234	84.0922	615.234	83.2224	615.234	83.3048	615.234	82.5606	615.234	82.1777	615.234	81.8168	615.234	80.7639	615.234	81.1017	615.234	79.2496	615.234	80.5445	615.234	78.0094	615.234	80.1227	615.234	77.48	615.234	79.5257	615.234	77.7558	615.234	78.2432	615.234	78.5053	615.234	75.8161	615.234	79.3603	615.234	73.343	615.234	80.1194	615.234	75.3077	615.234	80.7199	615.234	78.6112	615.234	81.1798	615.234	80.6367	615.234	81.5322	615.234	81.5403	615.234	81.7237
638.672	85.6453	638.672	85.0386	638.672	86.0672	638.672	84.4393	638.672	86.1684	638.672	83.9781	638.672	85.8865	638.672	83.5972	638.672	85.2108	638.672	83.1042	638.672	84.1688	638.672	82.3296	638.672	82.8508	638.672	81.2097	638.672	81.5139	638.672	79.8224	638.672	80.6898	638.672	78.4842	638.672	80.725	638.672	77.8302	638.672	81.0496	638.672	78.3208	638.672	80.6919	638.672	79.5783	638.672	78.7978	638.672	80.9668	638.672	74.8105	638.672	82.1749	638.672	74.9849	638.672	83.152	638.672	80.0614	638.672	83.9439	638.672	83.1065	638.672	84.5552	638.672	84.5015	638.672	84.8424
659.18	87.6194	659.18	86.8826	659.18	87.9454	659.18	85.8735	659.18	87.8403	659.18	84.8974	659.18	87.3314	659.18	84.2689	659.18	86.4446	659.18	83.9469	659.18	85.1724	659.18	83.5478	659.18	83.4902	659.18	82.6984	659.18	81.5276	659.18	81.1665	659.18	80.0648	659.18	78.8709	659.18	80.2147	659.18	76.3601	659.18	81.1768	659.18	76.0167	659.18	81.3676	659.18	78.2989	659.18	79.7857	659.18	80.7211	659.18	75.1361	659.18	82.5434	659.18	72.2363	659.18	83.8408	659.18	79.3561	659.18	84.7595	659.18	83.1735	659.18	85.3496	659.18	84.931	659.18	85.5003
682.617	88.5795	682.617	87.9091	682.617	88.7944	682.617	86.8119	682.617	88.6055	682.617	85.4843	682.617	88.0909	682.617	84.3402	682.617	87.3071	682.617	83.7153	682.617	86.2356	682.617	83.4146	682.617	84.7683	682.617	82.9475	682.617	82.7945	682.617	81.9588	682.617	80.6115	682.617	80.2782	682.617	79.7548	682.617	77.9779	682.617	80.8748	682.617	76.1145	682.617	81.881	682.617	76.9166	682.617	81.3667	682.617	79.4453	682.617	78.3097	682.617	81.8067	682.617	70.8243	682.617	83.6036	682.617	76.0001	682.617	84.8407	682.617	81.7526	682.617	85.4967	682.617	84.3936	682.617	85.443
706.055	88.9769	706.055	88.3646	706.055	89.134	706.055	87.2599	706.055	88.917	706.055	85.757	706.055	88.4074	706.055	84.2369	706.055	87.6487	706.055	83.2998	706.055	86.6085	706.055	83.0268	706.055	85.155	706.055	82.7921	706.055	83.0636	706.055	82.0289	706.055	80.22	706.055	80.4545	706.055	78.0324	706.055	78.0006	706.055	79.266	706.055	75.4709	706.055	81.0938	706.055	75.8533	706.055	81.1437	706.055	78.6965	706.055	78.3438	706.055	81.3344	706.055	69.5453	706.055	83.2869	706.055	75.6156	706.055	84.6235	706.055	81.8373	706.055	85.374	706.055	84.4765	706.055	85.4289
732.422	88.4398	732.422	88.1676	732.422	88.3046	732.422	87.3681	732.422	87.8986	732.422	85.9932	732.422	87.3425	732.422	84.2242	732.422	86.7034	732.422	82.7329	732.422	85.9489	732.422	82.2567	732.422	84.9108	732.422	82.3758	732.422	83.2545	732.422	82.1763	732.422	80.4114	732.422	81.1674	732.422	75.8106	732.422	79.1057	732.422	75.0125	732.422	75.977	732.422	79.3076	732.422	74.0697	732.422	81.2186	732.422	76.8628	732.422	80.2528	732.422	80.2328	732.422	74.7072	732.422	82.606	732.422	64.5067	732.422	84.0994	732.422	78.9487	732.422	84.8102	732.422	83.0691	732.422	84.6161
758.789	88.3323	758.789	88.5883	758.789	87.777	758.789	88.347	758.789	87.1444	758.789	87.4684	758.789	86.6219	758.789	85.9354	758.789	86.2748	758.789	84.0426	758.789	86.0044	758.789	82.5929	758.789	85.5866	758.789	82.134	758.789	84.7116	758.789	82.0059	758.789	82.9426	758.789	81.3696	758.789	79.5738	758.789	79.7775	758.789	74.7818	758.789	76.9719	758.789	77.3306	758.789	73.9471	758.789	81.0439	758.789	75.5854	758.789	81.7896	758.789	79.3236	758.789	79.1711	758.789	82.0424	758.789	68.0841	758.789	83.7035	758.789	74.4389	758.789	84.3757	758.789	81.3989	758.789	83.8427
785.156	87.8626	785.156	88.2672	785.156	87.1595	785.156	88.1577	785.156	86.3666	785.156	87.3846	785.156	85.6453	785.156	85.9711	785.156	85.1115	785.156	84.3191	785.156	84.8075	785.156	83.2188	785.156	84.6195	785.156	82.8735	785.156	84.2388	785.156	82.5456	785.156	83.1796	785.156	81.6227	785.156	80.7126	785.156	79.8886	785.156	75.8482	785.156	77.4032	785.156	74.7613	785.156	75.0081	785.156	79.5036	785.156	75.0985	785.156	80.9886	785.156	77.539	785.156	78.8863	785.156	80.0288	785.156	69.7091	785.156	81.7872	785.156	72.1652	785.156	82.5936	785.156	79.6904	785.156	82.1509
811.523	87.4301	811.523	87.9736	811.523	86.6336	811.523	87.9711	811.523	85.8224	811.523	87.1738	811.523	85.1514	811.523	85.5061	811.523	84.7259	811.523	83.4023	811.523	84.5638	811.523	82.1897	811.523	84.5039	811.523	82.329	811.523	84.1938	811.523	82.4767	811.523	83.1236	811.523	81.7727	811.523	80.5351	811.523	79.961	811.523	75.3418	811.523	76.9599	811.523	74.5118	811.523	73.741	811.523	79.25	811.523	74.5285	811.523	80.407	811.523	77.749	811.523	77.6773	811.523	80.256	811.523	65.3561	811.523	81.7973	811.523	73.5964	811.523	82.4227	811.523	79.8337	811.523	81.9795
840.82	86.8408	840.82	87.6403	840.82	85.9868	840.82	88.0057	840.82	85.202	840.82	87.5115	840.82	84.466	840.82	85.8413	840.82	83.9052	840.82	82.9874	840.82	83.8024	840.82	80.5587	840.82	84.2506	840.82	81.2606	840.82	84.8528	840.82	82.6782	840.82	84.9173	840.82	82.9765	840.82	83.6399	840.82	81.9137	840.82	79.5431	840.82	79.2608	840.82	62.8599	840.82	74.5208	840.82	77.0587	840.82	72.1496	840.82	81.5919	840.82	77.1253	840.82	81.1347	840.82	80.5886	840.82	75.5526	840.82	82.4481	840.82	70.861	840.82	83.1222	840.82	79.5447	840.82	82.4739
870.117	86.4448	870.117	86.8107	870.117	86.0768	870.117	87.1194	870.117	85.5814	870.117	87.0219	870.117	84.8524	870.117	86.0353	870.117	83.8589	870.117	83.6238	870.117	82.7985	870.117	79.073	870.117	82.3766	870.117	74.5888	870.117	83.0797	870.117	78.4361	870.117	84.0619	870.117	81.3302	870.117	84.1903	870.117	82.052	870.117	82.5533	870.117	80.9651	870.117	77.6438	870.117	77.9025	870.117	72.6014	870.117	73.4955	870.117	79.4894	870.117	75.7272	870.117	81.5596	870.117	79.8421	870.117	79.5267	870.117	81.9299	870.117	70.513	870.117	82.1506	870.117	73.0723	870.117	80.0738
902.344	86.5726	902.344	86.4142	902.344	86.6339	902.344	86.4401	902.344	86.3419	902.344	86.4878	902.344	85.6433	902.344	86.0398	902.344	84.5506	902.344	84.6536	902.344	83.0751	902.344	82.0302	902.344	81.4658	902.344	78.1261	902.344	80.6209	902.344	75.294	902.344	81.0847	902.344	76.894	902.344	81.6283	902.344	78.6155	902.344	80.7423	902.344	78.7635	902.344	76.8559	902.344	77.0782	902.344	72.6988	902.344	72.8543	902.344	79.477	902.344	69.2947	902.344	82.2011	902.344	75.1157	902.344	81.1034	902.344	78.5604	902.344	74.9224	902.344	79.2527	902.344	63.5697	902.344	76.7485
931.641	86.6859	931.641	86.384	931.641	86.5747	931.641	85.7861	931.641	86.1191	931.641	85.0836	931.641	85.4534	931.641	84.2768	931.641	84.5957	931.641	83.1215	931.641	83.4382	931.641	81.3178	931.641	81.9206	931.641	78.6413	931.641	80.309	931.641	75.3856	931.641	79.4563	931.641	74.1259	931.641	79.7317	931.641	75.7854	931.641	79.844	931.641	77.0849	931.641	78.2429	931.641	76.9616	931.641	74.0531	931.641	75.2995	931.641	75.1029	931.641	72.8419	931.641	79.1373	931.641	73.3811	931.641	79.5428	931.641	75.9346	931.641	75.993	931.641	76.7107	931.641	69.4518	931.641	74.2959
966.797	86.4214	966.797	86.273	966.797	86.1332	966.797	85.7266	966.797	85.5674	966.797	84.9216	966.797	84.9329	966.797	83.828	966.797	84.2262	966.797	82.193	966.797	83.2822	966.797	79.8785	966.797	82.0938	966.797	77.3535	966.797	80.8792	966.797	75.7713	966.797	79.7708	966.797	75.2454	966.797	78.5714	966.797	74.9028	966.797	77.0842	966.797	74.7462	966.797	75.7976	966.797	74.9632	966.797	75.8676	966.797	75.0197	966.797	77.216	966.797	74.5753	966.797	78.2	966.797	74.5117	966.797	77.2942	966.797	75.5986	966.797	73.6122	966.797	76.3046	966.797	71.5924	966.797	75.0189
999.023	85.8491	999.023	85.6296	999.023	85.7006	999.023	84.9971	999.023	85.3177	999.023	84.1075	999.023	84.7634	999.023	83.0789	999.023	83.9993	999.023	81.703	999.023	82.9393	999.023	79.6877	999.023	81.5897	999.023	77.1953	999.023	80.184	999.023	75.3491	999.023	79.0809	999.023	74.9042	999.023	78.3268	999.023	74.8052	999.023	77.4054	999.023	74.5288	999.023	75.4354	999.023	74.3835	999.023	72.2939	999.023	74.4476	999.023	73.8186	999.023	74.7523	999.023	76.738	999.023	75.6599	999.023	75.9661	999.023	76.9207	999.023	70.0957	999.023	77.5734	999.023	71.5832	999.023	76.4368
1,034.18	86.4271	1,034.18	86.3459	1,034.18	86.222	1,034.18	85.8804	1,034.18	85.937	1,034.18	85.1502	1,034.18	85.6236	1,034.18	84.2822	1,034.18	85.0968	1,034.18	83.113	1,034.18	84.147	1,034.18	81.3375	1,034.18	82.7198	1,034.18	78.8884	1,034.18	81.0041	1,034.18	76.1316	1,034.18	79.5791	1,034.18	73.5988	1,034.18	79.0409	1,034.18	71.6077	1,034.18	78.7855	1,034.18	71.11	1,034.18	77.4551	1,034.18	72.1127	1,034.18	75.0276	1,034.18	73.0366	1,034.18	76.3584	1,034.18	73.8428	1,034.18	78.894	1,034.18	75.3951	1,034.18	78.4396	1,034.18	77.1585	1,034.18	73.6276	1,034.18	77.6917	1,034.18	68.7009	1,034.18	75.5674
1,072.27	86.7858	1,072.27	86.6649	1,072.27	86.6922	1,072.27	86.0424	1,072.27	86.633	1,072.27	84.9814	1,072.27	86.5273	1,072.27	83.9042	1,072.27	86.1358	1,072.27	82.9515	1,072.27	85.3207	1,072.27	81.6484	1,072.27	84.0396	1,072.27	79.6023	1,072.27	82.178	1,072.27	77.2381	1,072.27	79.5092	1,072.27	75.9673	1,072.27	76.6582	1,072.27	75.7823	1,072.27	76.665	1,072.27	75.1818	1,072.27	77.4717	1,072.27	73.5045	1,072.27	74.9882	1,072.27	70.7978	1,072.27	71.831	1,072.27	69.2842	1,072.27	77.769	1,072.27	72.623	1,072.27	79.449	1,072.27	75.8977	1,072.27	76.3443	1,072.27	76.5807	1,072.27	66.355	1,072.27	73.2265
1,110.35	86.3866	1,110.35	86.4515	1,110.35	86.4253	1,110.35	86.2786	1,110.35	86.4375	1,110.35	85.4744	1,110.35	86.2227	1,110.35	84.0852	1,110.35	85.7082	1,110.35	82.5005	1,110.35	84.8364	1,110.35	80.9795	1,110.35	83.6334	1,110.35	79.472	1,110.35	82.1766	1,110.35	77.9503	1,110.35	80.3514	1,110.35	76.4909	1,110.35	77.8294	1,110.35	75.2371	1,110.35	75.2785	1,110.35	74.5699	1,110.35	75.3841	1,110.35	74.402	1,110.35	75.8441	1,110.35	73.67	1,110.35	75.4102	1,110.35	71.7038	1,110.35	77.3663	1,110.35	71.1429	1,110.35	78.7816	1,110.35	73.3716	1,110.35	77.0767	1,110.35	73.8088	1,110.35	71.9777	1,110.35	71.1056
1,148.44	86.3512	1,148.44	86.0021	1,148.44	86.5904	1,148.44	85.4548	1,148.44	86.6318	1,148.44	84.5174	1,148.44	86.3756	1,148.44	83.2234	1,148.44	85.693	1,148.44	81.7464	1,148.44	84.5634	1,148.44	80.1034	1,148.44	83.1984	1,148.44	78.3176	1,148.44	81.7416	1,148.44	76.8812	1,148.44	79.7831	1,148.44	76.3354	1,148.44	76.381	1,148.44	76.3496	1,148.44	73.5405	1,148.44	76.413	1,148.44	76.6155	1,148.44	76.1971	1,148.44	77.4208	1,148.44	75.233	1,148.44	74.6097	1,148.44	73.1605	1,148.44	75.8188	1,148.44	71.8787	1,148.44	78.1232	1,148.44	73.7173	1,148.44	76.7846	1,148.44	74.5301	1,148.44	73.2844	1,148.44	73.0832
1,189.45	86.886	1,189.45	86.4408	1,189.45	87.0919	1,189.45	85.7259	1,189.45	87.1171	1,189.45	84.861	1,189.45	86.8506	1,189.45	83.9797	1,189.45	86.0623	1,189.45	82.893	1,189.45	84.7022	1,189.45	81.2162	1,189.45	83.0624	1,189.45	78.9998	1,189.45	81.6271	1,189.45	77.1492	1,189.45	80.3473	1,189.45	76.1717	1,189.45	78.134	1,189.45	75.485	1,189.45	73.3831	1,189.45	75.4837	1,189.45	70.7097	1,189.45	76.3532	1,189.45	74.1221	1,189.45	76.7465	1,189.45	74.8184	1,189.45	75.919	1,189.45	76.1384	1,189.45	74.5485	1,189.45	77.1774	1,189.45	74.3365	1,189.45	76.0767	1,189.45	74.1155	1,189.45	73.797	1,189.45	72.957
1,230.47	86.9742	1,230.47	86.8107	1,230.47	87.1408	1,230.47	86.3469	1,230.47	87.3465	1,230.47	85.4216	1,230.47	87.2422	1,230.47	84.2247	1,230.47	86.4182	1,230.47	82.8681	1,230.47	84.821	1,230.47	81.0158	1,230.47	82.8611	1,230.47	78.6106	1,230.47	81.1955	1,230.47	76.6905	1,230.47	80.0139	1,230.47	75.5287	1,230.47	78.3489	1,230.47	74.1426	1,230.47	74.5795	1,230.47	74.2283	1,230.47	71.1938	1,230.47	76.2209	1,230.47	75.1728	1,230.47	77.4722	1,230.47	76.3169	1,230.47	77.0104	1,230.47	76.2882	1,230.47	75.1398	1,230.47	77.4489	1,230.47	74.4219	1,230.47	76.9907	1,230.47	74.5252	1,230.47	74.1353	1,230.47	73.1282
1,274.41	87.0854	1,274.41	86.7989	1,274.41	87.5815	1,274.41	86.367	1,274.41	88.0081	1,274.41	85.4475	1,274.41	87.8462	1,274.41	84.4645	1,274.41	86.7966	1,274.41	83.6436	1,274.41	84.9456	1,274.41	82.0702	1,274.41	82.6912	1,274.41	79.0755	1,274.41	80.6437	1,274.41	76.2441	1,274.41	79.2725	1,274.41	75.915	1,274.41	77.9957	1,274.41	74.8659	1,274.41	75.2773	1,274.41	71.9088	1,274.41	69.7813	1,274.41	72.9604	1,274.41	70.0642	1,274.41	76.1072	1,274.41	73.1208	1,274.41	76.5662	1,274.41	75.1833	1,274.41	74.6849	1,274.41	76.8	1,274.41	72.8775	1,274.41	76.7623	1,274.41	72.3926	1,274.41	74.4864	1,274.41	71.9381
1,318.36	87.1168	1,318.36	86.78	1,318.36	87.8948	1,318.36	86.496	1,318.36	88.4838	1,318.36	85.5453	1,318.36	88.3306	1,318.36	84.1877	1,318.36	87.3819	1,318.36	83.4431	1,318.36	85.6801	1,318.36	82.689	1,318.36	83.1332	1,318.36	80.4393	1,318.36	79.9593	1,318.36	76.7397	1,318.36	77.6628	1,318.36	74.8472	1,318.36	77.5996	1,318.36	74.5303	1,318.36	77.471	1,318.36	73.3107	1,318.36	74.51	1,318.36	74.3341	1,318.36	69.7439	1,318.36	76.8832	1,318.36	74.6049	1,318.36	77.7186	1,318.36	75.7908	1,318.36	76.6166	1,318.36	75.4695	1,318.36	74.7306	1,318.36	77.0872	1,318.36	73.322	1,318.36	75.6304	1,318.36	72.2127
1,365.23	86.7906	1,365.23	86.2337	1,365.23	87.6876	1,365.23	86.3416	1,365.23	88.217	1,365.23	85.7861	1,365.23	88.0629	1,365.23	83.6996	1,365.23	87.0157	1,365.23	81.6786	1,365.23	85.1549	1,365.23	81.5175	1,365.23	82.7258	1,365.23	80.5729	1,365.23	80.1118	1,365.23	77.6556	1,365.23	78.4144	1,365.23	74.4873	1,365.23	78.3084	1,365.23	73.1439	1,365.23	77.7222	1,365.23	71.1768	1,365.23	73.7502	1,365.23	71.7899	1,365.23	70.4156	1,365.23	75.7783	1,365.23	74.7967	1,365.23	77.58	1,365.23	73.8327	1,365.23	76.8249	1,365.23	72.7706	1,365.23	74.2728	1,365.23	75.8975	1,365.23	71.654	1,365.23	75.0632	1,365.23	71.3925
1,415.04	86.3205	1,415.04	85.3614	1,415.04	87.4007	1,415.04	85.6859	1,415.04	87.8874	1,415.04	85.8669	1,415.04	87.5876	1,415.04	84.497	1,415.04	86.3454	1,415.04	82.0309	1,415.04	84.3815	1,415.04	79.9387	1,415.04	82.0457	1,415.04	78.5322	1,415.04	79.4711	1,415.04	77.7108	1,415.04	76.8771	1,415.04	77.8752	1,415.04	75.2453	1,415.04	77.3562	1,415.04	75.5852	1,415.04	73.761	1,415.04	74.4368	1,415.04	65.153	1,415.04	67.6893	1,415.04	72.6225	1,415.04	73.7513	1,415.04	76.3709	1,415.04	75.2916	1,415.04	76.5839	1,415.04	71.2213	1,415.04	74.6953	1,415.04	74.4088	1,415.04	72.2453	1,415.04	75.3969	1,415.04	72.8656
1,464.84	86.3259	1,464.84	84.8753	1,464.84	87.5887	1,464.84	84.4212	1,464.84	88.1078	1,464.84	84.9727	1,464.84	87.4443	1,464.84	84.5526	1,464.84	85.7414	1,464.84	82.8767	1,464.84	83.5105	1,464.84	81.0134	1,464.84	81.294	1,464.84	79.3327	1,464.84	79.8119	1,464.84	76.8235	1,464.84	78.8786	1,464.84	74.9251	1,464.84	77.1857	1,464.84	75.3472	1,464.84	75.6941	1,464.84	74.9945	1,464.84	75.2864	1,464.84	73.2572	1,464.84	65.893	1,464.84	72.7298	1,464.84	74.1039	1,464.84	74.8925	1,464.84	77.5634	1,464.84	75.8641	1,464.84	70.1747	1,464.84	75.3291	1,464.84	73.5005	1,464.84	74.0704	1,464.84	76.3585	1,464.84	74.3384
1,514.65	86.3547	1,514.65	84.5954	1,514.65	87.9478	1,514.65	83.5229	1,514.65	88.4554	1,514.65	83.9633	1,514.65	87.4502	1,514.65	84.2794	1,514.65	85.2696	1,514.65	83.1444	1,514.65	82.4874	1,514.65	80.9451	1,514.65	79.7056	1,514.65	79.1289	1,514.65	77.8696	1,514.65	78.1745	1,514.65	77.3665	1,514.65	77.28	1,514.65	76.7266	1,514.65	76.3395	1,514.65	74.367	1,514.65	75.4128	1,514.65	72.7639	1,514.65	74.5538	1,514.65	69.5696	1,514.65	74.4034	1,514.65	68.5027	1,514.65	74.9705	1,514.65	75.3849	1,514.65	75.4366	1,514.65	71.0812	1,514.65	75.4127	1,514.65	67.4268	1,514.65	74.562	1,514.65	74.2281	1,514.65	74.0497
1,570.31	86.4514	1,570.31	83.9744	1,570.31	88.1655	1,570.31	82.6251	1,570.31	88.3857	1,570.31	82.6484	1,570.31	87.1467	1,570.31	82.9119	1,570.31	84.7391	1,570.31	82.988	1,570.31	81.9886	1,570.31	82.333	1,570.31	79.7316	1,570.31	80.2577	1,570.31	78.0867	1,570.31	76.9768	1,570.31	77.5226	1,570.31	74.7484	1,570.31	77.0044	1,570.31	73.5831	1,570.31	74.1508	1,570.31	72.3998	1,570.31	72.3569	1,570.31	73.8539	1,570.31	74.6985	1,570.31	76.2096	1,570.31	69.1246	1,570.31	76.7293	1,570.31	72.4988	1,570.31	75.8463	1,570.31	72.5946	1,570.31	74.7378	1,570.31	60.2167	1,570.31	73.2855	1,570.31	72.0385	1,570.31	72.5299
1,623.05	86.1642	1,623.05	83.7794	1,623.05	87.7428	1,623.05	82.1183	1,623.05	87.9664	1,623.05	82.5107	1,623.05	86.6679	1,623.05	82.7407	1,623.05	84.0606	1,623.05	82.1807	1,623.05	81.2042	1,623.05	81.9196	1,623.05	78.9001	1,623.05	81.0656	1,623.05	77.2525	1,623.05	78.4331	1,623.05	77.4818	1,623.05	75.55	1,623.05	78.4605	1,623.05	74.2064	1,623.05	76.7316	1,623.05	71.7398	1,623.05	73.0917	1,623.05	68.1909	1,623.05	77.3297	1,623.05	73.063	1,623.05	74.8406	1,623.05	76.055	1,623.05	73.001	1,623.05	76.4903	1,623.05	75.0303	1,623.05	76.0188	1,623.05	61.9057	1,623.05	74.704	1,623.05	70.1873	1,623.05	72.9695
1,681.64	85.8558	1,681.64	83.3057	1,681.64	87.5649	1,681.64	82.0688	1,681.64	87.4051	1,681.64	82.7874	1,681.64	85.5956	1,681.64	83.7709	1,681.64	82.8226	1,681.64	83.1245	1,681.64	80.2076	1,681.64	81.1716	1,681.64	78.5024	1,681.64	79.6455	1,681.64	76.5685	1,681.64	77.9858	1,681.64	75.4662	1,681.64	75.0886	1,681.64	76.7387	1,681.64	72.937	1,681.64	76.2719	1,681.64	72.9511	1,681.64	70.6057	1,681.64	71.9157	1,681.64	75.5466	1,681.64	68.9674	1,681.64	75.8942	1,681.64	71.2105	1,681.64	69.1713	1,681.64	75.1011	1,681.64	74.3274	1,681.64	76.7491	1,681.64	70.9577	1,681.64	74.6648	1,681.64	52.8456	1,681.64	66.6054
1,740.23	86.5458	1,740.23	83.1224	1,740.23	88.1706	1,740.23	81.7813	1,740.23	87.7027	1,740.23	83.2216	1,740.23	85.4161	1,740.23	83.9033	1,740.23	82.1269	1,740.23	83.4501	1,740.23	80.0582	1,740.23	82.0004	1,740.23	79.2413	1,740.23	79.6256	1,740.23	77.8807	1,740.23	76.9681	1,740.23	76.5706	1,740.23	75.338	1,740.23	76.6193	1,740.23	74.399	1,740.23	76.209	1,740.23	72.8353	1,740.23	73.8842	1,740.23	71.7504	1,740.23	71.0091	1,740.23	72.731	1,740.23	72.1884	1,740.23	72.9669	1,740.23	68.9609	1,740.23	72.0461	1,740.23	64.4881	1,740.23	70.5566	1,740.23	73.5866	1,740.23	63.7328	1,740.23	72.7192	1,740.23	65.6048
1,801.76	87.0432	1,801.76	83.1033	1,801.76	88.5639	1,801.76	80.947	1,801.76	87.7504	1,801.76	82.9648	1,801.76	85.1269	1,801.76	84.1926	1,801.76	81.4984	1,801.76	83.8729	1,801.76	79.5529	1,801.76	81.7864	1,801.76	78.932	1,801.76	79.1979	1,801.76	77.7233	1,801.76	77.3914	1,801.76	77.6563	1,801.76	75.7395	1,801.76	78.1882	1,801.76	75.0037	1,801.76	76.987	1,801.76	74.6267	1,801.76	73.4958	1,801.76	71.9857	1,801.76	69.5784	1,801.76	70.651	1,801.76	67.04	1,801.76	74.1252	1,801.76	68.0742	1,801.76	74.5731	1,801.76	66.9275	1,801.76	71.1399	1,801.76	66.1548	1,801.76	56.1615	1,801.76	72.8985	1,801.76	69.9222
1,866.21	86.477	1,866.21	82.9558	1,866.21	87.9	1,866.21	79.458	1,866.21	87.2534	1,866.21	82.676	1,866.21	84.3407	1,866.21	84.4972	1,866.21	81.1106	1,866.21	84.191	1,866.21	80.5007	1,866.21	83.0241	1,866.21	79.9223	1,866.21	81.1438	1,866.21	77.6289	1,866.21	78.0873	1,866.21	75.9254	1,866.21	74.9093	1,866.21	77.1472	1,866.21	75.349	1,866.21	77.0069	1,866.21	76.9132	1,866.21	73.9853	1,866.21	76.8571	1,866.21	73.3672	1,866.21	74.5317	1,866.21	71.6333	1,866.21	71.0303	1,866.21	62.1671	1,866.21	70.2016	1,866.21	69.6203	1,866.21	70.0404	1,866.21	66.5546	1,866.21	60.1266	1,866.21	71.4273	1,866.21	69.0499
1,930.66	85.738	1,930.66	81.4245	1,930.66	87.4274	1,930.66	79.2174	1,930.66	86.3133	1,930.66	82.4668	1,930.66	83.144	1,930.66	84.5109	1,930.66	80.2172	1,930.66	83.8088	1,930.66	80.4943	1,930.66	81.1281	1,930.66	80.6487	1,930.66	79.0169	1,930.66	78.4764	1,930.66	77.1297	1,930.66	75.1811	1,930.66	73.3558	1,930.66	75.5409	1,930.66	70.7856	1,930.66	76.222	1,930.66	72.7482	1,930.66	73.3801	1,930.66	73.7251	1,930.66	73.9358	1,930.66	74.0835	1,930.66	74.4694	1,930.66	74.2479	1,930.66	65.3213	1,930.66	72.8041	1,930.66	67.9861	1,930.66	68.5028	1,930.66	67.0815	1,930.66	50.9783	1,930.66	72.9203	1,930.66	70.2404
2,000.98	86.2232	2,000.98	80.59	2,000.98	87.7164	2,000.98	77.7942	2,000.98	86.4242	2,000.98	82.2772	2,000.98	82.7785	2,000.98	84.3537	2,000.98	78.9718	2,000.98	84.2222	2,000.98	80.6096	2,000.98	81.8155	2,000.98	81.1469	2,000.98	78.5441	2,000.98	79.2839	2,000.98	75.9963	2,000.98	76.2085	2,000.98	72.756	2,000.98	77.092	2,000.98	68.6334	2,000.98	78.1222	2,000.98	67.4305	2,000.98	75.0317	2,000.98	70.1831	2,000.98	72.5198	2,000.98	72.6316	2,000.98	73.73	2,000.98	73.0215	2,000.98	65.0365	2,000.98	71.3468	2,000.98	68.9352	2,000.98	67.4234	2,000.98	61.5981	2,000.98	50.8234	2,000.98	71.5822	2,000.98	69.2283
2,071.29	86.7646	2,071.29	81.3575	2,071.29	87.9778	2,071.29	76.1742	2,071.29	86.5004	2,071.29	82.9015	2,071.29	82.1049	2,071.29	84.1127	2,071.29	78.3476	2,071.29	83.4122	2,071.29	81.1033	2,071.29	80.8336	2,071.29	82.2172	2,071.29	77.003	2,071.29	80.6009	2,071.29	73.4854	2,071.29	76.9522	2,071.29	70.0206	2,071.29	76.5427	2,071.29	68.9025	2,071.29	78.3822	2,071.29	70.9261	2,071.29	76.1544	2,071.29	68.0096	2,071.29	70.0444	2,071.29	65.7988	2,071.29	72.9225	2,071.29	71.6452	2,071.29	64.3539	2,071.29	73.3571	2,071.29	68.6268	2,071.29	70.3737	2,071.29	65.6659	2,071.29	53.6802	2,071.29	70.3465	2,071.29	68.8813
2,144.53	85.8879	2,144.53	79.9203	2,144.53	87.3866	2,144.53	74.7139	2,144.53	85.6299	2,144.53	82.1203	2,144.53	80.5229	2,144.53	83.9359	2,144.53	76.6393	2,144.53	83.5147	2,144.53	80.9642	2,144.53	81.5038	2,144.53	82.274	2,144.53	78.1945	2,144.53	80.8103	2,144.53	74.8852	2,144.53	77.1217	2,144.53	72.6866	2,144.53	73.2627	2,144.53	70.8242	2,144.53	74.4304	2,144.53	67.8019	2,144.53	74.6813	2,144.53	66.9347	2,144.53	67.8725	2,144.53	67.6297	2,144.53	70.0256	2,144.53	69.1711	2,144.53	64.486	2,144.53	71.0017	2,144.53	65.5743	2,144.53	70.63	2,144.53	69.4333	2,144.53	62.9826	2,144.53	72.6754	2,144.53	70.1757
2,217.77	85.3034	2,217.77	78.4857	2,217.77	87.0483	2,217.77	73.8675	2,217.77	85.082	2,217.77	83.3042	2,217.77	79.006	2,217.77	84.8341	2,217.77	76.6874	2,217.77	82.7655	2,217.77	81.8813	2,217.77	77.8513	2,217.77	82.882	2,217.77	70.8172	2,217.77	80.9833	2,217.77	68.4744	2,217.77	77.1411	2,217.77	71.2417	2,217.77	73.1469	2,217.77	72.3512	2,217.77	67.0037	2,217.77	70.7222	2,217.77	70.3178	2,217.77	67.9192	2,217.77	68.0719	2,217.77	68.1287	2,217.77	65.9858	2,217.77	69.4222	2,217.77	63.4766	2,217.77	68.1433	2,217.77	49.6847	2,217.77	63.9039	2,217.77	65.7399	2,217.77	62.0769	2,217.77	71.3068	2,217.77	68.7475
2,296.88	86.0987	2,296.88	79.1302	2,296.88	87.0459	2,296.88	73.8125	2,296.88	84.4278	2,296.88	83.2873	2,296.88	77.0474	2,296.88	84.9289	2,296.88	75.5676	2,296.88	83.0255	2,296.88	82.0573	2,296.88	79.4605	2,296.88	83.5309	2,296.88	76.7511	2,296.88	81.8515	2,296.88	73.5488	2,296.88	77.5755	2,296.88	66.1006	2,296.88	74.5751	2,296.88	65.3367	2,296.88	73.5027	2,296.88	67.9174	2,296.88	67.9249	2,296.88	65.2074	2,296.88	68.6532	2,296.88	65.9007	2,296.88	67.1814	2,296.88	71.6787	2,296.88	58.5282	2,296.88	71.1726	2,296.88	57.6162	2,296.88	64.506	2,296.88	62.6528	2,296.88	62.3888	2,296.88	71.2028	2,296.88	69.5831
2,378.91	86.9498	2,378.91	80.4037	2,378.91	87.5914	2,378.91	74.8152	2,378.91	84.3751	2,378.91	84.2312	2,378.91	75.0048	2,378.91	85.0247	2,378.91	74.8552	2,378.91	83.4428	2,378.91	81.8607	2,378.91	81.0662	2,378.91	83.1068	2,378.91	77.9076	2,378.91	81.4309	2,378.91	74.7412	2,378.91	76.808	2,378.91	72.7283	2,378.91	74.5903	2,378.91	69.5348	2,378.91	76.9454	2,378.91	64.0992	2,378.91	73.9375	2,378.91	65.2232	2,378.91	69.5099	2,378.91	65.9823	2,378.91	71.7121	2,378.91	68.4547	2,378.91	65.4703	2,378.91	70.5108	2,378.91	57.1907	2,378.91	66.7598	2,378.91	60.9293	2,378.91	60.494	2,378.91	70.6626	2,378.91	70.6015
2,460.94	86.3748	2,460.94	79.4598	2,460.94	87.1679	2,460.94	76.2534	2,460.94	83.7121	2,460.94	84.8302	2,460.94	71.9128	2,460.94	85.4477	2,460.94	76.5194	2,460.94	83.0717	2,460.94	82.0926	2,460.94	79.0307	2,460.94	82.7739	2,460.94	75.4129	2,460.94	80.9379	2,460.94	73.5007	2,460.94	76.4534	2,460.94	71.6727	2,460.94	70.3503	2,460.94	69.8376	2,460.94	73.3658	2,460.94	68.7687	2,460.94	72.1034	2,460.94	67.2077	2,460.94	70.2028	2,460.94	66.0409	2,460.94	71.2063	2,460.94	69.122	2,460.94	65.0226	2,460.94	70.0351	2,460.94	59.7843	2,460.94	67.3535	2,460.94	63.2968	2,460.94	67.2619	2,460.94	71.0107	2,460.94	71.2753
2,548.83	86.0944	2,548.83	78.2714	2,548.83	86.6329	2,548.83	78.407	2,548.83	82.3416	2,548.83	85.4861	2,548.83	69.9473	2,548.83	85.4112	2,548.83	79.1611	2,548.83	82.6476	2,548.83	83.0293	2,548.83	79.8126	2,548.83	83.5224	2,548.83	76.6871	2,548.83	81.9356	2,548.83	74.0303	2,548.83	78.2139	2,548.83	73.1973	2,548.83	73.7418	2,548.83	71.9488	2,548.83	72.3698	2,548.83	69.681	2,548.83	63.0636	2,548.83	67.8133	2,548.83	68.8382	2,548.83	65.714	2,548.83	70.0603	2,548.83	67.9562	2,548.83	62.8876	2,548.83	69.238	2,548.83	51.8944	2,548.83	64.4249	2,548.83	65.956	2,548.83	66.4356	2,548.83	72.9849	2,548.83	72.1243
2,639.65	86.666	2,639.65	78.8427	2,639.65	86.9443	2,639.65	80.017	2,639.65	82.1441	2,639.65	85.5655	2,639.65	71.8183	2,639.65	85.2452	2,639.65	81.0136	2,639.65	82.8411	2,639.65	83.5764	2,639.65	80.2129	2,639.65	83.1447	2,639.65	76.7347	2,639.65	81.3054	2,639.65	73.6318	2,639.65	77.7229	2,639.65	71.681	2,639.65	71.9744	2,639.65	70.4743	2,639.65	71.2148	2,639.65	69.1855	2,639.65	63.5479	2,639.65	67.4557	2,639.65	67.9306	2,639.65	65.9891	2,639.65	70.2448	2,639.65	68.3669	2,639.65	67.0594	2,639.65	70.5556	2,639.65	64.0531	2,639.65	64.7956	2,639.65	68.5205	2,639.65	67.298	2,639.65	71.9847	2,639.65	72.1595
2,733.4	86.4055	2,733.4	79.5945	2,733.4	86.6766	2,733.4	80.7963	2,733.4	81.9832	2,733.4	85.5205	2,733.4	75.3895	2,733.4	85.6319	2,733.4	82.4699	2,733.4	83.5139	2,733.4	84.3692	2,733.4	79.8997	2,733.4	83.2657	2,733.4	76.8854	2,733.4	81.5168	2,733.4	75.3686	2,733.4	79.1215	2,733.4	73.3937	2,733.4	74.0065	2,733.4	72.1185	2,733.4	67.0544	2,733.4	71.1138	2,733.4	52.8875	2,733.4	68.5816	2,733.4	69.0798	2,733.4	66.491	2,733.4	67.4397	2,733.4	68.4183	2,733.4	65.6735	2,733.4	70.5479	2,733.4	62.5085	2,733.4	67.9101	2,733.4	65.1384	2,733.4	65.7012	2,733.4	72.1903	2,733.4	72.142
2,827.15	86.1296	2,827.15	80.2336	2,827.15	86.1369	2,827.15	81.578	2,827.15	81.3939	2,827.15	86.0722	2,827.15	78.6976	2,827.15	85.8528	2,827.15	83.9417	2,827.15	83.6953	2,827.15	85.0816	2,827.15	80.4992	2,827.15	83.4679	2,827.15	77.2735	2,827.15	80.8867	2,827.15	76.1815	2,827.15	78.2186	2,827.15	75.4832	2,827.15	74.9365	2,827.15	73.298	2,827.15	71.6928	2,827.15	70.8164	2,827.15	67.2836	2,827.15	69.0884	2,827.15	70.3146	2,827.15	65.1132	2,827.15	68.7447	2,827.15	65.2269	2,827.15	68.811	2,827.15	68.7792	2,827.15	68.7586	2,827.15	64.5122	2,827.15	68.2425	2,827.15	69.7305	2,827.15	70.5	2,827.15	72.1702
2,926.76	85.9873	2,926.76	80.7382	2,926.76	85.6904	2,926.76	82.0839	2,926.76	81.0734	2,926.76	86.6292	2,926.76	81.058	2,926.76	86.1162	2,926.76	84.9972	2,926.76	82.8781	2,926.76	85.4446	2,926.76	79.2836	2,926.76	83.9883	2,926.76	77.2255	2,926.76	82.2999	2,926.76	74.3046	2,926.76	79.2432	2,926.76	72.0055	2,926.76	74.5468	2,926.76	72.2108	2,926.76	72.8092	2,926.76	71.2466	2,926.76	62.2536	2,926.76	69.9558	2,926.76	70.0725	2,926.76	68.1911	2,926.76	69.4703	2,926.76	66.2744	2,926.76	68.6637	2,926.76	69.8878	2,926.76	62.1208	2,926.76	64.318	2,926.76	68.6798	2,926.76	66.2285	2,926.76	73.4604	2,926.76	72.6551
3,032.23	86.3762	3,032.23	81.2797	3,032.23	85.3443	3,032.23	82.4664	3,032.23	80.4379	3,032.23	87.1519	3,032.23	83.2886	3,032.23	86.1845	3,032.23	86.0715	3,032.23	82.2647	3,032.23	85.3905	3,032.23	79.8024	3,032.23	83.8755	3,032.23	77.6139	3,032.23	83.2488	3,032.23	77.1169	3,032.23	81.2767	3,032.23	76.2493	3,032.23	78.055	3,032.23	74.4677	3,032.23	72.569	3,032.23	71.9839	3,032.23	66.5684	3,032.23	69.1191	3,032.23	72.9489	3,032.23	68.5397	3,032.23	66.1219	3,032.23	66.4858	3,032.23	66.4506	3,032.23	68.6689	3,032.23	66.4078	3,032.23	66.7556	3,032.23	68.0452	3,032.23	61.0723	3,032.23	71.9973	3,032.23	69.4172
3,137.7	86.5938	3,137.7	81.2026	3,137.7	85.7685	3,137.7	83.895	3,137.7	79.9012	3,137.7	87.1043	3,137.7	84.3746	3,137.7	85.1648	3,137.7	87.0029	3,137.7	81.9787	3,137.7	85.3772	3,137.7	79.7652	3,137.7	83.5011	3,137.7	78.6148	3,137.7	83.922	3,137.7	77.8411	3,137.7	82.4994	3,137.7	74.6812	3,137.7	79.5359	3,137.7	71.5334	3,137.7	76.1562	3,137.7	71.8874	3,137.7	68.8512	3,137.7	71.7153	3,137.7	74.2039	3,137.7	68.609	3,137.7	55.5917	3,137.7	67.8007	3,137.7	70.0073	3,137.7	67.0369	3,137.7	71.1153	3,137.7	67.5966	3,137.7	67.5187	3,137.7	67.6763	3,137.7	68.613	3,137.7	67.5974
3,249.02	86.5073	3,249.02	81.3527	3,249.02	85.7162	3,249.02	84.6326	3,249.02	79.8017	3,249.02	86.9984	3,249.02	84.9484	3,249.02	84.0195	3,249.02	87.5092	3,249.02	82.2885	3,249.02	85.349	3,249.02	81.8718	3,249.02	82.7582	3,249.02	79.2435	3,249.02	84.2445	3,249.02	76.4889	3,249.02	83.3663	3,249.02	76.6347	3,249.02	79.7863	3,249.02	75.2193	3,249.02	75.3837	3,249.02	72.3657	3,249.02	68.6995	3,249.02	72.9132	3,249.02	75.1465	3,249.02	69.9327	3,249.02	57.2652	3,249.02	67.5391	3,249.02	67.7469	3,249.02	70.3145	3,249.02	67.9136	3,249.02	63.8535	3,249.02	70.1476	3,249.02	68.3378	3,249.02	71.3342	3,249.02	70.386
3,363.28	86.0996	3,363.28	81.5818	3,363.28	85.3965	3,363.28	84.749	3,363.28	80.0677	3,363.28	86.8147	3,363.28	85.421	3,363.28	84.1496	3,363.28	87.7665	3,363.28	83.1276	3,363.28	85.36	3,363.28	81.5744	3,363.28	82.4757	3,363.28	80.192	3,363.28	83.8113	3,363.28	79.1399	3,363.28	82.5674	3,363.28	76.517	3,363.28	79.8073	3,363.28	73.36	3,363.28	77.7425	3,363.28	70.4679	3,363.28	69.0058	3,363.28	70.5731	3,363.28	75.7352	3,363.28	69.8723	3,363.28	62.8557	3,363.28	66.7055	3,363.28	68.078	3,363.28	69.1426	3,363.28	66.0654	3,363.28	64.2935	3,363.28	70.0294	3,363.28	66.7345	3,363.28	71.0169	3,363.28	69.5247
3,483.4	86.4241	3,483.4	82.3919	3,483.4	85.9715	3,483.4	84.8272	3,483.4	80.2946	3,483.4	86.1694	3,483.4	85.2862	3,483.4	84.2961	3,483.4	87.5875	3,483.4	83.4307	3,483.4	85.1481	3,483.4	81.9052	3,483.4	82.6796	3,483.4	80.3101	3,483.4	83.9127	3,483.4	75.4992	3,483.4	81.0546	3,483.4	73.4229	3,483.4	76.0834	3,483.4	73.1457	3,483.4	76.9177	3,483.4	71.0816	3,483.4	44.6532	3,483.4	70.9203	3,483.4	75.2515	3,483.4	68.1702	3,483.4	62.402	3,483.4	67.2571	3,483.4	69.0608	3,483.4	68.4299	3,483.4	65.6805	3,483.4	64.1067	3,483.4	69.6517	3,483.4	66.2402	3,483.4	70.7948	3,483.4	68.0999
3,606.45	86.4857	3,606.45	83.0542	3,606.45	86.2201	3,606.45	85.0424	3,606.45	81.4964	3,606.45	86.1406	3,606.45	85.0729	3,606.45	84.19	3,606.45	87.3772	3,606.45	83.1929	3,606.45	84.9392	3,606.45	81.0331	3,606.45	82.3116	3,606.45	77.9975	3,606.45	83.2705	3,606.45	76.4786	3,606.45	80.2014	3,606.45	75.5687	3,606.45	72.5362	3,606.45	72.5542	3,606.45	73.8417	3,606.45	70.8964	3,606.45	63.1234	3,606.45	71.0561	3,606.45	75.8378	3,606.45	67.1096	3,606.45	66.776	3,606.45	66.3333	3,606.45	70.5102	3,606.45	68.505	3,606.45	66.8131	3,606.45	60.8879	3,606.45	67.364	3,606.45	62.5816	3,606.45	70.4091	3,606.45	67.2785
3,732.42	86.4154	3,732.42	83.1292	3,732.42	86.2928	3,732.42	85.3638	3,732.42	82.2375	3,732.42	86.3017	3,732.42	85.2285	3,732.42	83.9123	3,732.42	86.8108	3,732.42	82.5331	3,732.42	84.2214	3,732.42	80.6892	3,732.42	82.2345	3,732.42	80.1401	3,732.42	82.7589	3,732.42	77.2848	3,732.42	78.4774	3,732.42	74.1696	3,732.42	67.0725	3,732.42	72.4486	3,732.42	64.4664	3,732.42	70.3933	3,732.42	64.5719	3,732.42	70.99	3,732.42	73.7667	3,732.42	68.1879	3,732.42	67.8922	3,732.42	66.7658	3,732.42	70.7152	3,732.42	69.4389	3,732.42	63.4893	3,732.42	61.9547	3,732.42	67.8039	3,732.42	64.2527	3,732.42	68.981	3,732.42	64.4703
3,864.26	86.5952	3,864.26	83.847	3,864.26	86.5419	3,864.26	85.6508	3,864.26	82.7101	3,864.26	86.1925	3,864.26	84.5242	3,864.26	83.3153	3,864.26	86.0547	3,864.26	82.2638	3,864.26	83.6313	3,864.26	81.6348	3,864.26	81.4375	3,864.26	78.8769	3,864.26	81.9054	3,864.26	76.1166	3,864.26	78.5292	3,864.26	76.1035	3,864.26	73.7117	3,864.26	73.2931	3,864.26	66.4713	3,864.26	70.1448	3,864.26	64.3312	3,864.26	70.9951	3,864.26	71.8677	3,864.26	68.7396	3,864.26	59.9977	3,864.26	66.2651	3,864.26	70.6461	3,864.26	70.1724	3,864.26	65.5076	3,864.26	60.8332	3,864.26	67.899	3,864.26	66.7858	3,864.26	69.4795	3,864.26	66.9207
3,999.02	86.8913	3,999.02	84.5696	3,999.02	86.802	3,999.02	85.9472	3,999.02	83.6634	3,999.02	85.8426	3,999.02	84.4262	3,999.02	82.9299	3,999.02	85.1138	3,999.02	82.876	3,999.02	82.6642	3,999.02	80.7721	3,999.02	81.0486	3,999.02	79.6646	3,999.02	80.568	3,999.02	78.414	3,999.02	76.8849	3,999.02	74.4819	3,999.02	72.131	3,999.02	71.6594	3,999.02	70.4915	3,999.02	69.8086	3,999.02	65.8813	3,999.02	69.3155	3,999.02	70.8121	3,999.02	68.5871	3,999.02	55.3491	3,999.02	66.784	3,999.02	69.7155	3,999.02	68.3818	3,999.02	64.9663	3,999.02	63.2128	3,999.02	65.8114	3,999.02	65.3775	3,999.02	67.2554	3,999.02	67.8551
4,139.65	86.6994	4,139.65	84.7045	4,139.65	86.922	4,139.65	86.132	4,139.65	84.1662	4,139.65	85.5297	4,139.65	84.2787	4,139.65	82.7973	4,139.65	84.0598	4,139.65	82.3856	4,139.65	81.0084	4,139.65	81.0881	4,139.65	79.8905	4,139.65	79.325	4,139.65	79.8899	4,139.65	74.5307	4,139.65	76.0306	4,139.65	74.5812	4,139.65	69.0786	4,139.65	72.4788	4,139.65	71.2331	4,139.65	69.109	4,139.65	56.7812	4,139.65	69.5164	4,139.65	73.0878	4,139.65	67.0878	4,139.65	57.0457	4,139.65	66.8622	4,139.65	69.5666	4,139.65	69.3897	4,139.65	64.0724	4,139.65	60.4754	4,139.65	66.2693	4,139.65	65.5172	4,139.65	65.3871	4,139.65	63.4016
4,286.13	88.0926	4,286.13	86.2107	4,286.13	87.8834	4,286.13	86.616	4,286.13	85.2611	4,286.13	85.7626	4,286.13	84.6011	4,286.13	83.3244	4,286.13	84.1048	4,286.13	83.2436	4,286.13	81.3913	4,286.13	80.007	4,286.13	79.9197	4,286.13	78.8288	4,286.13	80.633	4,286.13	76.8917	4,286.13	78.2224	4,286.13	70.9666	4,286.13	73.3549	4,286.13	70.1116	4,286.13	70.7272	4,286.13	70.999	4,286.13	62.6535	4,286.13	69.1191	4,286.13	71.5371	4,286.13	64.7906	4,286.13	64.9059	4,286.13	65.4063	4,286.13	61.9634	4,286.13	67.6482	4,286.13	54.733	4,286.13	62.1147	4,286.13	67.6563	4,286.13	64.4419	4,286.13	69.5092	4,286.13	68.8974
4,438.48	88.2819	4,438.48	86.9601	4,438.48	88.6156	4,438.48	87.4956	4,438.48	86.7162	4,438.48	86.0734	4,438.48	85.7195	4,438.48	84.0045	4,438.48	84.7032	4,438.48	82.9706	4,438.48	81.4605	4,438.48	80.1985	4,438.48	80.14	4,438.48	77.2609	4,438.48	81.552	4,438.48	73.5014	4,438.48	78.8202	4,438.48	75.6638	4,438.48	74.1667	4,438.48	71.2762	4,438.48	71.9878	4,438.48	67.9295	4,438.48	65.2996	4,438.48	70.5151	4,438.48	70.3615	4,438.48	64.0142	4,438.48	61.8398	4,438.48	63.0341	4,438.48	66.424	4,438.48	68.9013	4,438.48	62.3333	4,438.48	64.7179	4,438.48	65.8159	4,438.48	62.4423	4,438.48	69.1352	4,438.48	68.51
4,593.75	88.7339	4,593.75	87.4517	4,593.75	88.7606	4,593.75	87.3444	4,593.75	87.0473	4,593.75	85.9335	4,593.75	85.7398	4,593.75	84.325	4,593.75	84.0072	4,593.75	82.6867	4,593.75	80.2201	4,593.75	78.0083	4,593.75	79.3217	4,593.75	78.8541	4,593.75	80.9557	4,593.75	75.6967	4,593.75	80.0714	4,593.75	71.8756	4,593.75	78.4826	4,593.75	70.3067	4,593.75	70.3357	4,593.75	69.5809	4,593.75	61.6912	4,593.75	70.0358	4,593.75	67.5194	4,593.75	67.5509	4,593.75	64.2163	4,593.75	65.6109	4,593.75	68.0938	4,593.75	67.9307	4,593.75	64.7043	4,593.75	64.2921	4,593.75	64.17	4,593.75	54.3195	4,593.75	67.9299	4,593.75	65.882
4,757.81	88.5805	4,757.81	87.6935	4,757.81	88.8031	4,757.81	87.3092	4,757.81	87.4577	4,757.81	85.8382	4,757.81	85.9222	4,757.81	84.568	4,757.81	84.0505	4,757.81	81.9764	4,757.81	80.1988	4,757.81	79.5926	4,757.81	76.8065	4,757.81	77.2642	4,757.81	79.0365	4,757.81	74.3455	4,757.81	81.4172	4,757.81	74.4719	4,757.81	77.6559	4,757.81	67.8901	4,757.81	67.4796	4,757.81	69.1221	4,757.81	60.527	4,757.81	70.0798	4,757.81	68.8626	4,757.81	65.8358	4,757.81	65.3251	4,757.81	66.9217	4,757.81	69.7923	4,757.81	68.5033	4,757.81	64.949	4,757.81	64.3623	4,757.81	65.3477	4,757.81	59.9446	4,757.81	66.0406	4,757.81	63.0014
4,924.8	88.7682	4,924.8	87.7399	4,924.8	88.5953	4,924.8	86.9831	4,924.8	87.5107	4,924.8	86.2302	4,924.8	86.3588	4,924.8	84.4779	4,924.8	84.7592	4,924.8	82.0964	4,924.8	81.4933	4,924.8	79.2978	4,924.8	79.4697	4,924.8	76.5702	4,924.8	82.0334	4,924.8	74.6998	4,924.8	82.2584	4,924.8	73.3887	4,924.8	78.2422	4,924.8	70.3603	4,924.8	66.5593	4,924.8	68.8894	4,924.8	59.5249	4,924.8	67.9214	4,924.8	61.4006	4,924.8	67.5266	4,924.8	63.8334	4,924.8	69.0575	4,924.8	65.4659	4,924.8	68.7338	4,924.8	61.5928	4,924.8	65.6943	4,924.8	60.0749	4,924.8	49.2506	4,924.8	65.4517	4,924.8	65.2532
5,097.66	88.6888	5,097.66	87.436	5,097.66	88.5173	5,097.66	86.7107	5,097.66	87.2815	5,097.66	86.046	5,097.66	86.1208	5,097.66	84.1563	5,097.66	84.7184	5,097.66	82.3321	5,097.66	82.4043	5,097.66	79.5265	5,097.66	81.9796	5,097.66	78.3182	5,097.66	83.0394	5,097.66	77.4202	5,097.66	81.4731	5,097.66	73.3996	5,097.66	77.5281	5,097.66	69.1318	5,097.66	69.9736	5,097.66	69.8859	5,097.66	60.6009	5,097.66	67.4603	5,097.66	56.9204	5,097.66	66.6268	5,097.66	58.7846	5,097.66	69.0184	5,097.66	65.5649	5,097.66	69.594	5,097.66	63.1139	5,097.66	66.4907	5,097.66	60.8197	5,097.66	57.4253	5,097.66	66.0676	5,097.66	63.6057
5,279.3	88.1735	5,279.3	86.9365	5,279.3	88.316	5,279.3	86.7138	5,279.3	87.321	5,279.3	85.826	5,279.3	86.2145	5,279.3	84.1102	5,279.3	84.6942	5,279.3	82.2641	5,279.3	82.6797	5,279.3	80.1673	5,279.3	82.1209	5,279.3	78.8553	5,279.3	81.7677	5,279.3	74.9891	5,279.3	79.2265	5,279.3	74.4481	5,279.3	75.5165	5,279.3	70.3894	5,279.3	71.242	5,279.3	68.9952	5,279.3	57.915	5,279.3	67.8056	5,279.3	64.79	5,279.3	66.1699	5,279.3	49.9251	5,279.3	69.1054	5,279.3	68.5038	5,279.3	68.8451	5,279.3	66.5383	5,279.3	67.6515	5,279.3	62.29	5,279.3	58.1837	5,279.3	62.1755	5,279.3	65.3283
5,463.87	88.1744	5,463.87	86.9998	5,463.87	88.1558	5,463.87	86.4771	5,463.87	86.9465	5,463.87	85.4005	5,463.87	85.8863	5,463.87	84.1356	5,463.87	84.8829	5,463.87	83.0049	5,463.87	83.1396	5,463.87	80.6482	5,463.87	80.9672	5,463.87	77.7196	5,463.87	79.9022	5,463.87	75.2098	5,463.87	78.0555	5,463.87	73.1102	5,463.87	72.5353	5,463.87	69.5959	5,463.87	69.2145	5,463.87	69.4363	5,463.87	68.0626	5,463.87	65.5777	5,463.87	62.9901	5,463.87	63.5489	5,463.87	51.989	5,463.87	69.6028	5,463.87	67.6794	5,463.87	68.3872	5,463.87	66.1656	5,463.87	66.7701	5,463.87	64.4349	5,463.87	58.9918	5,463.87	62.5437	5,463.87	61.9972
5,657.23	87.5473	5,657.23	86.3971	5,657.23	87.8562	5,657.23	86.4965	5,657.23	86.3659	5,657.23	85.1954	5,657.23	85.6947	5,657.23	84.4713	5,657.23	84.9633	5,657.23	82.9571	5,657.23	82.8858	5,657.23	81.1338	5,657.23	81.0547	5,657.23	78.0358	5,657.23	81.0923	5,657.23	77.3489	5,657.23	78.1408	5,657.23	73.4704	5,657.23	71.8359	5,657.23	70.6331	5,657.23	70.9436	5,657.23	69.227	5,657.23	67.0256	5,657.23	67.849	5,657.23	52.5367	5,657.23	65.5039	5,657.23	59.9105	5,657.23	68.0455	5,657.23	61.301	5,657.23	66.5027	5,657.23	67.2193	5,657.23	69.4674	5,657.23	57.8667	5,657.23	58.347	5,657.23	65.3134	5,657.23	65.5426
5,856.45	87.311	5,856.45	86.6404	5,856.45	87.8031	5,856.45	86.2357	5,856.45	86.4371	5,856.45	84.8403	5,856.45	84.9851	5,856.45	84.1903	5,856.45	84.6898	5,856.45	83.3635	5,856.45	84.0036	5,856.45	81.8728	5,856.45	83.0972	5,856.45	78.784	5,856.45	81.6122	5,856.45	76.7983	5,856.45	78.4516	5,856.45	73.0844	5,856.45	73.2637	5,856.45	71.5361	5,856.45	68.7733	5,856.45	68.8145	5,856.45	67.4384	5,856.45	68.3539	5,856.45	57.0821	5,856.45	67.1892	5,856.45	57.9696	5,856.45	67.5149	5,856.45	59.0165	5,856.45	67.8736	5,856.45	64.2597	5,856.45	69.5457	5,856.45	56.3285	5,856.45	61.0601	5,856.45	60.9294	5,856.45	64.2141
6,061.52	87.5038	6,061.52	86.8249	6,061.52	87.7684	6,061.52	85.9684	6,061.52	86.3754	6,061.52	84.3719	6,061.52	84.6307	6,061.52	84.1647	6,061.52	84.2451	6,061.52	83.6454	6,061.52	83.8118	6,061.52	81.7318	6,061.52	82.9811	6,061.52	78.9245	6,061.52	80.0985	6,061.52	75.7641	6,061.52	78.7325	6,061.52	71.5357	6,061.52	74.055	6,061.52	70.5721	6,061.52	69.1478	6,061.52	66.8418	6,061.52	69.1429	6,061.52	67.1076	6,061.52	60.2934	6,061.52	67.4179	6,061.52	60.1202	6,061.52	68.4357	6,061.52	59.1452	6,061.52	67.0227	6,061.52	62.3285	6,061.52	69.5964	6,061.52	57.2441	6,061.52	61.2524	6,061.52	63.8886	6,061.52	62.8148
6,275.39	87.7952	6,275.39	87.0214	6,275.39	87.4658	6,275.39	85.647	6,275.39	86.2096	6,275.39	84.5192	6,275.39	84.8077	6,275.39	84.1523	6,275.39	84.2079	6,275.39	82.9185	6,275.39	83.6776	6,275.39	80.3271	6,275.39	82.0154	6,275.39	78.5686	6,275.39	80.0178	6,275.39	76.1792	6,275.39	78.2913	6,275.39	71.9351	6,275.39	69.9258	6,275.39	69.9496	6,275.39	65.1176	6,275.39	67.8331	6,275.39	67.1926	6,275.39	65.3654	6,275.39	57.2109	6,275.39	65.729	6,275.39	59.4607	6,275.39	67.7646	6,275.39	58.0315	6,275.39	66.342	6,275.39	59.9297	6,275.39	68.4554	6,275.39	58.6825	6,275.39	61.7376	6,275.39	63.9653	6,275.39	61.3805
6,498.05	87.5931	6,498.05	86.6808	6,498.05	87.5537	6,498.05	85.4561	6,498.05	86.1651	6,498.05	84.488	6,498.05	84.9236	6,498.05	84.2646	6,498.05	84.5052	6,498.05	82.6003	6,498.05	83.891	6,498.05	80.3582	6,498.05	82.3532	6,498.05	78.1718	6,498.05	79.6066	6,498.05	75.1514	6,498.05	77.9701	6,498.05	72.0128	6,498.05	68.5703	6,498.05	69.1785	6,498.05	62.7169	6,498.05	67.2342	6,498.05	70.0635	6,498.05	65.355	6,498.05	62.1795	6,498.05	63.5562	6,498.05	57.1769	6,498.05	65.7148	6,498.05	55.4991	6,498.05	66.4262	6,498.05	60.9397	6,498.05	67.3751	6,498.05	52.6671	6,498.05	63.0885	6,498.05	61.5774	6,498.05	62.9075
6,726.56	87.1157	6,726.56	86.6134	6,726.56	87.1691	6,726.56	85.24	6,726.56	86.2228	6,726.56	84.3732	6,726.56	84.8711	6,726.56	84.1833	6,726.56	84.3517	6,726.56	82.3386	6,726.56	84.0845	6,726.56	80.1302	6,726.56	82.1474	6,726.56	77.2605	6,726.56	80.2361	6,726.56	74.6636	6,726.56	77.119	6,726.56	70.7862	6,726.56	67.7165	6,726.56	68.9123	6,726.56	56.71	6,726.56	66.548	6,726.56	69.2705	6,726.56	64.0043	6,726.56	63.1663	6,726.56	64.3549	6,726.56	61.0853	6,726.56	64.5595	6,726.56	52.8344	6,726.56	65.501	6,726.56	58.7713	6,726.56	66.9378	6,726.56	55.4548	6,726.56	62.3322	6,726.56	62.1395	6,726.56	60.3761
6,963.87	87.2293	6,963.87	86.5157	6,963.87	87.0262	6,963.87	85.035	6,963.87	86.2108	6,963.87	84.5534	6,963.87	85.1426	6,963.87	84.065	6,963.87	84.0239	6,963.87	82.5602	6,963.87	83.0198	6,963.87	79.5656	6,963.87	80.8153	6,963.87	76.3301	6,963.87	79.2657	6,963.87	73.3842	6,963.87	77.2007	6,963.87	70.2402	6,963.87	72.7798	6,963.87	67.7963	6,963.87	59.7397	6,963.87	65.9929	6,963.87	68.7925	6,963.87	62.4943	6,963.87	63.1426	6,963.87	62.478	6,963.87	59.1529	6,963.87	64.5443	6,963.87	55.3158	6,963.87	65.8424	6,963.87	57.4953	6,963.87	67.0773	6,963.87	59.4969	6,963.87	63.6794	6,963.87	59.8623	6,963.87	59.6627
7,209.96	86.8673	7,209.96	86.3201	7,209.96	86.7359	7,209.96	85.0915	7,209.96	86.2813	7,209.96	84.5961	7,209.96	85.5999	7,209.96	84.2777	7,209.96	84.3539	7,209.96	82.5983	7,209.96	82.6109	7,209.96	78.8366	7,209.96	81.0607	7,209.96	75.946	7,209.96	81.1462	7,209.96	73.5879	7,209.96	80.0787	7,209.96	70.0706	7,209.96	74.8702	7,209.96	68.2701	7,209.96	58.9049	7,209.96	65.4454	7,209.96	66.5047	7,209.96	63.0072	7,209.96	63.2445	7,209.96	63.5555	7,209.96	62.7932	7,209.96	64.4195	7,209.96	59.0661	7,209.96	65.1695	7,209.96	60.012	7,209.96	67.3523	7,209.96	58.706	7,209.96	62.9318	7,209.96	60.8493	7,209.96	55.7366
7,464.84	86.6796	7,464.84	86.5415	7,464.84	86.4262	7,464.84	85.2672	7,464.84	86.3856	7,464.84	84.9625	7,464.84	85.5773	7,464.84	84.4261	7,464.84	83.811	7,464.84	82.3058	7,464.84	82.0305	7,464.84	78.5177	7,464.84	81.2975	7,464.84	76.1646	7,464.84	81.3017	7,464.84	72.8677	7,464.84	80.3376	7,464.84	70.1368	7,464.84	74.6204	7,464.84	67.0748	7,464.84	65.9487	7,464.84	64.3469	7,464.84	60.3224	7,464.84	63.1551	7,464.84	54.9317	7,464.84	63.6955	7,464.84	57.9641	7,464.84	63.9547	7,464.84	57.0734	7,464.84	65.7587	7,464.84	62.2453	7,464.84	67.7646	7,464.84	55.9814	7,464.84	64.8044	7,464.84	61.393	7,464.84	55.668
7,728.52	86.9084	7,728.52	86.9622	7,728.52	86.3086	7,728.52	85.6264	7,728.52	86.6758	7,728.52	85.4109	7,728.52	86.1566	7,728.52	84.5093	7,728.52	83.8876	7,728.52	82.1355	7,728.52	81.3714	7,728.52	78.556	7,728.52	80.0736	7,728.52	76.0115	7,728.52	80.445	7,728.52	72.6383	7,728.52	79.1591	7,728.52	70.4066	7,728.52	70.3443	7,728.52	66.8598	7,728.52	70.1129	7,728.52	63.786	7,728.52	63.9357	7,728.52	62.466	7,728.52	53.7313	7,728.52	63.9647	7,728.52	61.0128	7,728.52	63.9532	7,728.52	52.1254	7,728.52	66.1608	7,728.52	62.9324	7,728.52	67.6321	7,728.52	57.9165	7,728.52	65.1194	7,728.52	62.4638	7,728.52	56.9853
8,000.98	87.6122	8,000.98	87.5184	8,000.98	86.9333	8,000.98	86.2844	8,000.98	86.9113	8,000.98	85.6137	8,000.98	86.2944	8,000.98	84.2883	8,000.98	84.313	8,000.98	82.1026	8,000.98	82.0926	8,000.98	78.438	8,000.98	79.981	8,000.98	76.7633	8,000.98	78.9791	8,000.98	72.5653	8,000.98	75.6331	8,000.98	69.9546	8,000.98	62.4257	8,000.98	66.3245	8,000.98	70.246	8,000.98	64.8993	8,000.98	68.3247	8,000.98	62.5866	8,000.98	58.4904	8,000.98	63.1257	8,000.98	60.2206	8,000.98	63.6151	8,000.98	53.5932	8,000.98	65.9223	8,000.98	60.5028	8,000.98	67.6594	8,000.98	55.5471	8,000.98	65.1067	8,000.98	59.4836	8,000.98	54.8885
8,282.23	87.8717	8,282.23	87.9058	8,282.23	87.3622	8,282.23	86.7346	8,282.23	87.3891	8,282.23	85.5979	8,282.23	86.5734	8,282.23	84.0706	8,282.23	84.454	8,282.23	81.7354	8,282.23	82.4803	8,282.23	79.1201	8,282.23	79.2625	8,282.23	76.3365	8,282.23	77.8756	8,282.23	72.5816	8,282.23	69.5039	8,282.23	69.2812	8,282.23	64.9436	8,282.23	65.2985	8,282.23	69.5153	8,282.23	64.858	8,282.23	68.8093	8,282.23	63.6747	8,282.23	61.5266	8,282.23	63.3108	8,282.23	56.9015	8,282.23	62.8883	8,282.23	52.9432	8,282.23	64.4121	8,282.23	64.06	8,282.23	67.6821	8,282.23	54.5701	8,282.23	65.4822	8,282.23	58.8248	8,282.23	54.4102
8,575.2	87.9818	8,575.2	87.9052	8,575.2	87.7644	8,575.2	86.8319	8,575.2	87.7634	8,575.2	85.6913	8,575.2	86.6017	8,575.2	83.4547	8,575.2	84.6732	8,575.2	82.0192	8,575.2	83.002	8,575.2	78.5073	8,575.2	80.0121	8,575.2	76.1144	8,575.2	77.8906	8,575.2	71.5826	8,575.2	68.0017	8,575.2	69.2596	8,575.2	68.4613	8,575.2	64.8817	8,575.2	65.3489	8,575.2	63.7272	8,575.2	67.8751	8,575.2	62.1942	8,575.2	56.4247	8,575.2	62.7042	8,575.2	46.8465	8,575.2	63.2768	8,575.2	49.9627	8,575.2	62.6946	8,575.2	59.9016	8,575.2	66.2463	8,575.2	58.0372	8,575.2	64.9998	8,575.2	56.8941	8,575.2	56.4395
8,876.95	87.7324	8,876.95	87.6942	8,876.95	87.8308	8,876.95	87.1129	8,876.95	87.7691	8,876.95	85.3552	8,876.95	86.4094	8,876.95	83.2997	8,876.95	84.5205	8,876.95	81.587	8,876.95	82.5129	8,876.95	78.3446	8,876.95	79.8122	8,876.95	76.3754	8,876.95	78.7151	8,876.95	72.7762	8,876.95	72.4092	8,876.95	68.7945	8,876.95	70.6879	8,876.95	64.7352	8,876.95	57.583	8,876.95	62.9006	8,876.95	63.821	8,876.95	62.5602	8,876.95	61.6034	8,876.95	61.0175	8,876.95	52.4363	8,876.95	63.2528	8,876.95	55.5634	8,876.95	60.0649	8,876.95	61.2907	8,876.95	65.4455	8,876.95	50.919	8,876.95	64.6602	8,876.95	51.511	8,876.95	54.9476
9,190.43	87.3943	9,190.43	87.5404	9,190.43	87.8019	9,190.43	87.1671	9,190.43	87.7879	9,190.43	85.1928	9,190.43	86.3211	9,190.43	83.2357	9,190.43	84.4614	9,190.43	81.2891	9,190.43	81.9722	9,190.43	78.3895	9,190.43	79.6203	9,190.43	76.2443	9,190.43	79.0379	9,190.43	72.15	9,190.43	72.6219	9,190.43	68.8681	9,190.43	70.2755	9,190.43	64.916	9,190.43	62.5426	9,190.43	62.2338	9,190.43	64.9066	9,190.43	62.2968	9,190.43	58.8811	9,190.43	59.8679	9,190.43	44.08	9,190.43	63.3004	9,190.43	50.3435	9,190.43	57.0463	9,190.43	61.7213	9,190.43	65.2417	9,190.43	54.7819	9,190.43	63.6003	9,190.43	56.7052	9,190.43	55.0287
9,512.7	87.2474	9,512.7	87.6455	9,512.7	87.8494	9,512.7	87.2241	9,512.7	87.753	9,512.7	84.9801	9,512.7	86.2473	9,512.7	83.5484	9,512.7	84.3381	9,512.7	80.9784	9,512.7	81.421	9,512.7	78.8985	9,512.7	79.438	9,512.7	75.7423	9,512.7	78.5531	9,512.7	72.05	9,512.7	68.5551	9,512.7	68.2925	9,512.7	71.1115	9,512.7	65.6372	9,512.7	65.2813	9,512.7	62.0949	9,512.7	64.8789	9,512.7	63.3946	9,512.7	57.4457	9,512.7	58.4148	9,512.7	51.887	9,512.7	62.6786	9,512.7	55.2098	9,512.7	50.2252	9,512.7	59.6661	9,512.7	64.6775	9,512.7	44.7001	9,512.7	62.5091	9,512.7	55.9663	9,512.7	56.4921
9,849.61	87.3728	9,849.61	88.0749	9,849.61	88.0807	9,849.61	87.3066	9,849.61	87.7949	9,849.61	84.8951	9,849.61	86.3444	9,849.61	83.2941	9,849.61	84.1301	9,849.61	81.3058	9,849.61	81.6548	9,849.61	79.0846	9,849.61	80.5983	9,849.61	76.0584	9,849.61	78.7719	9,849.61	71.2146	9,849.61	69.9532	9,849.61	68.4301	9,849.61	70.8997	9,849.61	65.0119	9,849.61	65.4659	9,849.61	60.3335	9,849.61	68.0554	9,849.61	62.1905	9,849.61	50.5343	9,849.61	61.751	9,849.61	43.8505	9,849.61	62.182	9,849.61	57.5451	9,849.61	53.7079	9,849.61	60.8236	9,849.61	66.2391	9,849.61	49.9322	9,849.61	61.6701	9,849.61	52.3987	9,849.61	55.8975
10,195.3	87.7667	10,195.3	88.4009	10,195.3	88.2558	10,195.3	87.2575	10,195.3	87.8389	10,195.3	84.9898	10,195.3	86.2643	10,195.3	83.1019	10,195.3	83.8944	10,195.3	81.7296	10,195.3	81.8243	10,195.3	78.5169	10,195.3	80.7708	10,195.3	76.5326	10,195.3	77.5792	10,195.3	71.9436	10,195.3	70.5438	10,195.3	68.0346	10,195.3	66.8168	10,195.3	64.2821	10,195.3	59.624	10,195.3	61.2995	10,195.3	66.6221	10,195.3	59.3248	10,195.3	51.8393	10,195.3	64.0179	10,195.3	56.5367	10,195.3	61.2931	10,195.3	52.7525	10,195.3	56.4489	10,195.3	59.278	10,195.3	65.9364	10,195.3	48.4321	10,195.3	59.322	10,195.3	56.727	10,195.3	57.2467
10,555.7	88.1537	10,555.7	88.3159	10,555.7	88.498	10,555.7	87.0458	10,555.7	87.6849	10,555.7	85.0325	10,555.7	86.2481	10,555.7	83.0102	10,555.7	83.6527	10,555.7	81.286	10,555.7	81.6005	10,555.7	77.9639	10,555.7	79.622	10,555.7	76.2227	10,555.7	77.1887	10,555.7	71.5336	10,555.7	67.8124	10,555.7	65.7167	10,555.7	68.0664	10,555.7	63.7655	10,555.7	59.9201	10,555.7	61.8522	10,555.7	69.8506	10,555.7	54.8606	10,555.7	58.374	10,555.7	64.1147	10,555.7	52.2259	10,555.7	58.7186	10,555.7	42.2959	10,555.7	59.1618	10,555.7	58.5233	10,555.7	64.8368	10,555.7	51.3497	10,555.7	57.3451	10,555.7	59.1798	10,555.7	46.9306
10,927.7	88.2123	10,927.7	88.0547	10,927.7	88.5867	10,927.7	86.8791	10,927.7	87.7618	10,927.7	85.146	10,927.7	86.1494	10,927.7	83.222	10,927.7	83.5589	10,927.7	81.0304	10,927.7	81.3595	10,927.7	77.8424	10,927.7	80.112	10,927.7	76.0057	10,927.7	76.5563	10,927.7	71.7829	10,927.7	62.8451	10,927.7	66.0811	10,927.7	68.8737	10,927.7	63.2911	10,927.7	65.0317	10,927.7	60.9335	10,927.7	70.5157	10,927.7	53.8316	10,927.7	58.9013	10,927.7	63.9267	10,927.7	53.2867	10,927.7	57.5617	10,927.7	32.8639	10,927.7	60.2694	10,927.7	55.9108	10,927.7	62.7766	10,927.7	44.2832	10,927.7	58.697	10,927.7	58.8909	10,927.7	49.1393
11,314.5	88.1408	11,314.5	88.0559	11,314.5	88.4396	11,314.5	87.0169	11,314.5	87.7438	11,314.5	85.4154	11,314.5	86.3892	11,314.5	83.3933	11,314.5	83.578	11,314.5	80.9271	11,314.5	81.4729	11,314.5	78.1575	11,314.5	79.1915	11,314.5	75.5329	11,314.5	72.1418	11,314.5	71.0123	11,314.5	68.7039	11,314.5	65.3703	11,314.5	68.7242	11,314.5	62.492	11,314.5	65.831	11,314.5	61.3923	11,314.5	71.5286	11,314.5	53.7917	11,314.5	58.0836	11,314.5	63.7478	11,314.5	47.6571	11,314.5	58.3267	11,314.5	54.0249	11,314.5	60.3989	11,314.5	55.932	11,314.5	62.1754	11,314.5	50.4323	11,314.5	59.9577	11,314.5	59.3713	11,314.5	51.0278
11,712.9	87.8116	11,712.9	88.0566	11,712.9	87.8068	11,712.9	87.0017	11,712.9	87.2826	11,712.9	85.4923	11,712.9	85.9882	11,712.9	83.3444	11,712.9	83.3406	11,712.9	81.4029	11,712.9	81.7129	11,712.9	78.1799	11,712.9	78.6823	11,712.9	75.2726	11,712.9	72.7283	11,712.9	72.0641	11,712.9	69.6965	11,712.9	65.8512	11,712.9	68.5501	11,712.9	63.6745	11,712.9	67.3063	11,712.9	62.3112	11,712.9	73.7226	11,712.9	58.2952	11,712.9	62.4518	11,712.9	63.8632	11,712.9	47.1621	11,712.9	59.6163	11,712.9	55.6085	11,712.9	60.4226	11,712.9	53.6866	11,712.9	61.6291	11,712.9	47.3327	11,712.9	57.532	11,712.9	58.0556	11,712.9	49.0616
12,126	87.8326	12,126	87.712	12,126	87.5243	12,126	86.4273	12,126	86.8455	12,126	85.3951	12,126	85.4091	12,126	83.1998	12,126	83.5192	12,126	81.7365	12,126	81.6825	12,126	77.297	12,126	78.7315	12,126	75.7154	12,126	74.7593	12,126	72.3332	12,126	70.9179	12,126	66.9709	12,126	70.2443	12,126	63.1092	12,126	66.9538	12,126	61.7374	12,126	74.3961	12,126	60.4803	12,126	63.6607	12,126	63.2733	12,126	39.1585	12,126	59.1942	12,126	52.8199	12,126	59.7907	12,126	55.8971	12,126	60.2849	12,126	32.8241	12,126	57.418	12,126	58.555	12,126	31.0018
12,553.7	87.7552	12,553.7	87.0697	12,553.7	87.5016	12,553.7	86.0389	12,553.7	86.6577	12,553.7	84.9842	12,553.7	85.2793	12,553.7	83.4451	12,553.7	84.005	12,553.7	81.1978	12,553.7	81.853	12,553.7	77.6383	12,553.7	79.7325	12,553.7	75.7713	12,553.7	75.3309	12,553.7	72.1816	12,553.7	68.0242	12,553.7	67.2089	12,553.7	70.7647	12,553.7	63.7126	12,553.7	66.4422	12,553.7	61.3975	12,553.7	74.7015	12,553.7	61.1284	12,553.7	64.7825	12,553.7	61.7655	12,553.7	40.8388	12,553.7	60.3038	12,553.7	50.0504	12,553.7	57.3434	12,553.7	54.5845	12,553.7	59.4219	12,553.7	44.9987	12,553.7	57.8768	12,553.7	58.0576	12,553.7	45.4322
12,996.1	87.7658	12,996.1	86.716	12,996.1	87.3127	12,996.1	85.63	12,996.1	86.4043	12,996.1	84.5353	12,996.1	85.1769	12,996.1	83.5671	12,996.1	83.8215	12,996.1	80.4616	12,996.1	81.2444	12,996.1	78.0403	12,996.1	79.202	12,996.1	75.0932	12,996.1	73.9018	12,996.1	71.9563	12,996.1	67.6657	12,996.1	67.3401	12,996.1	70.2959	12,996.1	63.9306	12,996.1	68.2934	12,996.1	61.8338	12,996.1	74.4547	12,996.1	59.9353	12,996.1	63.4551	12,996.1	61.5772	12,996.1	49.9033	12,996.1	59.5771	12,996.1	50.9135	12,996.1	55.1002	12,996.1	57.2229	12,996.1	58.6736	12,996.1	48.091	12,996.1	56.7146	12,996.1	59.6652	12,996.1	51.8938
13,453.1	87.4581	13,453.1	86.8097	13,453.1	87.0191	13,453.1	85.5188	13,453.1	86.2501	13,453.1	84.1342	13,453.1	85.226	13,453.1	83.185	13,453.1	83.5639	13,453.1	80.1023	13,453.1	80.8966	13,453.1	77.5772	13,453.1	78.325	13,453.1	75.2749	13,453.1	70.3053	13,453.1	71.2743	13,453.1	71.8453	13,453.1	66.1967	13,453.1	67.7728	13,453.1	62.8894	13,453.1	68.4398	13,453.1	60.4377	13,453.1	74.1334	13,453.1	58.5767	13,453.1	63.1271	13,453.1	62.8238	13,453.1	56.0338	13,453.1	59.1157	13,453.1	54.9733	13,453.1	52.8361	13,453.1	52.7418	13,453.1	59.3096	13,453.1	45.5325	13,453.1	56.325	13,453.1	59.2028	13,453.1	52.0806
13,927.7	86.9829	13,927.7	86.4912	13,927.7	86.6331	13,927.7	85.3013	13,927.7	86.1821	13,927.7	84.3742	13,927.7	85.401	13,927.7	82.8734	13,927.7	83.3941	13,927.7	80.0491	13,927.7	81.3083	13,927.7	77.2651	13,927.7	78.3986	13,927.7	74.5913	13,927.7	71.543	13,927.7	70.5176	13,927.7	70.4094	13,927.7	64.4717	13,927.7	66.2773	13,927.7	61.9255	13,927.7	68.3573	13,927.7	58.868	13,927.7	74.366	13,927.7	61.049	13,927.7	64.6529	13,927.7	62.2848	13,927.7	56.5806	13,927.7	58.5704	13,927.7	54.79	13,927.7	53.3977	13,927.7	50.6198	13,927.7	57.7611	13,927.7	42.2797	13,927.7	55.9039	13,927.7	57.0023	13,927.7	55.3551
14,419.9	86.7546	14,419.9	85.9937	14,419.9	86.4346	14,419.9	85.2025	14,419.9	85.8535	14,419.9	84.6247	14,419.9	85.2207	14,419.9	82.7293	14,419.9	82.6079	14,419.9	80.0704	14,419.9	81.3152	14,419.9	76.687	14,419.9	77.466	14,419.9	73.0005	14,419.9	73.1682	14,419.9	70.0041	14,419.9	67.8063	14,419.9	64.3643	14,419.9	68.1439	14,419.9	61.4939	14,419.9	67.4831	14,419.9	56.4749	14,419.9	74.2865	14,419.9	61.8018	14,419.9	65.7575	14,419.9	60.9011	14,419.9	57.064	14,419.9	54.692	14,419.9	57.9811	14,419.9	52.0828	14,419.9	44.6107	14,419.9	55.458	14,419.9	49.3125	14,419.9	57.4793	14,419.9	54.3776	14,419.9	57.0188
14,929.7	86.8847	14,929.7	85.9302	14,929.7	86.4186	14,929.7	85.1798	14,929.7	85.8095	14,929.7	84.3825	14,929.7	84.5979	14,929.7	82.4398	14,929.7	81.973	14,929.7	79.8319	14,929.7	80.5053	14,929.7	75.532	14,929.7	76.8503	14,929.7	72.2575	14,929.7	71.7037	14,929.7	70.4701	14,929.7	68.4825	14,929.7	65.2991	14,929.7	66.8646	14,929.7	61.0564	14,929.7	69.139	14,929.7	55.4048	14,929.7	74.7993	14,929.7	62.306	14,929.7	66.4821	14,929.7	59.7753	14,929.7	59.9669	14,929.7	52.2567	14,929.7	57.7943	14,929.7	50.4365	14,929.7	45.2527	14,929.7	53.2168	14,929.7	45.7198	14,929.7	59.182	14,929.7	50.4605	14,929.7	57.5863
15,454.1	87.1924	15,454.1	86.3999	15,454.1	86.5458	15,454.1	85.4457	15,454.1	86.1567	15,454.1	84.2084	15,454.1	84.3241	15,454.1	82.0752	15,454.1	81.8345	15,454.1	78.9993	15,454.1	79.9011	15,454.1	73.8844	15,454.1	75.4612	15,454.1	72.2226	15,454.1	71.3312	15,454.1	69.4432	15,454.1	67.3413	15,454.1	64.0353	15,454.1	65.6762	15,454.1	58.9597	15,454.1	68.763	15,454.1	53.1197	15,454.1	74.2969	15,454.1	61.2026	15,454.1	66.6047	15,454.1	57.7061	15,454.1	59.4822	15,454.1	51.0331	15,454.1	57.6681	15,454.1	54.2755	15,454.1	39.0369	15,454.1	53.8699	15,454.1	45.784	15,454.1	60.1412	15,454.1	47.9306	15,454.1	59.2011
15,999	87.2184	15,999	86.6958	15,999	86.7714	15,999	85.6285	15,999	86.4701	15,999	84.1627	15,999	84.2056	15,999	82.0935	15,999	82.1648	15,999	77.6958	15,999	79.3453	15,999	74.0076	15,999	75.8682	15,999	71.0431	15,999	69.4819	15,999	67.9009	15,999	64.6884	15,999	63.0019	15,999	65.7955	15,999	57.6485	15,999	68.2253	15,999	49.9178	15,999	74.4217	15,999	60.0516	15,999	65.4095	15,999	57.1853	15,999	60.8659	15,999	42.5286	15,999	60.1665	15,999	57.5662	15,999	37.2853	15,999	55.2607	15,999	50.9726	15,999	61.8035	15,999	54.1015	15,999	61.0341
16,564.5	87.2251	16,564.5	86.6778	16,564.5	86.8452	16,564.5	85.6382	16,564.5	86.2868	16,564.5	83.9245	16,564.5	84.0035	16,564.5	81.7211	16,564.5	81.9078	16,564.5	75.7336	16,564.5	78.8162	16,564.5	73.3438	16,564.5	74.6277	16,564.5	69.5723	16,564.5	70.1666	16,564.5	66.8118	16,564.5	64.2839	16,564.5	62.2704	16,564.5	67.4665	16,564.5	58.3532	16,564.5	67.0555	16,564.5	43.6454	16,564.5	74.7855	16,564.5	61.0534	16,564.5	66.9257	16,564.5	57.5826	16,564.5	63.5999	16,564.5	37.0115	16,564.5	62.7974	16,564.5	56.9683	16,564.5	47.6705	16,564.5	56.5116	16,564.5	50.9076	16,564.5	62.6084	16,564.5	55.2676	16,564.5	62.3781
17,147.5	87.3265	17,147.5	86.7261	17,147.5	86.9426	17,147.5	85.6759	17,147.5	86.2098	17,147.5	84.1434	17,147.5	84.2164	17,147.5	81.5449	17,147.5	81.9435	17,147.5	75.803	17,147.5	79.162	17,147.5	72.3824	17,147.5	74.655	17,147.5	68.7354	17,147.5	69.8194	17,147.5	66.703	17,147.5	64.9425	17,147.5	61.6804	17,147.5	65.253	17,147.5	57.436	17,147.5	67.3374	17,147.5	42.8541	17,147.5	74.6802	17,147.5	61.3755	17,147.5	68.2495	17,147.5	57.7018	17,147.5	64.0803	17,147.5	47.1934	17,147.5	63.3386	17,147.5	58.5086	17,147.5	48.3406	17,147.5	56.9237	17,147.5	50.7913	17,147.5	63.8363	17,147.5	59.4621	17,147.5	62.6831
17,753.9	87.6169	17,753.9	87.0914	17,753.9	87.3006	17,753.9	85.81	17,753.9	86.3934	17,753.9	84.1579	17,753.9	84.3526	17,753.9	80.593	17,753.9	81.3852	17,753.9	74.6734	17,753.9	78.246	17,753.9	70.1085	17,753.9	72.5571	17,753.9	65.5647	17,753.9	68.5733	17,753.9	65.5337	17,753.9	62.738	17,753.9	60.9359	17,753.9	65.1489	17,753.9	54.2613	17,753.9	66.0298	17,753.9	46.3504	17,753.9	73.7268	17,753.9	60.3711	17,753.9	68.2932	17,753.9	56.969	17,753.9	62.6043	17,753.9	50.3354	17,753.9	62.0297	17,753.9	58.144	17,753.9	53.5962	17,753.9	56.8572	17,753.9	51.6697	17,753.9	63.6248	17,753.9	61.3708	17,753.9	62.5222
18,377.9	87.3902	18,377.9	87.005	18,377.9	87.4136	18,377.9	85.9047	18,377.9	86.4494	18,377.9	84.0611	18,377.9	84.2749	18,377.9	79.7101	18,377.9	80.8487	18,377.9	72.9443	18,377.9	77.051	18,377.9	68.0893	18,377.9	71.097	18,377.9	61.7448	18,377.9	68.15	18,377.9	63.6248	18,377.9	57.3363	18,377.9	60.9525	18,377.9	63.5641	18,377.9	52.219	18,377.9	64.2972	18,377.9	46.3308	18,377.9	73.4568	18,377.9	59.0037	18,377.9	67.2164	18,377.9	55.9669	18,377.9	62.4683	18,377.9	51.2854	18,377.9	62.3473	18,377.9	59.4963	18,377.9	53.3623	18,377.9	57.3499	18,377.9	51.5601	18,377.9	63.3261	18,377.9	60.7704	18,377.9	62.7212
19,028.3	87.8277	19,028.3	87.2547	19,028.3	87.6075	19,028.3	85.9718	19,028.3	86.2998	19,028.3	83.7643	19,028.3	83.6225	19,028.3	79.1386	19,028.3	79.9686	19,028.3	71.0747	19,028.3	75.1872	19,028.3	65.924	19,028.3	68.9365	19,028.3	59.9298	19,028.3	67.73	19,028.3	62.301	19,028.3	53.2549	19,028.3	59.8593	19,028.3	61.7719	19,028.3	50.3402	19,028.3	59.7141	19,028.3	48.4808	19,028.3	71.9909	19,028.3	58.656	19,028.3	65.8054	19,028.3	55.3828	19,028.3	62.284	19,028.3	52.0992	19,028.3	62.5496	19,028.3	60.1675	19,028.3	53.5194	19,028.3	55.7906	19,028.3	52.1904	19,028.3	64.1984	19,028.3	61.7882	19,028.3	62.6672
19,699.2	88.6693	19,699.2	87.7396	19,699.2	88.1621	19,699.2	85.9168	19,699.2	86.3737	19,699.2	83.064	19,699.2	83.107	19,699.2	78.1579	19,699.2	78.875	19,699.2	68.3851	19,699.2	73.6307	19,699.2	62.8588	19,699.2	66.6107	19,699.2	54.7955	19,699.2	66.0673	19,699.2	61.2602	19,699.2	48.6394	19,699.2	59.2589	19,699.2	59.8871	19,699.2	44.0767	19,699.2	57.5286	19,699.2	48.7067	19,699.2	71.0265	19,699.2	58.1033	19,699.2	65.1309	19,699.2	55.6784	19,699.2	61.9625	19,699.2	52.9792	19,699.2	62.0587	19,699.2	59.7069	19,699.2	53.0958	19,699.2	56.7577	19,699.2	52.0233	19,699.2	64.2842	19,699.2	62.1711	19,699.2	62.782
19,998	88.8407	19,998	87.7821	19,998	88.5397	19,998	85.949	19,998	86.5712	19,998	82.6213	19,998	82.8692	19,998	77.4398	19,998	78.5562	19,998	66.9428	19,998	72.5684	19,998	62.3599	19,998	63.7926	19,998	54.015	19,998	67.3014	19,998	58.6095	19,998	42.5605	19,998	57.5173	19,998	55.2759	19,998	48.9358	19,998	59.7409	19,998	46.0791	19,998	72.1444	19,998	59.8916	19,998	65.5196	19,998	52.2601	19,998	61.8095	19,998	50.8418	19,998	62.7871	19,998	59.643	19,998	47.8895	19,998	56.2197	19,998	49.9888	19,998	62.9571	19,998	62.7047	19,998	61.076
