"SPL Horizontal"																																																																							
"On-Axis"		"10°"		"-10°"		"20°"		"-20°"		"30°"		"-30°"		"40°"		"-40°"		"50°"		"-50°"		"60°"		"-60°"		"70°"		"-70°"		"80°"		"-80°"		"90°"		"-90°"		"100°"		"-100°"		"110°"		"-110°"		"120°"		"-120°"		"130°"		"-130°"		"140°"		"-140°"		"150°"		"-150°"		"160°"		"-160°"		"170°"		"-170°"		"180°"	
"Frequency [Hz]"	"Sound Pessure Level [dB]  / [2.83V 1m] "	"Frequency [Hz]"	"Sound Pessure Level [dB]  / [2.83V 1m] "	"Frequency [Hz]"	"Sound Pessure Level [dB]  / [2.83V 1m] "	"Frequency [Hz]"	"Sound Pessure Level [dB]  / [2.83V 1m] "	"Frequency [Hz]"	"Sound Pessure Level [dB]  / [2.83V 1m] "	"Frequency [Hz]"	"Sound Pessure Level [dB]  / [2.83V 1m] "	"Frequency [Hz]"	"Sound Pessure Level [dB]  / [2.83V 1m] "	"Frequency [Hz]"	"Sound Pessure Level [dB]  / [2.83V 1m] "	"Frequency [Hz]"	"Sound Pessure Level [dB]  / [2.83V 1m] "	"Frequency [Hz]"	"Sound Pessure Level [dB]  / [2.83V 1m] "	"Frequency [Hz]"	"Sound Pessure Level [dB]  / [2.83V 1m] "	"Frequency [Hz]"	"Sound Pessure Level [dB]  / [2.83V 1m] "	"Frequency [Hz]"	"Sound Pessure Level [dB]  / [2.83V 1m] "	"Frequency [Hz]"	"Sound Pessure Level [dB]  / [2.83V 1m] "	"Frequency [Hz]"	"Sound Pessure Level [dB]  / [2.83V 1m] "	"Frequency [Hz]"	"Sound Pessure Level [dB]  / [2.83V 1m] "	"Frequency [Hz]"	"Sound Pessure Level [dB]  / [2.83V 1m] "	"Frequency [Hz]"	"Sound Pessure Level [dB]  / [2.83V 1m] "	"Frequency [Hz]"	"Sound Pessure Level [dB]  / [2.83V 1m] "	"Frequency [Hz]"	"Sound Pessure Level [dB]  / [2.83V 1m] "	"Frequency [Hz]"	"Sound Pessure Level [dB]  / [2.83V 1m] "	"Frequency [Hz]"	"Sound Pessure Level [dB]  / [2.83V 1m] "	"Frequency [Hz]"	"Sound Pessure Level [dB]  / [2.83V 1m] "	"Frequency [Hz]"	"Sound Pessure Level [dB]  / [2.83V 1m] "	"Frequency [Hz]"	"Sound Pessure Level [dB]  / [2.83V 1m] "	"Frequency [Hz]"	"Sound Pessure Level [dB]  / [2.83V 1m] "	"Frequency [Hz]"	"Sound Pessure Level [dB]  / [2.83V 1m] "	"Frequency [Hz]"	"Sound Pessure Level [dB]  / [2.83V 1m] "	"Frequency [Hz]"	"Sound Pessure Level [dB]  / [2.83V 1m] "	"Frequency [Hz]"	"Sound Pessure Level [dB]  / [2.83V 1m] "	"Frequency [Hz]"	"Sound Pessure Level [dB]  / [2.83V 1m] "	"Frequency [Hz]"	"Sound Pessure Level [dB]  / [2.83V 1m] "	"Frequency [Hz]"	"Sound Pessure Level [dB]  / [2.83V 1m] "	"Frequency [Hz]"	"Sound Pessure Level [dB]  / [2.83V 1m] "	"Frequency [Hz]"	"Sound Pessure Level [dB]  / [2.83V 1m] "	"Frequency [Hz]"	"Sound Pessure Level [dB]  / [2.83V 1m] "
20.5078	53.0866	20.5078	53.0148	20.5078	53.0528	20.5078	52.862	20.5078	52.9206	20.5078	52.6933	20.5078	52.7316	20.5078	52.6253	20.5078	52.5747	20.5078	52.8169	20.5078	52.5923	20.5078	53.4029	20.5078	52.9475	20.5078	54.3974	20.5078	53.7308	20.5078	55.6811	20.5078	54.8867	20.5078	57.0883	20.5078	56.2578	20.5078	58.4852	20.5078	57.6848	20.5078	59.7884	20.5078	59.0564	20.5078	60.9514	20.5078	60.3082	20.5078	61.9492	20.5078	61.4052	20.5078	62.7679	20.5078	62.3287	20.5078	63.3991	20.5078	63.0678	20.5078	63.8375	20.5078	63.6158	20.5078	64.0796	20.5078	63.9685	20.5078	64.1234
23.4375	57.3892	23.4375	57.3549	23.4375	57.3665	23.4375	57.2844	23.4375	57.2937	23.4375	57.2292	23.4375	57.2066	23.4375	57.273	23.4375	57.174	23.4375	57.5192	23.4375	57.2938	23.4375	58.051	23.4375	57.6673	23.4375	58.8827	23.4375	58.3496	23.4375	59.9482	23.4375	59.3123	23.4375	61.1393	23.4375	60.46	23.4375	62.3524	23.4375	61.6809	23.4375	63.5106	23.4375	62.8826	23.4375	64.5636	23.4375	64.0018	23.4375	65.4798	23.4375	64.9981	23.4375	66.2394	23.4375	65.8464	23.4375	66.8294	23.4375	66.5308	23.4375	67.2416	23.4375	67.0408	23.4375	67.4705	23.4375	67.3696	23.4375	67.5134
26.3672	61.9782	26.3672	61.9611	26.3672	61.9648	26.3672	61.9272	26.3672	61.9257	26.3672	61.9091	26.3672	61.8842	26.3672	61.9584	26.3672	61.8832	26.3672	62.1394	26.3672	61.9824	26.3672	62.5108	26.3672	62.2471	26.3672	63.1006	26.3672	62.724	26.3672	63.8895	26.3672	63.4183	26.3672	64.8179	26.3672	64.2879	26.3672	65.8102	26.3672	65.2615	26.3672	66.7961	26.3672	66.2635	26.3672	67.7201	26.3672	67.2301	26.3672	68.5422	26.3672	68.1136	26.3672	69.2349	26.3672	68.8802	26.3672	69.7792	26.3672	69.5069	26.3672	70.1624	26.3672	69.9781	26.3672	70.3764	26.3672	70.2835	26.3672	70.4171
29.2969	66.2387	29.2969	66.2329	29.2969	66.2331	29.2969	66.2249	29.2969	66.2192	29.2969	66.236	29.2969	66.2124	29.2969	66.2991	29.2969	66.2399	29.2969	66.4548	29.2969	66.3391	29.2969	66.7419	29.2969	66.5512	29.2969	67.1849	29.2969	66.9099	29.2969	67.7819	29.2969	67.428	29.2969	68.5032	29.2969	68.0897	29.2969	69.2999	29.2969	68.8547	29.2969	70.1173	29.2969	69.6698	29.2969	70.905	29.2969	70.4812	29.2969	71.6218	29.2969	71.2424	29.2969	72.236	29.2969	71.9167	29.2969	72.7245	29.2969	72.4765	29.2969	73.0713	29.2969	72.902	29.2969	73.2657	29.2969	73.1799	29.2969	73.3023
32.2266	69.9126	32.2266	69.9157	32.2266	69.9096	32.2266	69.9251	32.2266	69.9088	32.2266	69.9551	32.2266	69.9206	32.2266	70.0274	32.2266	69.9631	32.2266	70.1684	32.2266	70.0609	32.2266	70.4045	32.2266	70.2413	32.2266	70.7544	32.2266	70.5282	32.2266	71.222	32.2266	70.934	32.2266	71.7928	32.2266	71.4539	32.2266	72.436	32.2266	72.0651	32.2266	73.1116	32.2266	72.7312	32.2266	73.7776	32.2266	73.4103	32.2266	74.3957	32.2266	74.0613	32.2266	74.9339	32.2266	74.6486	32.2266	75.3672	32.2266	75.1433	32.2266	75.6772	32.2266	75.5233	32.2266	75.8517	32.2266	75.7735	32.2266	75.8843
35.1563	73.0138	35.1563	73.0212	35.1563	73.0131	35.1563	73.0395	35.1563	73.0204	35.1563	73.0785	35.1563	73.0429	35.1563	73.1528	35.1563	73.0928	35.1563	73.2806	35.1563	73.1869	35.1563	73.4801	35.1563	73.3436	35.1563	73.7655	35.1563	73.5799	35.1563	74.1419	35.1563	73.9064	35.1563	74.6025	35.1563	74.323	35.1563	75.1275	35.1563	74.8167	35.1563	75.688	35.1563	75.3632	35.1563	76.2503	35.1563	75.9305	35.1563	76.7807	35.1563	76.4845	35.1563	77.2489	35.1563	76.9925	35.1563	77.6297	35.1563	77.4262	35.1563	77.9041	35.1563	77.7631	35.1563	78.0589	35.1563	77.9868	35.1563	78.0869
38.0859	75.5126	38.0859	75.5232	38.0859	75.5138	38.0859	75.5485	38.0859	75.5278	38.0859	75.5952	38.0859	75.5593	38.0859	75.6732	38.0859	75.6165	38.0859	75.7945	38.0859	75.7107	38.0859	75.9715	38.0859	75.8541	38.0859	76.2143	38.0859	76.0584	38.0859	76.5274	38.0859	76.3316	38.0859	76.9072	38.0859	76.6748	38.0859	77.341	38.0859	77.0807	38.0859	77.8081	38.0859	77.5327	38.0859	78.2822	38.0859	78.0072	38.0859	78.7348	38.0859	78.4766	38.0859	79.1389	38.0859	78.9127	38.0859	79.4707	38.0859	79.2894	38.0859	79.7112	38.0859	79.5848	38.0859	79.8473	38.0859	79.7824	38.0859	79.8715
41.0156	77.3364	41.0156	77.3496	41.0156	77.3387	41.0156	77.3802	41.0156	77.3571	41.0156	77.4328	41.0156	77.3947	41.0156	77.5139	41.0156	77.457	41.0156	77.6316	41.0156	77.5514	41.0156	77.7942	41.0156	77.6863	41.0156	78.0086	41.0156	77.8695	41.0156	78.278	41.0156	78.1066	41.0156	78.6004	41.0156	78.399	41.0156	78.967	41.0156	78.7418	41.0156	79.3625	41.0156	79.1235	41.0156	79.7662	41.0156	79.5262	41.0156	80.1548	41.0156	79.9278	41.0156	80.5046	41.0156	80.3043	41.0156	80.7938	41.0156	80.6322	41.0156	81.0046	41.0156	80.8914	41.0156	81.1241	41.0156	81.0658	41.0156	81.1449
43.9453	78.7448	43.9453	78.7606	43.9453	78.7462	43.9453	78.7949	43.9453	78.7651	43.9453	78.8506	43.9453	78.8037	43.9453	78.9318	43.9453	78.8652	43.9453	79.0437	43.9453	78.9546	43.9453	79.1916	43.9453	79.0771	43.9453	79.38	43.9453	79.2381	43.9453	79.6111	43.9453	79.4413	43.9453	79.8836	43.9453	79.6879	43.9453	80.1913	43.9453	79.9751	43.9453	80.523	43.9453	80.2946	43.9453	80.8628	43.9453	80.6335	43.9453	81.1917	43.9453	80.9741	43.9453	81.4893	43.9453	81.2964	43.9453	81.7364	43.9453	81.5801	43.9453	81.9166	43.9453	81.8067	43.9453	82.0177	43.9453	81.961	43.9453	82.0329
46.875	79.7233	46.875	79.7426	46.875	79.7231	46.875	79.7815	46.875	79.7422	46.875	79.8417	46.875	79.7818	46.875	79.9255	46.875	79.8441	46.875	80.0359	46.875	79.9319	46.875	80.1758	46.875	80.0483	46.875	80.3477	46.875	80.1967	46.875	80.5528	46.875	80.3791	46.875	80.7898	46.875	80.5962	46.875	81.0542	46.875	80.8456	46.875	81.3374	46.875	81.1212	46.875	81.6272	46.875	81.4128	46.875	81.9082	46.875	81.7063	46.875	82.1633	46.875	81.9853	46.875	82.376	46.875	82.232	46.875	82.5313	46.875	82.4302	46.875	82.6182	46.875	82.566	46.875	82.6301
49.8047	80.5069	49.8047	80.5262	49.8047	80.5074	49.8047	80.5657	49.8047	80.5281	49.8047	80.6259	49.8047	80.5694	49.8047	80.7081	49.8047	80.6324	49.8047	80.8134	49.8047	80.7184	49.8047	80.9433	49.8047	80.8291	49.8047	81.0989	49.8047	80.9659	49.8047	81.2804	49.8047	81.1298	49.8047	81.4867	49.8047	81.3207	49.8047	81.7142	49.8047	81.5367	49.8047	81.9564	49.8047	81.773	49.8047	82.2038	49.8047	82.022	49.8047	82.444	49.8047	82.2725	49.8047	82.6628	49.8047	82.511	49.8047	82.8459	49.8047	82.7228	49.8047	82.9801	49.8047	82.8934	49.8047	83.0555	49.8047	83.0106	49.8047	83.066
52.7344	81.146	52.7344	81.1656	52.7344	81.147	52.7344	81.2058	52.7344	81.1687	52.7344	81.2665	52.7344	81.2113	52.7344	81.3478	52.7344	81.2748	52.7344	81.4497	52.7344	81.3595	52.7344	81.5724	52.7344	81.4657	52.7344	81.7157	52.7344	81.5935	52.7344	81.8792	52.7344	81.7429	52.7344	82.0615	52.7344	81.9132	52.7344	82.2596	52.7344	82.1026	52.7344	82.4685	52.7344	82.3074	52.7344	82.6806	52.7344	82.5215	52.7344	82.8862	52.7344	82.7363	52.7344	83.0736	52.7344	82.9408	52.7344	83.2306	52.7344	83.1227	52.7344	83.3458	52.7344	83.2697	52.7344	83.4105	52.7344	83.3711	52.7344	83.4192
55.6641	81.7261	55.6641	81.7461	55.6641	81.727	55.6641	81.7867	55.6641	81.7489	55.6641	81.8472	55.6641	81.7915	55.6641	81.927	55.6641	81.8542	55.6641	82.0253	55.6641	81.9366	55.6641	82.141	55.6641	82.0379	55.6641	82.2732	55.6641	82.1573	55.6641	82.4209	55.6641	82.2939	55.6641	82.5824	55.6641	82.4467	55.6641	82.7553	55.6641	82.6137	55.6641	82.9355	55.6641	82.7919	55.6641	83.1173	55.6641	82.9767	55.6641	83.2929	55.6641	83.1611	55.6641	83.4528	55.6641	83.3365	55.6641	83.5868	55.6641	83.4925	55.6641	83.6854	55.6641	83.6188	55.6641	83.7406	55.6641	83.7061	55.6641	83.7478
58.5938	82.2912	58.5938	82.3099	58.5938	82.2935	58.5938	82.349	58.5938	82.3167	58.5938	82.4075	58.5938	82.3603	58.5938	82.4843	58.5938	82.4232	58.5938	82.5775	58.5938	82.504	58.5938	82.6856	58.5938	82.6012	58.5938	82.8068	58.5938	82.7133	58.5938	82.9394	58.5938	82.8384	58.5938	83.0817	58.5938	82.9752	58.5938	83.2314	58.5938	83.1215	58.5938	83.3854	58.5938	83.2749	58.5938	83.5394	58.5938	83.4318	58.5938	83.6874	58.5938	83.5869	58.5938	83.8221	58.5938	83.7334	58.5938	83.9353	58.5938	83.8632	58.5938	84.0189	58.5938	83.968	58.5938	84.0664	58.5938	84.04	58.5938	84.0737
61.5234	82.7214	61.5234	82.7387	61.5234	82.7253	61.5234	82.7767	61.5234	82.7503	61.5234	82.8339	61.5234	82.7955	61.5234	82.9087	61.5234	82.8595	61.5234	82.9988	61.5234	82.9403	61.5234	83.1019	61.5234	83.0355	61.5234	83.2156	61.5234	83.1429	61.5234	83.3377	61.5234	83.2602	61.5234	83.4663	61.5234	83.3854	61.5234	83.5992	61.5234	83.5163	61.5234	83.7338	61.5234	83.6507	61.5234	83.8668	61.5234	83.7859	61.5234	83.9937	61.5234	83.9177	61.5234	84.1086	61.5234	84.0412	61.5234	84.2051	61.5234	84.15	61.5234	84.2766	61.5234	84.2374	61.5234	84.3176	61.5234	84.2972	61.5234	84.3247
64.4531	83.1431	64.4531	83.1601	64.4531	83.1468	64.4531	83.197	64.4531	83.1709	64.4531	83.2523	64.4531	83.2145	64.4531	83.3238	64.4531	83.2757	64.4531	83.4088	64.4531	83.3521	64.4531	83.5045	64.4531	83.441	64.4531	83.6082	64.4531	83.5397	64.4531	83.7172	64.4531	83.6454	64.4531	83.8294	64.4531	83.7557	64.4531	83.9428	64.4531	83.8687	64.4531	84.0553	64.4531	83.9824	64.4531	84.1647	64.4531	84.0947	64.4531	84.2678	64.4531	84.2029	64.4531	84.3605	64.4531	84.3033	64.4531	84.4379	64.4531	84.3915	64.4531	84.4951	64.4531	84.4622	64.4531	84.5277	64.4531	84.5107	64.4531	84.5331
67.3828	83.6153	67.3828	83.6306	67.3828	83.62	67.3828	83.665	67.3828	83.6443	67.3828	83.7169	67.3828	83.687	67.3828	83.7839	67.3828	83.7462	67.3828	83.863	67.3828	83.8191	67.3828	83.951	67.3828	83.9026	67.3828	84.0448	67.3828	83.9935	67.3828	84.1416	67.3828	84.0889	67.3828	84.2391	67.3828	84.1861	67.3828	84.3354	67.3828	84.2832	67.3828	84.429	67.3828	84.3785	67.3828	84.5183	67.3828	84.4705	67.3828	84.6013	67.3828	84.5575	67.3828	84.6755	67.3828	84.6371	67.3828	84.7373	67.3828	84.7062	67.3828	84.7832	67.3828	84.7611	67.3828	84.8098	67.3828	84.7984	67.3828	84.815
70.3125	84.0241	70.3125	84.0341	70.3125	84.0343	70.3125	84.0634	70.3125	84.0642	70.3125	84.1104	70.3125	84.1123	70.3125	84.1724	70.3125	84.1764	70.3125	84.2465	70.3125	84.2532	70.3125	84.329	70.3125	84.3392	70.3125	84.4166	70.3125	84.4309	70.3125	84.5063	70.3125	84.5246	70.3125	84.5956	70.3125	84.6174	70.3125	84.6828	70.3125	84.7071	70.3125	84.7667	70.3125	84.7919	70.3125	84.846	70.3125	84.8705	70.3125	84.9198	70.3125	84.9419	70.3125	84.9861	70.3125	85.0045	70.3125	85.0425	70.3125	85.0566	70.3125	85.0864	70.3125	85.0957	70.3125	85.1149	70.3125	85.1195	70.3125	85.1262
73.2422	84.3871	73.2422	84.3957	73.2422	84.3983	73.2422	84.4236	73.2422	84.4291	73.2422	84.4688	73.2422	84.4777	73.2422	84.5287	73.2422	84.5416	73.2422	84.5999	73.2422	84.6174	73.2422	84.6785	73.2422	84.7012	73.2422	84.761	73.2422	84.7889	73.2422	84.844	73.2422	84.8767	73.2422	84.9247	73.2422	84.9614	73.2422	85.0014	73.2422	85.0405	73.2422	85.0728	73.2422	85.1123	73.2422	85.1384	73.2422	85.1761	73.2422	85.1976	73.2422	85.2315	73.2422	85.2498	73.2422	85.2781	73.2422	85.2937	73.2422	85.3154	73.2422	85.3278	73.2422	85.3424	73.2422	85.3505	73.2422	85.3578	73.2422	85.3607
76.1719	84.7735	76.1719	84.7841	76.1719	84.7824	76.1719	84.8134	76.1719	84.8103	76.1719	84.8594	76.1719	84.8557	76.1719	84.9191	76.1719	84.9158	76.1719	84.9889	76.1719	84.9871	76.1719	85.0649	76.1719	85.0656	76.1719	85.143	76.1719	85.1469	76.1719	85.2195	76.1719	85.2271	76.1719	85.2917	76.1719	85.3027	76.1719	85.3575	76.1719	85.3712	76.1719	85.4158	76.1719	85.4312	76.1719	85.4665	76.1719	85.4821	76.1719	85.5098	76.1719	85.5243	76.1719	85.546	76.1719	85.5583	76.1719	85.5751	76.1719	85.5845	76.1719	85.5969	76.1719	85.6032	76.1719	85.6109	76.1719	85.614	76.1719	85.6167
79.1016	85.0281	79.1016	85.0396	79.1016	85.0367	79.1016	85.0705	79.1016	85.0651	79.1016	85.1186	79.1016	85.1117	79.1016	85.1807	79.1016	85.1735	79.1016	85.253	79.1016	85.2469	79.1016	85.3312	79.1016	85.3275	79.1016	85.411	79.1016	85.4107	79.1016	85.4885	79.1016	85.4923	79.1016	85.5604	79.1016	85.5684	79.1016	85.6244	79.1016	85.6362	79.1016	85.6796	79.1016	85.6941	79.1016	85.7258	79.1016	85.7415	79.1016	85.7635	79.1016	85.7789	79.1016	85.7936	79.1016	85.8073	79.1016	85.8169	79.1016	85.8279	79.1016	85.834	79.1016	85.8415	79.1016	85.845	79.1016	85.8488	79.1016	85.8499
82.0313	85.4076	82.0313	85.4244	82.0313	85.4085	82.0313	85.458	82.0313	85.427	82.0313	85.5061	82.0313	85.4618	82.0313	85.5655	82.0313	85.5102	82.0313	85.6323	82.0313	85.5688	82.0313	85.702	82.0313	85.6335	82.0313	85.7704	82.0313	85.6999	82.0313	85.8335	82.0313	85.7637	82.0313	85.8879	82.0313	85.8213	82.0313	85.9316	82.0313	85.87	82.0313	85.9639	82.0313	85.9085	82.0313	85.9851	82.0313	85.9366	82.0313	85.9967	82.0313	85.9557	82.0313	86.001	82.0313	85.9676	82.0313	86.0004	82.0313	85.9748	82.0313	85.9969	82.0313	85.9796	82.0313	85.9923	82.0313	85.9835	82.0313	85.9877
84.9609	85.7333	84.9609	85.7524	84.9609	85.728	84.9609	85.7841	84.9609	85.7363	84.9609	85.8261	84.9609	85.7571	84.9609	85.8754	84.9609	85.7879	84.9609	85.9281	84.9609	85.8256	84.9609	85.9797	84.9609	85.8663	84.9609	86.0261	84.9609	85.9061	84.9609	86.0634	84.9609	85.941	84.9609	86.0886	84.9609	85.9677	84.9609	86.1001	84.9609	85.9843	84.9609	86.0976	84.9609	85.9899	84.9609	86.0826	84.9609	85.9856	84.9609	86.058	84.9609	85.9738	84.9609	86.0278	84.9609	85.958	84.9609	85.9961	84.9609	85.9424	84.9609	85.9673	84.9609	85.9307	84.9609	85.9447	84.9609	85.9262	84.9609	85.9307
87.8906	85.8092	87.8906	85.8199	87.8906	85.8159	87.8906	85.8472	87.8906	85.8397	87.8906	85.889	87.8906	85.8787	87.8906	85.9418	87.8906	85.9297	87.8906	86.0014	87.8906	85.9889	87.8906	86.063	87.8906	86.0516	87.8906	86.122	87.8906	86.113	87.8906	86.1739	87.8906	86.1687	87.8906	86.2156	87.8906	86.2149	87.8906	86.2449	87.8906	86.2492	87.8906	86.2615	87.8906	86.2705	87.8906	86.2667	87.8906	86.2793	87.8906	86.263	87.8906	86.2778	87.8906	86.254	87.8906	86.269	87.8906	86.2431	87.8906	86.2565	87.8906	86.2338	87.8906	86.2438	87.8906	86.2284	87.8906	86.2338	87.8906	86.2283
90.8203	85.7529	90.8203	85.7597	90.8203	85.767	90.8203	85.7866	90.8203	85.8014	90.8203	85.8315	90.8203	85.8542	90.8203	85.891	90.8203	85.9222	90.8203	85.9609	90.8203	86.0012	90.8203	86.0363	90.8203	86.086	90.8203	86.1123	90.8203	86.1715	90.8203	86.1839	90.8203	86.2522	90.8203	86.2474	90.8203	86.3234	90.8203	86.2998	90.8203	86.3817	90.8203	86.3399	90.8203	86.4249	90.8203	86.368	90.8203	86.4525	90.8203	86.3859	90.8203	86.4656	90.8203	86.3963	90.8203	86.467	90.8203	86.4025	90.8203	86.4599	90.8203	86.4077	90.8203	86.4482	90.8203	86.4143	90.8203	86.4352	90.8203	86.4234
93.75	86.1779	93.75	86.1884	93.75	86.1821	93.75	86.2126	93.75	86.2009	93.75	86.2484	93.75	86.2331	93.75	86.2927	93.75	86.2763	93.75	86.3418	93.75	86.3272	93.75	86.3915	93.75	86.3815	93.75	86.4374	93.75	86.4347	93.75	86.4756	93.75	86.4821	93.75	86.5029	93.75	86.5197	93.75	86.5174	93.75	86.5442	93.75	86.5185	93.75	86.5541	93.75	86.5077	93.75	86.5495	93.75	86.488	93.75	86.5324	93.75	86.4637	93.75	86.5064	93.75	86.4397	93.75	86.4765	93.75	86.4208	93.75	86.4478	93.75	86.4109	93.75	86.4252	93.75	86.4123
96.6797	86.4391	96.6797	86.4561	96.6797	86.4348	96.6797	86.4847	96.6797	86.4431	96.6797	86.5229	96.6797	86.4624	96.6797	86.5671	96.6797	86.4903	96.6797	86.6134	96.6797	86.5232	96.6797	86.657	96.6797	86.5568	96.6797	86.693	96.6797	86.5866	96.6797	86.717	96.6797	86.6083	96.6797	86.7255	96.6797	86.6182	96.6797	86.7163	96.6797	86.6139	96.6797	86.6894	96.6797	86.5947	96.6797	86.6467	96.6797	86.5622	96.6797	86.5923	96.6797	86.5198	96.6797	86.5322	96.6797	86.473	96.6797	86.4733	96.6797	86.4284	96.6797	86.4228	96.6797	86.3926	96.6797	86.3867	96.6797	86.3715	96.6797	86.3691
102.539	86.5791	102.539	86.5897	102.539	86.5815	102.539	86.6126	102.539	86.5969	102.539	86.6459	102.539	86.6237	102.539	86.6864	102.539	86.6597	102.539	86.7305	102.539	86.7013	102.539	86.7736	102.539	86.7446	102.539	86.8113	102.539	86.7848	102.539	86.839	102.539	86.8176	102.539	86.8533	102.539	86.8388	102.539	86.8519	102.539	86.8456	102.539	86.8344	102.539	86.8364	102.539	86.8027	102.539	86.8122	102.539	86.7604	102.539	86.7755	102.539	86.7134	102.539	86.7313	102.539	86.6681	102.539	86.6856	102.539	86.6314	102.539	86.6452	102.539	86.6087	102.539	86.6163	102.539	86.6034
105.469	86.636	105.469	86.6416	105.469	86.6421	105.469	86.6582	105.469	86.6597	105.469	86.684	105.469	86.6874	105.469	86.7164	105.469	86.7228	105.469	86.7518	105.469	86.7626	105.469	86.7861	105.469	86.803	105.469	86.8148	105.469	86.8394	105.469	86.834	105.469	86.8673	105.469	86.8401	105.469	86.8828	105.469	86.831	105.469	86.8828	105.469	86.8067	105.469	86.866	105.469	86.769	105.469	86.8331	105.469	86.7219	105.469	86.787	105.469	86.6715	105.469	86.7326	105.469	86.6247	105.469	86.6766	105.469	86.5885	105.469	86.6263	105.469	86.5685	105.469	86.5885	105.469	86.5684
108.398	86.7416	108.398	86.7487	108.398	86.745	108.398	86.7656	108.398	86.7588	108.398	86.7906	108.398	86.7816	108.398	86.821	108.398	86.8114	108.398	86.8534	108.398	86.8448	108.398	86.8838	108.398	86.8783	108.398	86.9077	108.398	86.9073	108.398	86.9213	108.398	86.9276	108.398	86.921	108.398	86.9352	108.398	86.9049	108.398	86.9274	108.398	86.8728	108.398	86.903	108.398	86.8267	108.398	86.8627	108.398	86.771	108.398	86.81	108.398	86.7117	108.398	86.75	108.398	86.6564	108.398	86.6899	108.398	86.6124	108.398	86.6374	108.398	86.5862	108.398	86.5995	108.398	86.5816
111.328	86.8965	111.328	86.9064	111.328	86.8962	111.328	86.9252	111.328	86.9054	111.328	86.9511	111.328	86.9228	111.328	86.9817	111.328	86.9465	111.328	87.0134	111.328	86.9733	111.328	87.0423	111.328	86.9997	111.328	87.0641	111.328	87.0215	111.328	87.0746	111.328	87.0346	111.328	87.0704	111.328	87.0352	111.328	87.0494	111.328	87.0208	111.328	87.0113	111.328	86.9904	111.328	86.9583	111.328	86.945	111.328	86.8947	111.328	86.8882	111.328	86.8268	111.328	86.8256	111.328	86.7626	111.328	86.7645	111.328	86.71	111.328	86.7128	111.328	86.6758	111.328	86.6777	111.328	86.6647
117.188	87.07	117.188	87.0703	117.188	87.0774	117.188	87.0779	117.188	87.0922	117.188	87.0916	117.188	87.1132	117.188	87.1093	117.188	87.1386	117.188	87.1282	117.188	87.1655	117.188	87.1449	117.188	87.1905	117.188	87.1554	117.188	87.2097	117.188	87.156	117.188	87.2191	117.188	87.1436	117.188	87.215	117.188	87.1162	117.188	87.1948	117.188	87.0737	117.188	87.1575	117.188	87.0182	117.188	87.1041	117.188	86.9543	117.188	87.038	117.188	86.8884	117.188	86.9648	117.188	86.8285	117.188	86.8922	117.188	86.7824	117.188	86.8283	117.188	86.757	117.188	86.781	117.188	86.7563
120.117	87.2176	120.117	87.2141	120.117	87.2266	120.117	87.2156	120.117	87.2408	120.117	87.2213	120.117	87.2593	120.117	87.2295	120.117	87.2805	120.117	87.2378	120.117	87.3022	120.117	87.2433	120.117	87.3213	120.117	87.2429	120.117	87.3345	120.117	87.2333	120.117	87.3381	120.117	87.212	120.117	87.3287	120.117	87.1773	120.117	87.3038	120.117	87.1296	120.117	87.2624	120.117	87.0711	120.117	87.2052	120.117	87.0064	120.117	87.1354	120.117	86.9418	120.117	87.0585	120.117	86.8851	120.117	86.9815	120.117	86.8437	120.117	86.9127	120.117	86.8238	120.117	86.8599	120.117	86.8292
125.977	87.241	125.977	87.2389	125.977	87.2468	125.977	87.2396	125.977	87.256	125.977	87.242	125.977	87.268	125.977	87.244	125.977	87.2812	125.977	87.2432	125.977	87.2933	125.977	87.2366	125.977	87.3013	125.977	87.2209	125.977	87.3016	125.977	87.1931	125.977	87.2905	125.977	87.151	125.977	87.2645	125.977	87.0937	125.977	87.2214	125.977	87.022	125.977	87.1601	125.977	86.9394	125.977	87.0821	125.977	86.8513	125.977	86.9912	125.977	86.7656	125.977	86.8938	125.977	86.6912	125.977	86.7982	125.977	86.6369	125.977	86.7141	125.977	86.6099	125.977	86.6504	125.977	86.6144
128.906	87.1632	128.906	87.1649	128.906	87.1652	128.906	87.1696	128.906	87.1709	128.906	87.176	128.906	87.1795	128.906	87.182	128.906	87.1893	128.906	87.1847	128.906	87.1981	128.906	87.1808	128.906	87.2026	128.906	87.1666	128.906	87.1993	128.906	87.1387	128.906	87.1841	128.906	87.0945	128.906	87.1536	128.906	87.0327	128.906	87.1053	128.906	86.9542	128.906	87.0384	128.906	86.8624	128.906	86.9544	128.906	86.7634	128.906	86.8576	128.906	86.6656	128.906	86.7548	128.906	86.5788	128.906	86.6553	128.906	86.513	128.906	86.5691	128.906	86.4764	128.906	86.5061	128.906	86.474
134.766	87.1147	134.766	87.1305	134.766	87.1024	134.766	87.1492	134.766	87.0935	134.766	87.1699	134.766	87.0878	134.766	87.1909	134.766	87.0841	134.766	87.2098	134.766	87.0811	134.766	87.2235	134.766	87.0765	134.766	87.2285	134.766	87.0675	134.766	87.2211	134.766	87.0513	134.766	87.1979	134.766	87.0249	134.766	87.1569	134.766	86.9865	134.766	87.0977	134.766	86.9355	134.766	87.0222	134.766	86.8735	134.766	86.9348	134.766	86.8043	134.766	86.8425	134.766	86.7338	134.766	86.7536	134.766	86.6698	134.766	86.6774	134.766	86.6205	134.766	86.6221	134.766	86.5933	134.766	86.5933
137.695	87.0694	137.695	87.0746	137.695	87.0672	137.695	87.083	137.695	87.0678	137.695	87.0939	137.695	87.0704	137.695	87.1066	137.695	87.074	137.695	87.1192	137.695	87.0771	137.695	87.1291	137.695	87.0775	137.695	87.1333	137.695	87.0729	137.695	87.1281	137.695	87.0603	137.695	87.1105	137.695	87.0373	137.695	87.0781	137.695	87.0022	137.695	87.0301	137.695	86.9545	137.695	86.9679	137.695	86.8959	137.695	86.8952	137.695	86.8298	137.695	86.818	137.695	86.7621	137.695	86.7438	137.695	86.6997	137.695	86.6807	137.695	86.6503	137.695	86.6362	137.695	86.6207	137.695	86.6155
143.555	86.9476	143.555	86.938	143.555	86.9562	143.555	86.9277	143.555	86.9637	143.555	86.9167	143.555	86.9699	143.555	86.9053	143.555	86.9745	143.555	86.8929	143.555	86.9766	143.555	86.8785	143.555	86.9751	143.555	86.8607	143.555	86.9679	143.555	86.8374	143.555	86.9528	143.555	86.8069	143.555	86.9275	143.555	86.7678	143.555	86.8903	143.555	86.7199	143.555	86.8406	143.555	86.6646	143.555	86.7794	143.555	86.6051	143.555	86.7097	143.555	86.5463	143.555	86.6365	143.555	86.4943	143.555	86.566	143.555	86.4553	143.555	86.5052	143.555	86.4348	143.555	86.4604	143.555	86.4362
149.414	87.0287	149.414	87.018	149.414	87.0321	149.414	87	149.414	87.0282	149.414	86.9752	149.414	87.0174	149.414	86.9436	149.414	87.0001	149.414	86.9055	149.414	86.9762	149.414	86.8608	149.414	86.9454	149.414	86.8089	149.414	86.907	149.414	86.7491	149.414	86.8598	149.414	86.6812	149.414	86.8027	149.414	86.6053	149.414	86.735	149.414	86.5229	149.414	86.6568	149.414	86.4368	149.414	86.5699	149.414	86.3516	149.414	86.4778	149.414	86.273	149.414	86.3855	149.414	86.2073	149.414	86.2992	149.414	86.1606	149.414	86.2258	149.414	86.1377	149.414	86.1716	149.414	86.1414
155.273	87.0827	155.273	87.0758	155.273	87.0807	155.273	87.0598	155.273	87.0699	155.273	87.0346	155.273	87.0505	155.273	87.0001	155.273	87.0226	155.273	86.9558	155.273	86.9862	155.273	86.9011	155.273	86.9407	155.273	86.835	155.273	86.885	155.273	86.7566	155.273	86.8181	155.273	86.6654	155.273	86.7388	155.273	86.5622	155.273	86.6465	155.273	86.4491	155.273	86.5421	155.273	86.3303	155.273	86.4282	155.273	86.2119	155.273	86.3093	155.273	86.1016	155.273	86.1919	155.273	86.008	155.273	86.084	155.273	85.9391	155.273	85.9942	155.273	85.9013	155.273	85.9303	155.273	85.8983
158.203	87.0781	158.203	87.0756	158.203	87.072	158.203	87.0645	158.203	87.0576	158.203	87.0447	158.203	87.0351	158.203	87.0163	158.203	87.0048	158.203	86.9787	158.203	86.9666	158.203	86.9311	158.203	86.92	158.203	86.8726	158.203	86.8644	158.203	86.8019	158.203	86.7985	158.203	86.7183	158.203	86.7215	158.203	86.6219	158.203	86.6328	158.203	86.5146	158.203	86.5333	158.203	86.4001	158.203	86.4256	158.203	86.284	158.203	86.3141	158.203	86.1738	158.203	86.2052	158.203	86.078	158.203	86.1066	158.203	86.0046	158.203	86.0264	158.203	85.9604	158.203	85.9722	158.203	85.9493
164.063	87.0164	164.063	87.0113	164.063	87.0122	164.063	86.9973	164.063	86.9987	164.063	86.9749	164.063	86.9761	164.063	86.9444	164.063	86.9449	164.063	86.9061	164.063	86.9052	164.063	86.8599	164.063	86.8571	164.063	86.805	164.063	86.8002	164.063	86.7407	164.063	86.734	164.063	86.6663	164.063	86.6583	164.063	86.5818	164.063	86.5731	164.063	86.4885	164.063	86.4799	164.063	86.3893	164.063	86.3813	164.063	86.2887	164.063	86.2819	164.063	86.1927	164.063	86.1873	164.063	86.1081	164.063	86.1041	164.063	86.0417	164.063	86.0391	164.063	85.999	164.063	85.9978	164.063	85.984
169.922	86.8233	169.922	86.8058	169.922	86.8299	169.922	86.7781	169.922	86.8254	169.922	86.7415	169.922	86.8099	169.922	86.6973	169.922	86.7839	169.922	86.647	169.922	86.7479	169.922	86.5912	169.922	86.7022	169.922	86.5304	169.922	86.6468	169.922	86.4644	169.922	86.5814	169.922	86.3928	169.922	86.5061	169.922	86.3157	169.922	86.4212	169.922	86.2337	169.922	86.3284	169.922	86.149	169.922	86.2306	169.922	86.065	169.922	86.1322	169.922	85.9863	169.922	86.0388	169.922	85.9184	169.922	85.9565	169.922	85.8666	169.922	85.8912	169.922	85.8357	169.922	85.8477	169.922	85.8289
175.781	86.6683	175.781	86.6516	175.781	86.6706	175.781	86.6203	175.781	86.6594	175.781	86.5751	175.781	86.6362	175.781	86.5173	175.781	86.6029	175.781	86.4487	175.781	86.5612	175.781	86.3711	175.781	86.5125	175.781	86.2868	175.781	86.4573	175.781	86.1975	175.781	86.3955	175.781	86.1055	175.781	86.3267	175.781	86.0132	175.781	86.2508	175.781	85.9234	175.781	86.1679	175.781	85.8395	175.781	86.0798	175.781	85.7654	175.781	85.9892	175.781	85.7047	175.781	85.9002	175.781	85.6608	175.781	85.8173	175.781	85.6362	175.781	85.7454	175.781	85.6327	175.781	85.6887	175.781	85.6504
181.641	86.6395	181.641	86.6401	181.641	86.6201	181.641	86.6215	181.641	86.583	181.641	86.5841	181.641	86.5303	181.641	86.5289	181.641	86.4645	181.641	86.4575	181.641	86.3884	181.641	86.3715	181.641	86.3048	181.641	86.2729	181.641	86.2158	181.641	86.1641	181.641	86.1231	181.641	86.0477	181.641	86.028	181.641	85.9275	181.641	85.9317	181.641	85.8078	181.641	85.8355	181.641	85.6938	181.641	85.7412	181.641	85.591	181.641	85.6514	181.641	85.5043	181.641	85.5688	181.641	85.4376	181.641	85.4969	181.641	85.3935	181.641	85.4386	181.641	85.3725	181.641	85.3968	181.641	85.3741
190.43	86.6245	190.43	86.6265	190.43	86.6016	190.43	86.6088	190.43	86.5573	190.43	86.5731	190.43	86.4919	190.43	86.5214	190.43	86.4067	190.43	86.4553	190.43	86.3038	190.43	86.3758	190.43	86.1861	190.43	86.2838	190.43	86.0566	190.43	86.1799	190.43	85.9191	190.43	86.0651	190.43	85.7778	190.43	85.941	190.43	85.6376	190.43	85.8105	190.43	85.5037	190.43	85.678	190.43	85.3816	190.43	85.5486	190.43	85.2768	190.43	85.428	190.43	85.1937	190.43	85.3212	190.43	85.1356	190.43	85.2323	190.43	85.1039	190.43	85.1644	190.43	85.0988	190.43	85.1194
196.289	86.5073	196.289	86.4815	196.289	86.5107	196.289	86.4358	196.289	86.4909	196.289	86.3734	196.289	86.4477	196.289	86.2979	196.289	86.3825	196.289	86.2131	196.289	86.2973	196.289	86.1222	196.289	86.1948	196.289	86.0278	196.289	86.078	196.289	85.9315	196.289	85.9508	196.289	85.8345	196.289	85.8172	196.289	85.7377	196.289	85.6823	196.289	85.6422	196.289	85.5518	196.289	85.5496	196.289	85.432	196.289	85.4619	196.289	85.329	196.289	85.3811	196.289	85.2477	196.289	85.3094	196.289	85.1913	196.289	85.2487	196.289	85.1605	196.289	85.2009	196.289	85.1538	196.289	85.1683
202.148	86.4717	202.148	86.4306	202.148	86.4841	202.148	86.3627	202.148	86.4669	202.148	86.2714	202.148	86.4211	202.148	86.1614	202.148	86.3483	202.148	86.0379	202.148	86.2515	202.148	85.9064	202.148	86.134	202.148	85.7723	202.148	86	202.148	85.6406	202.148	85.8538	202.148	85.5152	202.148	85.7008	202.148	85.3997	202.148	85.547	202.148	85.2963	202.148	85.399	202.148	85.2066	202.148	85.264	202.148	85.131	202.148	85.1484	202.148	85.0692	202.148	85.057	202.148	85.0199	202.148	84.9922	202.148	84.9818	202.148	84.9532	202.148	84.9544	202.148	84.9368	202.148	84.9385
210.938	86.3923	210.938	86.3612	210.938	86.3939	210.938	86.3005	210.938	86.3669	210.938	86.2114	210.938	86.3132	210.938	86.096	210.938	86.2353	210.938	85.9573	210.938	86.1357	210.938	85.7996	210.938	86.0174	210.938	85.6279	210.938	85.883	210.938	85.4485	210.938	85.7356	210.938	85.2689	210.938	85.5786	210.938	85.0971	210.938	85.4164	210.938	84.9416	210.938	85.2546	210.938	84.8094	210.938	85.0995	210.938	84.7053	210.938	84.9582	210.938	84.631	210.938	84.8362	210.938	84.5847	210.938	84.7374	210.938	84.5627	210.938	84.6624	210.938	84.5607	210.938	84.6097	210.938	84.5765
216.797	86.1866	216.797	86.1654	216.797	86.1762	216.797	86.1128	216.797	86.1354	216.797	86.0307	216.797	86.067	216.797	85.9224	216.797	85.9749	216.797	85.7921	216.797	85.8639	216.797	85.6447	216.797	85.739	216.797	85.486	216.797	85.605	216.797	85.3223	216.797	85.4667	216.797	85.1608	216.797	85.3283	216.797	85.0086	216.797	85.1938	216.797	84.8733	216.797	85.0673	216.797	84.7609	216.797	84.9524	216.797	84.6754	216.797	84.8525	216.797	84.6176	216.797	84.7696	216.797	84.585	216.797	84.7039	216.797	84.5732	216.797	84.6541	216.797	84.5769	216.797	84.6176	216.797	84.5922
225.586	86.3482	225.586	86.3296	225.586	86.3224	225.586	86.267	225.586	86.2527	225.586	86.1626	225.586	86.1415	225.586	86.0198	225.586	85.9928	225.586	85.8436	225.586	85.8121	225.586	85.6404	225.586	85.6072	225.586	85.4191	225.586	85.3877	225.586	85.1903	225.586	85.1652	225.586	84.967	225.586	84.9527	225.586	84.7633	225.586	84.7636	225.586	84.5927	225.586	84.6092	225.586	84.4656	225.586	84.497	225.586	84.3862	225.586	84.4282	225.586	84.3511	225.586	84.3971	225.586	84.3498	225.586	84.3925	225.586	84.3676	225.586	84.4002	225.586	84.3895	225.586	84.4071	225.586	84.4044
234.375	86.2649	234.375	86.2284	234.375	86.2652	234.375	86.1591	234.375	86.2268	234.375	86.0606	234.375	86.1482	234.375	85.937	234.375	86.0288	234.375	85.7918	234.375	85.8694	234.375	85.6285	234.375	85.6722	234.375	85.4501	234.375	85.4416	234.375	85.2603	234.375	85.1852	234.375	85.0637	234.375	84.9141	234.375	84.867	234.375	84.6438	234.375	84.6786	234.375	84.3932	234.375	84.5075	234.375	84.1819	234.375	84.3618	234.375	84.0253	234.375	84.2454	234.375	83.9306	234.375	84.1566	234.375	83.8935	234.375	84.0887	234.375	83.9007	234.375	84.0326	234.375	83.935	234.375	83.9815
240.234	86.0964	240.234	86.0196	240.234	86.1301	240.234	85.903	240.234	86.1193	240.234	85.7515	240.234	86.0635	240.234	85.5715	240.234	85.9633	240.234	85.371	240.234	85.8203	240.234	85.1589	240.234	85.637	240.234	84.9445	240.234	85.4176	240.234	84.7372	240.234	85.1685	240.234	84.5456	240.234	84.8996	240.234	84.3771	240.234	84.625	240.234	84.2372	240.234	84.3631	240.234	84.1284	240.234	84.1339	240.234	84.0493	240.234	83.9555	240.234	83.9944	240.234	83.8388	240.234	83.955	240.234	83.7835	240.234	83.9212	240.234	83.778	240.234	83.8852	240.234	83.8045	240.234	83.8446
249.023	86.0675	249.023	85.9835	249.023	86.1073	249.023	85.8566	249.023	86.1022	249.023	85.6888	249.023	86.0519	249.023	85.4836	249.023	85.9559	249.023	85.2459	249.023	85.8137	249.023	84.9821	249.023	85.6246	249.023	84.7005	249.023	85.3889	249.023	84.4113	249.023	85.1093	249.023	84.1268	249.023	84.7921	249.023	83.8606	249.023	84.4495	249.023	83.6261	249.023	84.1002	249.023	83.434	249.023	83.7691	249.023	83.2892	249.023	83.4828	249.023	83.1894	249.023	83.2629	249.023	83.125	249.023	83.1189	249.023	83.0833	249.023	83.0447	249.023	83.0532	249.023	83.0224	249.023	83.0307
257.813	85.9929	257.813	85.9225	257.813	86.0207	257.813	85.8078	257.813	86.0095	257.813	85.6486	257.813	85.9631	257.813	85.4474	257.813	85.8855	257.813	85.209	257.813	85.7795	257.813	84.9414	257.813	85.6463	257.813	84.6559	257.813	85.4856	257.813	84.3672	257.813	85.2965	257.813	84.0928	257.813	85.0791	257.813	83.851	257.813	84.8365	257.813	83.6572	257.813	84.5767	257.813	83.5203	257.813	84.313	257.813	83.4394	257.813	84.0633	257.813	83.4043	257.813	83.8465	257.813	83.3993	257.813	83.677	257.813	83.4094	257.813	83.5597	257.813	83.4256	257.813	83.4882	257.813	83.4485
266.602	85.6261	266.602	85.5803	266.602	85.6222	266.602	85.4829	266.602	85.5721	266.602	85.3334	266.602	85.4804	266.602	85.1325	266.602	85.3528	266.602	84.8827	266.602	85.1954	266.602	84.5886	266.602	85.0139	266.602	84.2586	266.602	84.8134	266.602	83.9062	266.602	84.5981	266.602	83.5512	266.602	84.372	266.602	83.2197	266.602	84.1399	266.602	82.9407	266.602	83.9085	266.602	82.739	266.602	83.6867	266.602	82.6271	266.602	83.4845	266.602	82.5995	266.602	83.3105	266.602	82.6354	266.602	83.1686	266.602	82.7077	266.602	83.056	266.602	82.793	266.602	82.9633	266.602	82.8784
278.32	85.4566	278.32	85.4515	278.32	85.4117	278.32	85.3949	278.32	85.3212	278.32	85.2873	278.32	85.1922	278.32	85.1309	278.32	85.0337	278.32	84.929	278.32	84.856	278.32	84.6861	278.32	84.669	278.32	84.408	278.32	84.4812	278.32	84.1032	278.32	84.2987	278.32	83.7848	278.32	84.1252	278.32	83.4717	278.32	83.9628	278.32	83.1883	278.32	83.8127	278.32	82.9613	278.32	83.6763	278.32	82.8128	278.32	83.5545	278.32	82.7513	278.32	83.4466	278.32	82.7685	278.32	83.3492	278.32	82.8422	278.32	83.2561	278.32	82.9454	278.32	83.1598	278.32	83.0555
287.109	85.5265	287.109	85.5125	287.109	85.4784	287.109	85.4373	287.109	85.369	287.109	85.3036	287.109	85.2022	287.109	85.1153	287.109	84.985	287.109	84.8776	287.109	84.7286	287.109	84.5974	287.109	84.4479	287.109	84.2846	287.109	84.1612	287.109	83.9524	287.109	83.8876	287.109	83.6188	287.109	83.645	287.109	83.306	287.109	83.4459	287.109	83.0381	287.109	83.2958	287.109	82.8367	287.109	83.1923	287.109	82.7143	287.109	83.1264	287.109	82.6704	287.109	83.0849	287.109	82.6907	287.109	83.0534	287.109	82.7525	287.109	83.0191	287.109	82.8316	287.109	82.9722	287.109	82.9087
295.898	85.6073	295.898	85.6003	295.898	85.5603	295.898	85.5409	295.898	85.4574	295.898	85.4306	295.898	85.2967	295.898	85.2706	295.898	85.0771	295.898	85.0619	295.898	84.7986	295.898	84.8063	295.898	84.4644	295.898	84.5071	295.898	84.0824	295.898	84.1715	295.898	83.6684	295.898	83.8121	295.898	83.2472	295.898	83.4494	295.898	82.8533	295.898	83.1108	295.898	82.5257	295.898	82.8267	295.898	82.298	295.898	82.6214	295.898	82.1851	295.898	82.5033	295.898	82.1759	295.898	82.4592	295.898	82.2373	295.898	82.4594	295.898	82.3268	295.898	82.4679	295.898	82.4071	295.898	82.4555
307.617	85.3723	307.617	85.2884	307.617	85.3941	307.617	85.1459	307.617	85.3543	307.617	84.9519	307.617	85.2567	307.617	84.7166	307.617	85.1075	307.617	84.4521	307.617	84.9137	307.617	84.1706	307.617	84.6825	307.617	83.884	307.617	84.4204	307.617	83.6028	307.617	84.1342	307.617	83.3376	307.617	83.8325	307.617	83.0991	307.617	83.5275	307.617	82.8986	307.617	83.2367	307.617	82.7462	307.617	82.9817	307.617	82.6478	307.617	82.7834	307.617	82.6008	307.617	82.6548	307.617	82.593	307.617	82.5942	307.617	82.6048	307.617	82.5843	307.617	82.6164	307.617	82.5992	307.617	82.6146
319.336	85.3409	319.336	85.2623	319.336	85.3444	319.336	85.1104	319.336	85.2751	319.336	84.8907	319.336	85.1392	319.336	84.612	319.336	84.9464	319.336	84.2858	319.336	84.709	319.336	83.9259	319.336	84.441	319.336	83.5476	319.336	84.1564	319.336	83.1681	319.336	83.8678	319.336	82.8062	319.336	83.5861	319.336	82.482	319.336	83.32	319.336	82.2159	319.336	83.0773	319.336	82.025	319.336	82.8643	319.336	81.9182	319.336	82.686	319.336	81.892	319.336	82.544	319.336	81.9296	319.336	82.4343	319.336	82.0066	319.336	82.3471	319.336	82.0984	319.336	82.269	319.336	82.1878
331.055	85.4026	331.055	85.3138	331.055	85.4076	331.055	85.1422	331.055	85.332	331.055	84.8926	331.055	85.1828	331.055	84.5744	331.055	84.9708	331.055	84.2019	331.055	84.7102	331.055	83.7956	331.055	84.4178	331.055	83.3823	331.055	84.1125	331.055	82.995	331.055	83.8136	331.055	82.6691	331.055	83.5393	331.055	82.4355	331.055	83.3048	331.055	82.3111	331.055	83.1208	331.055	82.2931	331.055	82.9917	331.055	82.359	331.055	82.9152	331.055	82.4755	331.055	82.8826	331.055	82.6077	331.055	82.8795	331.055	82.7275	331.055	82.8884	331.055	82.8174	331.055	82.8908	331.055	82.8707
342.773	85.5187	342.773	85.4949	342.773	85.4419	342.773	85.373	342.773	85.2626	342.773	85.1563	342.773	84.981	342.773	84.8493	342.773	84.6003	342.773	84.4594	342.773	84.13	342.773	83.9995	342.773	83.5899	342.773	83.4923	342.773	83.0152	342.773	82.9743	342.773	82.4614	342.773	82.4989	342.773	82.0024	342.773	82.1316	342.773	81.7146	342.773	81.9324	342.773	81.6455	342.773	81.9288	342.773	81.7871	342.773	82.0988	342.773	82.078	342.773	82.3791	342.773	82.4333	342.773	82.6928	342.773	82.775	342.773	82.972	342.773	83.0458	342.773	83.1681	342.773	83.2104	342.773	83.2517
354.492	85.642	354.492	85.5756	354.492	85.6274	354.492	85.4312	354.492	85.5276	354.492	85.2106	354.492	85.338	354.492	84.9139	354.492	85.0542	354.492	84.5407	354.492	84.6727	354.492	84.0915	354.492	84.1934	354.492	83.5714	354.492	83.6218	354.492	82.9965	354.492	82.975	354.492	82.4013	354.492	82.2898	354.492	81.8463	354.492	81.6316	354.492	81.4142	354.492	81.0959	354.492	81.1832	354.492	80.7835	354.492	81.183	354.492	80.7479	354.492	81.3677	354.492	80.9536	354.492	81.6392	354.492	81.294	354.492	81.8927	354.492	81.6484	354.492	82.0491	354.492	81.9232	354.492	82.0634
366.211	85.734	366.211	85.6116	366.211	85.7837	366.211	85.4142	366.211	85.7619	366.211	85.1385	366.211	85.6677	366.211	84.7811	366.211	85.498	366.211	84.3394	366.211	85.2475	366.211	83.8133	366.211	84.909	366.211	83.2081	366.211	84.4755	366.211	82.5408	366.211	83.9434	366.211	81.8474	366.211	83.3174	366.211	81.1917	366.211	82.6193	366.211	80.6628	366.211	81.8988	366.211	80.3478	366.211	81.2406	366.211	80.283	366.211	80.7513	366.211	80.4216	366.211	80.5118	366.211	80.658	366.211	80.5194	366.211	80.8807	366.211	80.6831	366.211	81.0091	366.211	80.8789	366.211	81.006
377.93	85.692	377.93	85.6515	377.93	85.6602	377.93	85.5374	377.93	85.5593	377.93	85.3487	377.93	85.3936	377.93	85.0838	377.93	85.1687	377.93	84.74	377.93	84.8897	377.93	84.3129	377.93	84.5608	377.93	83.7987	377.93	84.1855	377.93	83.1989	377.93	83.7682	377.93	82.5276	377.93	83.3172	377.93	81.8238	377.93	82.8496	377.93	81.162	377.93	82.3944	377.93	80.6488	377.93	81.9921	377.93	80.3835	377.93	81.6855	377.93	80.3928	377.93	81.5002	377.93	80.6043	377.93	81.4263	377.93	80.8944	377.93	81.4163	377.93	81.1552	377.93	81.4036	377.93	81.3276
392.578	84.8474	392.578	84.7962	392.578	84.8226	392.578	84.6718	392.578	84.7231	392.578	84.4803	392.578	84.5538	392.578	84.2294	392.578	84.3214	392.578	83.9266	392.578	84.0331	392.578	83.5766	392.578	83.695	392.578	83.1812	392.578	83.3126	392.578	82.7412	392.578	82.8921	392.578	82.2612	392.578	82.4443	392.578	81.757	392.578	81.9888	392.578	81.2634	392.578	81.5577	392.578	80.836	392.578	81.1932	392.578	80.5379	392.578	80.9361	392.578	80.4096	392.578	80.8051	392.578	80.4398	392.578	80.7815	392.578	80.5666	392.578	80.8134	392.578	80.7102	392.578	80.8385	392.578	80.8091
407.227	84.9212	407.227	84.8541	407.227	84.8708	407.227	84.6753	407.227	84.7034	407.227	84.3957	407.227	84.4267	407.227	84.0307	407.227	84.0552	407.227	83.5985	407.227	83.6107	407.227	83.1187	407.227	83.1204	407.227	82.6112	407.227	82.6146	407.227	82.0963	407.227	82.1246	407.227	81.5967	407.227	81.6793	407.227	81.1404	407.227	81.3044	407.227	80.7635	407.227	81.0219	407.227	80.5068	407.227	80.848	407.227	80.4011	407.227	80.7873	407.227	80.4471	407.227	80.8254	407.227	80.6054	407.227	80.9258	407.227	80.8088	407.227	81.0365	407.227	80.9877	407.227	81.1048	407.227	81.0927
421.875	85.6789	421.875	85.5488	421.875	85.6987	421.875	85.3147	421.875	85.6052	421.875	84.9857	421.875	85.3981	421.875	84.5742	421.875	85.0799	421.875	84.0957	421.875	84.6567	421.875	83.5683	421.875	84.1391	421.875	83.0122	421.875	83.544	421.875	82.4495	421.875	82.8975	421.875	81.9043	421.875	82.2374	421.875	81.4042	421.875	81.6133	421.875	80.9792	421.875	81.0821	421.875	80.6587	421.875	80.6933	421.875	80.4617	421.875	80.4697	421.875	80.386	421.875	80.3958	421.875	80.4044	421.875	80.424	421.875	80.4715	421.875	80.4943	421.875	80.5396	421.875	80.5546	421.875	80.5725
436.523	86.0514	436.523	85.9481	436.523	86.0243	436.523	85.7104	436.523	85.8707	436.523	85.3356	436.523	85.5946	436.523	84.8241	436.523	85.2005	436.523	84.183	436.523	84.6953	436.523	83.4328	436.523	84.0909	436.523	82.6172	436.523	83.4097	436.523	81.8158	436.523	82.6916	436.523	81.1481	436.523	82.0014	436.523	80.744	436.523	81.4295	436.523	80.6742	436.523	81.0707	436.523	80.8966	436.523	80.9787	436.523	81.2874	436.523	81.1307	436.523	81.716	436.523	81.4393	436.523	82.0898	436.523	81.8001	436.523	82.3572	436.523	82.1291	436.523	82.4957	436.523	82.3721	436.523	82.4992
451.172	86.6782	451.172	86.6322	451.172	86.6265	451.172	86.4857	451.172	86.4776	451.172	86.2331	451.172	86.2307	451.172	85.8652	451.172	85.8836	451.172	85.3698	451.172	85.4336	451.172	84.7326	451.172	84.8785	451.172	83.9414	451.172	84.2197	451.172	82.9951	451.172	83.4677	451.172	81.9251	451.172	82.6525	451.172	80.8332	451.172	81.8398	451.172	79.9335	451.172	81.1423	451.172	79.5058	451.172	80.7013	451.172	79.6731	451.172	80.6117	451.172	80.2549	451.172	80.8419	451.172	80.9495	451.172	81.2474	451.172	81.5392	451.172	81.6614	451.172	81.9192	451.172	81.9568	451.172	82.0559
465.82	86.6361	465.82	86.5454	465.82	86.6267	465.82	86.3587	465.82	86.5125	465.82	86.0781	465.82	86.2888	465.82	85.7036	465.82	85.9511	465.82	85.2322	465.82	85.4962	465.82	84.6599	465.82	84.9233	465.82	83.9846	465.82	84.2367	465.82	83.215	465.82	83.4532	465.82	82.385	465.82	82.6127	465.82	81.5754	465.82	81.7956	465.82	80.9269	465.82	81.131	465.82	80.603	465.82	80.7652	465.82	80.6786	465.82	80.7721	465.82	81.0635	465.82	81.0858	465.82	81.5692	465.82	81.5441	465.82	82.0249	465.82	81.9853	465.82	82.3243	465.82	82.2972	465.82	82.4181
483.398	86.394	483.398	86.3521	483.398	86.3385	483.398	86.2071	483.398	86.1892	483.398	85.9527	483.398	85.9462	483.398	85.5821	483.398	85.6054	483.398	85.0892	483.398	85.1584	483.398	84.4681	483.398	84.5942	483.398	83.7147	483.398	83.9029	483.398	82.831	483.398	83.0834	483.398	81.8371	483.398	82.1572	483.398	80.7969	483.398	81.1946	483.398	79.8555	483.398	80.3447	483.398	79.2457	483.398	79.8239	483.398	79.1664	483.398	79.7864	483.398	79.5848	483.398	80.167	483.398	80.2518	483.398	80.7286	483.398	80.9067	483.398	81.2393	483.398	81.3855	483.398	81.5554	483.398	81.6098
500.977	86.1989	500.977	86.1135	500.977	86.2164	500.977	85.9602	500.977	86.1597	500.977	85.731	500.977	86.018	500.977	85.41	500.977	85.7771	500.977	84.9745	500.977	85.4199	500.977	84.3988	500.977	84.9279	500.977	83.6602	500.977	84.2817	500.977	82.7516	500.977	83.4671	500.977	81.7063	500.977	82.4864	500.977	80.6452	500.977	81.3867	500.977	79.8208	500.977	80.309	500.977	79.5331	500.977	79.5221	500.977	79.8511	500.977	79.3084	500.977	80.5182	500.977	79.6886	500.977	81.213	500.977	80.3889	500.977	81.7349	500.977	81.1079	500.977	81.9962	500.977	81.6632	500.977	81.9705
518.555	85.7176	518.555	85.6527	518.555	85.6863	518.555	85.4907	518.555	85.5667	518.555	85.2362	518.555	85.3709	518.555	84.8952	518.555	85.109	518.555	84.4685	518.555	84.7826	518.555	83.9477	518.555	84.3808	518.555	83.3146	518.555	83.8815	518.555	82.5473	518.555	83.257	518.555	81.6363	518.555	82.4853	518.555	80.6208	518.555	81.5709	518.555	79.6505	518.555	80.5856	518.555	79.0288	518.555	79.7258	518.555	79.0532	518.555	79.3047	518.555	79.6751	518.555	79.517	518.555	80.529	518.555	80.1913	518.555	81.2755	518.555	80.963	518.555	81.7321	518.555	81.5546	518.555	81.8275
536.133	85.9641	536.133	85.9143	536.133	85.913	536.133	85.7651	536.133	85.7585	536.133	85.5163	536.133	85.4959	536.133	85.1637	536.133	85.1171	536.133	84.6961	536.133	84.6095	536.133	84.0924	536.133	83.9565	536.133	83.3211	536.133	83.1397	536.133	82.3434	536.133	82.1458	536.133	81.1272	536.133	80.9824	536.133	79.687	536.133	79.7189	536.133	78.1978	536.133	78.5619	536.133	77.1719	536.133	77.8942	536.133	77.2338	536.133	78.0266	536.133	78.2457	536.133	78.8062	536.133	79.4946	536.133	79.7897	536.133	80.5165	536.133	80.6397	536.133	81.1527	536.133	81.1914	536.133	81.3736
553.711	85.778	553.711	85.7184	553.711	85.7618	553.711	85.58	553.711	85.6754	553.711	85.3608	553.711	85.5255	553.711	85.0543	553.711	85.313	553.711	84.645	553.711	85.026	553.711	84.1064	553.711	84.6354	553.711	83.4021	553.711	84.096	553.711	82.4903	553.711	83.3507	553.711	81.3359	553.711	82.3369	553.711	79.9425	553.711	80.9982	553.711	78.4379	553.711	79.3267	553.711	77.2217	553.711	77.5079	553.711	76.8816	553.711	76.2125	553.711	77.497	553.711	76.2905	553.711	78.4908	553.711	77.42	553.711	79.3526	553.711	78.6527	553.711	79.8576	553.711	79.5243	553.711	79.9257
574.219	85.5631	574.219	85.4833	574.219	85.5586	574.219	85.3348	574.219	85.4636	574.219	85.1356	574.219	85.2809	574.219	84.894	574.219	85.0157	574.219	84.5965	574.219	84.6676	574.219	84.2043	574.219	84.2238	574.219	83.6574	574.219	83.6584	574.219	82.8832	574.219	82.9366	574.219	81.807	574.219	82.026	574.219	80.3736	574.219	80.918	574.219	78.6302	574.219	79.6785	574.219	76.9808	574.219	78.5376	574.219	76.4018	574.219	77.9224	574.219	77.2977	574.219	78.1314	574.219	78.723	574.219	78.9273	574.219	79.897	574.219	79.8244	574.219	80.5865	574.219	80.4919	574.219	80.7715
594.727	85.096	594.727	84.9795	594.727	85.0944	594.727	84.7572	594.727	84.9864	594.727	84.4594	594.727	84.8019	594.727	84.1167	594.727	84.5715	594.727	83.7381	594.727	84.3027	594.727	83.2971	594.727	83.9657	594.727	82.7345	594.727	83.4956	594.727	81.9773	594.727	82.8061	594.727	80.9694	594.727	81.8064	594.727	79.7298	594.727	80.4234	594.727	78.4764	594.727	78.6821	594.727	77.7432	594.727	76.9774	594.727	78.0017	594.727	76.3675	594.727	78.9749	594.727	77.3456	594.727	80.048	594.727	78.8883	594.727	80.8709	594.727	80.1804	594.727	81.3275	594.727	81.012	594.727	81.3832
615.234	84.7025	615.234	84.6044	615.234	84.7271	615.234	84.4595	615.234	84.6803	615.234	84.3022	615.234	84.5873	615.234	84.1399	615.234	84.4692	615.234	83.9263	615.234	84.3107	615.234	83.5649	615.234	84.0481	615.234	82.928	615.234	83.5799	615.234	81.8683	615.234	82.7848	615.234	80.2133	615.234	81.5299	615.234	77.7724	615.234	79.6819	615.234	74.6454	615.234	77.2285	615.234	73.0557	615.234	74.9785	615.234	75.259	615.234	75.1761	615.234	77.9651	615.234	77.3114	615.234	79.8569	615.234	79.2985	615.234	81.0093	615.234	80.6479	615.234	81.5958	615.234	81.4226	615.234	81.7237
638.672	85.6453	638.672	85.3868	638.672	85.6297	638.672	84.9457	638.672	85.3679	638.672	84.526	638.672	85.0029	638.672	84.3564	638.672	84.7532	638.672	84.497	638.672	84.7698	638.672	84.7595	638.672	84.9825	638.672	84.8565	638.672	85.1472	638.672	84.5356	638.672	85.0024	638.672	83.57	638.672	84.3247	638.672	81.6631	638.672	82.8782	638.672	78.2507	638.672	80.305	638.672	72.3843	638.672	76.0527	638.672	72.3728	638.672	72.5468	638.672	78.2342	638.672	76.8225	638.672	81.6706	638.672	80.7289	638.672	83.6235	638.672	83.0669	638.672	84.614	638.672	84.3532	638.672	84.8424
659.18	87.6194	659.18	87.323	659.18	87.5271	659.18	86.6659	659.18	87.0713	659.18	85.7683	659.18	86.3498	659.18	84.925	659.18	85.5976	659.18	84.556	659.18	85.1826	659.18	84.7928	659.18	85.3184	659.18	85.2544	659.18	85.7697	659.18	85.4467	659.18	86.0893	659.18	85.0169	659.18	85.9219	659.18	83.6572	659.18	84.9975	659.18	80.8587	659.18	82.975	659.18	75.2073	659.18	79.1271	659.18	67.974	659.18	71.7396	659.18	77.2117	659.18	73.9378	659.18	81.7746	659.18	80.119	659.18	84.129	659.18	83.2685	659.18	85.2652	659.18	84.8874	659.18	85.5003
682.617	88.5795	682.617	88.296	682.617	88.4864	682.617	87.6473	682.617	88.009	682.617	86.6816	682.617	87.1556	682.617	85.5759	682.617	86.0179	682.617	84.7398	682.617	84.9079	682.617	84.5986	682.617	84.3799	682.617	85.0209	682.617	84.666	682.617	85.4297	682.617	85.2635	682.617	85.3387	682.617	85.5452	682.617	84.4104	682.617	85.116	682.617	82.2324	682.617	83.647	682.617	77.8274	682.617	80.5524	682.617	68.37	682.617	74.0867	682.617	75.0806	682.617	70.4515	682.617	80.9514	682.617	78.8255	682.617	83.8161	682.617	82.7547	682.617	85.17	682.617	84.7069	682.617	85.443
706.055	88.9769	706.055	88.71	706.055	88.898	706.055	88.0593	706.055	88.4687	706.055	86.9714	706.055	87.6469	706.055	85.4629	706.055	86.3981	706.055	83.8658	706.055	84.838	706.055	83.1029	706.055	83.5351	706.055	83.6889	706.055	83.3707	706.055	84.6878	706.055	84.1575	706.055	85.1579	706.055	84.8537	706.055	84.6531	706.055	84.8014	706.055	82.769	706.055	83.6217	706.055	78.4952	706.055	80.7197	706.055	65.6564	706.055	73.9591	706.055	74.1743	706.055	65.7501	706.055	80.9352	706.055	78.2444	706.055	83.894	706.055	82.5634	706.055	85.2143	706.055	84.6288	706.055	85.4289
732.422	88.4398	732.422	88.3146	732.422	88.3469	732.422	87.9097	732.422	88.0155	732.422	87.1099	732.422	87.3488	732.422	85.8061	732.422	86.2149	732.422	84.0427	732.422	84.5422	732.422	82.4377	732.422	82.6293	732.422	82.2637	732.422	81.7115	732.422	83.3638	732.422	82.5995	732.422	84.3216	732.422	83.9229	732.422	84.3786	732.422	84.5529	732.422	83.1491	732.422	84.0831	732.422	79.9575	732.422	82.1245	732.422	72.0634	732.422	77.5559	732.422	69.6871	732.422	62.2066	732.422	79.1362	732.422	74.7878	732.422	82.7986	732.422	80.9214	732.422	84.3833	732.422	83.5924	732.422	84.6161
758.789	88.3323	758.789	88.268	758.789	88.2742	758.789	87.9975	758.789	88.0813	758.789	87.3723	758.789	87.6438	758.789	86.2166	758.789	86.7856	758.789	84.3851	758.789	85.312	758.789	82.0569	758.789	83.1293	758.789	80.7327	758.789	80.8364	758.789	81.8944	758.789	80.5771	758.789	83.6073	758.789	82.2972	758.789	84.4196	758.789	83.7103	758.789	83.9494	758.789	83.9954	758.789	81.7956	758.789	82.8566	758.789	76.6042	758.789	79.6498	758.789	62.639	758.789	71.5573	758.789	76.6651	758.789	70.0612	758.789	81.6177	758.789	79.0391	758.789	83.5983	758.789	82.5137	758.789	83.8427
785.156	87.8626	785.156	87.8128	785.156	87.8315	785.156	87.6359	785.156	87.7087	785.156	87.2255	785.156	87.4248	785.156	86.4244	785.156	86.8509	785.156	85.0613	785.156	85.8135	785.156	83.068	785.156	84.1443	785.156	80.9749	785.156	81.8851	785.156	80.5232	785.156	80.081	785.156	81.8276	785.156	80.5413	785.156	82.9181	785.156	82.0526	785.156	82.8527	785.156	82.815	785.156	81.1644	785.156	82.2259	785.156	76.7806	785.156	79.7533	785.156	63.8812	785.156	73.6394	785.156	73.9466	785.156	66.1147	785.156	79.6653	785.156	76.787	785.156	81.8559	785.156	80.7264	785.156	82.1509
811.523	87.4301	811.523	87.4221	811.523	87.3852	811.523	87.3006	811.523	87.293	811.523	86.9417	811.523	87.0905	811.523	86.1595	811.523	86.63	811.523	84.7275	811.523	85.6957	811.523	82.4538	811.523	84.0467	811.523	79.7245	811.523	81.563	811.523	79.0551	811.523	79.1445	811.523	80.9625	811.523	79.4865	811.523	82.4613	811.523	81.3934	811.523	82.5312	811.523	82.3926	811.523	80.7519	811.523	81.8498	811.523	75.8404	811.523	79.2284	811.523	52.4597	811.523	72.3567	811.523	74.6948	811.523	65.2542	811.523	79.8663	811.523	76.7714	811.523	81.7994	811.523	80.566	811.523	81.9795
840.82	86.8408	840.82	86.8448	840.82	86.8466	840.82	86.8541	840.82	86.8576	840.82	86.7827	840.82	86.845	840.82	86.4241	840.82	86.6791	840.82	85.4935	840.82	86.1163	840.82	83.6708	840.82	84.8534	840.82	80.7234	840.82	82.5871	840.82	77.8939	840.82	79.4571	840.82	79.11	840.82	78.336	840.82	81.514	840.82	80.6111	840.82	82.4453	840.82	82.3905	840.82	81.5287	840.82	82.5795	840.82	78.169	840.82	80.9211	840.82	71.173	840.82	76.7274	840.82	74.7637	840.82	71.8805	840.82	80.0055	840.82	77.1983	840.82	82.2007	840.82	80.9892	840.82	82.4739
870.117	86.4448	870.117	86.3372	870.117	86.4278	870.117	86.1895	870.117	86.303	870.117	86.071	870.117	86.1733	870.117	85.8759	870.117	86.076	870.117	85.2956	870.117	85.8274	870.117	83.9119	870.117	85.0573	870.117	81.2403	870.117	83.3247	870.117	77.3219	870.117	80.2349	870.117	77.2672	870.117	77.1112	870.117	80.8043	870.117	79.0331	870.117	82.747	870.117	81.9096	870.117	82.7626	870.117	83.0468	870.117	80.7241	870.117	82.3169	870.117	76.0037	870.117	79.3434	870.117	72.5393	870.117	73.0924	870.117	77.304	870.117	72.7705	870.117	79.8708	870.117	78.0054	870.117	80.0738
902.344	86.5726	902.344	86.2903	902.344	86.5495	902.344	85.8329	902.344	86.2408	902.344	85.4568	902.344	85.8126	902.344	85.3281	902.344	85.503	902.344	85.2316	902.344	85.3539	902.344	84.6618	902.344	85.0345	902.344	83.0501	902.344	84.0291	902.344	79.7187	902.344	81.7859	902.344	74.9322	902.344	77.8016	902.344	76.9626	902.344	75.2213	902.344	80.6474	902.344	78.8275	902.344	81.9027	902.344	81.3777	902.344	80.9464	902.344	81.7585	902.344	77.4089	902.344	79.923	902.344	69.8096	902.344	74.9594	902.344	71.5165	902.344	67.1077	902.344	76.1335	902.344	73.7795	902.344	76.7485
931.641	86.6859	931.641	86.4879	931.641	86.5999	931.641	86.0278	931.641	86.2489	931.641	85.3893	931.641	85.6989	931.641	84.7076	931.641	85.072	931.641	84.0403	931.641	84.4675	931.641	83.22	931.641	83.8085	931.641	81.9084	931.641	82.8206	931.641	79.8256	931.641	81.204	931.641	77.4135	931.641	78.9835	931.641	77.0434	931.641	77.4879	931.641	78.704	931.641	78.367	931.641	79.6366	931.641	79.717	931.641	78.7899	931.641	79.792	931.641	75.3025	931.641	77.8844	931.641	64.9267	931.641	72.685	931.641	66.8745	931.641	57.9806	931.641	73.5678	931.641	70.6799	931.641	74.2959
966.797	86.4214	966.797	86.1603	966.797	86.3494	966.797	85.6226	966.797	85.9376	966.797	84.9332	966.797	85.241	966.797	84.2594	966.797	84.4106	966.797	83.6583	966.797	83.639	966.797	82.9273	966.797	82.9373	966.797	81.6773	966.797	82.0073	966.797	79.5405	966.797	80.4268	966.797	76.7698	966.797	78.0229	966.797	76.0073	966.797	76.0656	966.797	77.7658	966.797	76.8695	966.797	78.7023	966.797	78.1847	966.797	77.5847	966.797	77.8812	966.797	73.2604	966.797	75.1259	966.797	57.8187	966.797	67.525	966.797	69.7461	966.797	63.4587	966.797	74.4471	966.797	72.4997	966.797	75.0189
999.023	85.8491	999.023	85.6708	999.023	85.7005	999.023	85.1697	999.023	85.2586	999.023	84.4417	999.023	84.593	999.023	83.6908	999.023	83.8485	999.023	83.0539	999.023	83.1982	999.023	82.3446	999.023	82.6156	999.023	81.1142	999.023	81.7429	999.023	78.9329	999.023	80.0597	999.023	76.067	999.023	77.1972	999.023	75.5723	999.023	74.6422	999.023	77.621	999.023	76.1117	999.023	78.5218	999.023	78.0075	999.023	77.1348	999.023	77.9388	999.023	72.0702	999.023	75.2332	999.023	47.8682	999.023	66.8803	999.023	71.5963	999.023	65.4018	999.023	75.8068	999.023	74.0889	999.023	76.4368
1,034.18	86.4271	1,034.18	86.1102	1,034.18	86.302	1,034.18	85.3836	1,034.18	85.7398	1,034.18	84.3907	1,034.18	84.7952	1,034.18	83.4728	1,034.18	83.6805	1,034.18	82.9691	1,034.18	82.8244	1,034.18	82.7022	1,034.18	82.4542	1,034.18	82.0192	1,034.18	82.0837	1,034.18	80.2212	1,034.18	80.901	1,034.18	76.837	1,034.18	78.1684	1,034.18	74.5303	1,034.18	73.9249	1,034.18	77.2247	1,034.18	74.2565	1,034.18	79.0091	1,034.18	77.4645	1,034.18	78.3148	1,034.18	78.4882	1,034.18	74.4724	1,034.18	76.9475	1,034.18	62.9367	1,034.18	71.4274	1,034.18	69.4047	1,034.18	61.3778	1,034.18	74.7559	1,034.18	72.678	1,034.18	75.5674
1,072.27	86.7858	1,072.27	86.5105	1,072.27	86.6896	1,072.27	85.8314	1,072.27	86.2172	1,072.27	84.747	1,072.27	85.3296	1,072.27	83.4301	1,072.27	84.0437	1,072.27	82.326	1,072.27	82.6274	1,072.27	81.7328	1,072.27	81.6516	1,072.27	81.1764	1,072.27	81.2521	1,072.27	79.8128	1,072.27	80.6579	1,072.27	77.0006	1,072.27	78.9947	1,072.27	73.7249	1,072.27	75.7533	1,072.27	74.956	1,072.27	73.061	1,072.27	77.177	1,072.27	75.5714	1,072.27	77.2596	1,072.27	77.7397	1,072.27	74.5779	1,072.27	77.4166	1,072.27	66.1297	1,072.27	73.7044	1,072.27	64.1613	1,072.27	60.2388	1,072.27	72.3028	1,072.27	68.7207	1,072.27	73.2265
1,110.35	86.3866	1,110.35	86.1036	1,110.35	86.3306	1,110.35	85.4725	1,110.35	85.9192	1,110.35	84.4699	1,110.35	85.1072	1,110.35	83.117	1,110.35	83.8489	1,110.35	81.6272	1,110.35	82.2251	1,110.35	80.4625	1,110.35	80.6486	1,110.35	79.7637	1,110.35	79.6589	1,110.35	78.8436	1,110.35	79.0348	1,110.35	76.8352	1,110.35	77.9266	1,110.35	73.7575	1,110.35	75.7079	1,110.35	73.3888	1,110.35	73.21	1,110.35	75.7913	1,110.35	74.1812	1,110.35	76.6315	1,110.35	76.1629	1,110.35	74.8121	1,110.35	76.0394	1,110.35	68.3148	1,110.35	72.8108	1,110.35	60.7967	1,110.35	62.5392	1,110.35	70.3384	1,110.35	65.5717	1,110.35	71.1056
1,148.44	86.3512	1,148.44	86.0721	1,148.44	86.2764	1,148.44	85.4178	1,148.44	85.8925	1,148.44	84.3981	1,148.44	85.2178	1,148.44	83.0692	1,148.44	84.2124	1,148.44	81.6143	1,148.44	82.8639	1,148.44	80.3583	1,148.44	81.3681	1,148.44	79.4063	1,148.44	80.1357	1,148.44	78.3195	1,148.44	79.2564	1,148.44	76.5091	1,148.44	78.1696	1,148.44	73.9934	1,148.44	76.2906	1,148.44	72.864	1,148.44	74.0345	1,148.44	74.0209	1,148.44	73.5326	1,148.44	74.2485	1,148.44	74.1059	1,148.44	71.5451	1,148.44	73.0953	1,148.44	62.41	1,148.44	68.7972	1,148.44	67.2588	1,148.44	62.3917	1,148.44	72.5322	1,148.44	69.8979	1,148.44	73.0832
1,189.45	86.886	1,189.45	86.6059	1,189.45	86.8077	1,189.45	85.9554	1,189.45	86.3857	1,189.45	84.9225	1,189.45	85.6345	1,189.45	83.5353	1,189.45	84.5581	1,189.45	81.9682	1,189.45	83.1938	1,189.45	80.5747	1,189.45	81.7152	1,189.45	79.5095	1,189.45	80.4076	1,189.45	78.3287	1,189.45	79.2889	1,189.45	76.4137	1,189.45	77.8986	1,189.45	73.9631	1,189.45	75.8889	1,189.45	73.4103	1,189.45	74.268	1,189.45	74.6547	1,189.45	74.741	1,189.45	74.4982	1,189.45	75.4837	1,189.45	71.2267	1,189.45	74.4065	1,189.45	59.3934	1,189.45	69.8137	1,189.45	66.6235	1,189.45	59.1262	1,189.45	72.2268	1,189.45	69.6632	1,189.45	72.957
1,230.47	86.9742	1,230.47	86.7429	1,230.47	86.8859	1,230.47	86.1531	1,230.47	86.5005	1,230.47	85.1724	1,230.47	85.8169	1,230.47	83.8297	1,230.47	84.8128	1,230.47	82.2787	1,230.47	83.4885	1,230.47	80.7697	1,230.47	81.9698	1,230.47	79.4089	1,230.47	80.5355	1,230.47	77.9459	1,230.47	79.2918	1,230.47	76.0243	1,230.47	77.8829	1,230.47	74.0083	1,230.47	76.0147	1,230.47	73.7306	1,230.47	74.5574	1,230.47	74.7867	1,230.47	75.0453	1,230.47	74.6726	1,230.47	75.9473	1,230.47	71.8243	1,230.47	75.0578	1,230.47	61.7221	1,230.47	70.3987	1,230.47	64.8827	1,230.47	55.8245	1,230.47	71.9148	1,230.47	70.0192	1,230.47	73.1282
1,274.41	87.0854	1,274.41	86.8298	1,274.41	87.0324	1,274.41	86.2839	1,274.41	86.6426	1,274.41	85.4342	1,274.41	85.907	1,274.41	84.2554	1,274.41	84.8514	1,274.41	82.8098	1,274.41	83.5453	1,274.41	81.3636	1,274.41	82.1102	1,274.41	80.2069	1,274.41	80.6817	1,274.41	79.1087	1,274.41	79.2663	1,274.41	77.3367	1,274.41	77.6449	1,274.41	74.3729	1,274.41	75.5746	1,274.41	72.19	1,274.41	73.7633	1,274.41	73.7858	1,274.41	74.3212	1,274.41	74.8667	1,274.41	75.6417	1,274.41	73.333	1,274.41	75.0458	1,274.41	67.0959	1,274.41	70.8758	1,274.41	58.0508	1,274.41	60.06	1,274.41	70.0135	1,274.41	68.9549	1,274.41	71.9381
1,318.36	87.1168	1,318.36	86.9252	1,318.36	86.9753	1,318.36	86.3792	1,318.36	86.521	1,318.36	85.4501	1,318.36	85.7279	1,318.36	84.1216	1,318.36	84.5119	1,318.36	82.5366	1,318.36	82.8827	1,318.36	81.133	1,318.36	81.1709	1,318.36	80.2084	1,318.36	79.8588	1,318.36	79.3057	1,318.36	78.8351	1,318.36	77.7103	1,318.36	77.4377	1,318.36	75.3519	1,318.36	75.3794	1,318.36	74.0308	1,318.36	74.2884	1,318.36	74.6404	1,318.36	75.4401	1,318.36	74.4028	1,318.36	75.8202	1,318.36	71.3363	1,318.36	73.5867	1,318.36	62.1885	1,318.36	66.5345	1,318.36	66.7824	1,318.36	57.7383	1,318.36	71.676	1,318.36	69.4091	1,318.36	72.2127
1,365.23	86.7906	1,365.23	86.4694	1,365.23	86.7867	1,365.23	85.8993	1,365.23	86.403	1,365.23	85.0328	1,365.23	85.6092	1,365.23	83.6951	1,365.23	84.3092	1,365.23	81.8665	1,365.23	82.4093	1,365.23	80.0518	1,365.23	80.1672	1,365.23	78.9598	1,365.23	78.5756	1,365.23	78.2066	1,365.23	78.0953	1,365.23	76.6817	1,365.23	77.3557	1,365.23	74.1737	1,365.23	75.052	1,365.23	73.7251	1,365.23	72.4411	1,365.23	75.7481	1,365.23	74.2527	1,365.23	76.2297	1,365.23	75.9906	1,365.23	73.7512	1,365.23	75.2021	1,365.23	65.682	1,365.23	70.8874	1,365.23	62.5485	1,365.23	51.6988	1,365.23	70.3262	1,365.23	67.5609	1,365.23	71.3925
1,415.04	86.3205	1,415.04	85.9779	1,415.04	86.2073	1,415.04	85.3295	1,415.04	85.6733	1,415.04	84.4477	1,415.04	84.8911	1,415.04	83.1449	1,415.04	83.8805	1,415.04	81.2265	1,415.04	82.4311	1,415.04	79.0481	1,415.04	80.4223	1,415.04	77.7221	1,415.04	78.3645	1,415.04	77.2287	1,415.04	77.2106	1,415.04	75.8225	1,415.04	76.2719	1,415.04	72.3382	1,415.04	73.7381	1,415.04	71.373	1,415.04	68.9927	1,415.04	74.8808	1,415.04	70.4513	1,415.04	75.8599	1,415.04	74.1656	1,415.04	73.3061	1,415.04	74.9421	1,415.04	63.8415	1,415.04	72.1619	1,415.04	66.1698	1,415.04	61.489	1,415.04	72.2976	1,415.04	68.5081	1,415.04	72.8656
1,464.84	86.3259	1,464.84	85.819	1,464.84	86.2534	1,464.84	85.0022	1,464.84	85.6477	1,464.84	84.1333	1,464.84	84.838	1,464.84	83.0646	1,464.84	83.9937	1,464.84	81.3637	1,464.84	82.7898	1,464.84	78.9357	1,464.84	80.8203	1,464.84	76.954	1,464.84	78.4859	1,464.84	76.7246	1,464.84	77.4501	1,464.84	76.1104	1,464.84	77.2993	1,464.84	72.7982	1,464.84	75.6375	1,464.84	69.05	1,464.84	70.5873	1,464.84	73.5234	1,464.84	69.5565	1,464.84	75.3586	1,464.84	74.6836	1,464.84	72.8186	1,464.84	75.2257	1,464.84	58.9883	1,464.84	70.2195	1,464.84	68.5921	1,464.84	57.3499	1,464.84	73.6468	1,464.84	71.7834	1,464.84	74.3384
1,514.65	86.3547	1,514.65	85.8675	1,514.65	86.3075	1,514.65	85.0385	1,514.65	85.7191	1,514.65	84.1029	1,514.65	84.8777	1,514.65	83.0845	1,514.65	84.1051	1,514.65	81.6189	1,514.65	83.1438	1,514.65	79.3595	1,514.65	81.3554	1,514.65	76.912	1,514.65	78.6293	1,514.65	76.3631	1,514.65	76.7307	1,514.65	76.3157	1,514.65	77.0998	1,514.65	73.6743	1,514.65	76.6006	1,514.65	66.0574	1,514.65	72.854	1,514.65	70.7408	1,514.65	69.177	1,514.65	74.6868	1,514.65	74.1303	1,514.65	73.0269	1,514.65	75.2448	1,514.65	61.8816	1,514.65	70.4749	1,514.65	68.0438	1,514.65	59.4301	1,514.65	73.0034	1,514.65	72.1519	1,514.65	74.0497
1,570.31	86.4514	1,570.31	86.1466	1,570.31	86.3291	1,570.31	85.2847	1,570.31	85.7005	1,570.31	83.9695	1,570.31	84.4965	1,570.31	82.7003	1,570.31	83.1659	1,570.31	81.5107	1,570.31	82.1991	1,570.31	79.7113	1,570.31	81.0499	1,570.31	76.9625	1,570.31	78.8762	1,570.31	75.2466	1,570.31	76.2123	1,570.31	75.7705	1,570.31	75.9652	1,570.31	74.8026	1,570.31	76.2099	1,570.31	69.2309	1,570.31	73.6376	1,570.31	68.5611	1,570.31	68.1163	1,570.31	74.8317	1,570.31	73.6529	1,570.31	74.8027	1,570.31	76.2494	1,570.31	68.5195	1,570.31	73.0152	1,570.31	66.1713	1,570.31	61.4163	1,570.31	71.3603	1,570.31	70.6084	1,570.31	72.5299
1,623.05	86.1642	1,623.05	86.0983	1,623.05	85.989	1,623.05	85.2911	1,623.05	85.5333	1,623.05	83.6198	1,623.05	84.3474	1,623.05	81.9185	1,623.05	82.5829	1,623.05	80.9119	1,623.05	81.238	1,623.05	79.7077	1,623.05	80.2766	1,623.05	77.1421	1,623.05	78.2776	1,623.05	74.2497	1,623.05	74.744	1,623.05	74.8988	1,623.05	73.7244	1,623.05	75.2426	1,623.05	75.4729	1,623.05	71.2307	1,623.05	74.2405	1,623.05	65.6352	1,623.05	65.9639	1,623.05	74.74	1,623.05	71.7498	1,623.05	76.1824	1,623.05	76.09	1,623.05	72.2047	1,623.05	74.4393	1,623.05	68.0619	1,623.05	69.8499	1,623.05	71.9777	1,623.05	71.6161	1,623.05	72.9695
1,681.64	85.8558	1,681.64	85.6483	1,681.64	85.722	1,681.64	84.8965	1,681.64	85.2832	1,681.64	83.4706	1,681.64	84.2697	1,681.64	81.5746	1,681.64	82.4993	1,681.64	79.9125	1,681.64	80.4921	1,681.64	78.8416	1,681.64	79.3064	1,681.64	77.2304	1,681.64	78.3772	1,681.64	74.391	1,681.64	76.099	1,681.64	73.69	1,681.64	72.8216	1,681.64	75.3379	1,681.64	73.7655	1,681.64	74.0978	1,681.64	74.7167	1,681.64	64.5047	1,681.64	70.363	1,681.64	72.147	1,681.64	62.8975	1,681.64	76.2979	1,681.64	74.4168	1,681.64	74.4736	1,681.64	76.1755	1,681.64	69.6761	1,681.64	73.9316	1,681.64	67.2271	1,681.64	69.1299	1,681.64	66.6054
1,740.23	86.5458	1,740.23	86.0182	1,740.23	86.4386	1,740.23	85.0864	1,740.23	85.7506	1,740.23	83.8697	1,740.23	84.7381	1,740.23	82.2785	1,740.23	83.432	1,740.23	80.4469	1,740.23	81.7618	1,740.23	78.773	1,740.23	80.1008	1,740.23	77.122	1,740.23	78.8948	1,740.23	74.9045	1,740.23	77.5406	1,740.23	73.244	1,740.23	75.2545	1,740.23	74.007	1,740.23	73.7335	1,740.23	74.013	1,740.23	74.397	1,740.23	70.4015	1,740.23	73.4898	1,740.23	68.0414	1,740.23	68.257	1,740.23	73.0165	1,740.23	71.1916	1,740.23	73.6438	1,740.23	75.2908	1,740.23	70.2633	1,740.23	74.3089	1,740.23	65.6581	1,740.23	69.1859	1,740.23	65.6048
1,801.76	87.0432	1,801.76	86.4886	1,801.76	86.9917	1,801.76	85.5833	1,801.76	86.2919	1,801.76	84.4203	1,801.76	85.0929	1,801.76	82.8301	1,801.76	83.4792	1,801.76	80.8651	1,801.76	81.5931	1,801.76	79.0394	1,801.76	79.9381	1,801.76	77.5045	1,801.76	78.7343	1,801.76	75.4991	1,801.76	77.1445	1,801.76	73.1331	1,801.76	74.5967	1,801.76	72.8702	1,801.76	73.1377	1,801.76	72.8925	1,801.76	74.0099	1,801.76	70.1237	1,801.76	73.0132	1,801.76	69.252	1,801.76	68.6428	1,801.76	72.3182	1,801.76	70.2714	1,801.76	70.4138	1,801.76	72.3058	1,801.76	63.1505	1,801.76	69.812	1,801.76	68.6309	1,801.76	66.8559	1,801.76	69.9222
1,866.21	86.477	1,866.21	86.2769	1,866.21	86.232	1,866.21	85.4073	1,866.21	85.7218	1,866.21	83.9444	1,866.21	84.8124	1,866.21	82.2096	1,866.21	83.3538	1,866.21	80.4877	1,866.21	81.5095	1,866.21	78.9159	1,866.21	79.6129	1,866.21	77.5107	1,866.21	77.7794	1,866.21	76.0473	1,866.21	75.7798	1,866.21	74.4027	1,866.21	73.5471	1,866.21	73.1912	1,866.21	72.0621	1,866.21	72.0592	1,866.21	71.7955	1,866.21	69.3755	1,866.21	70.9987	1,866.21	69.0038	1,866.21	68.7322	1,866.21	72.2162	1,866.21	68.9296	1,866.21	71.6153	1,866.21	70.8818	1,866.21	65.6093	1,866.21	69.5376	1,866.21	67.8435	1,866.21	66.6274	1,866.21	69.0499
1,930.66	85.738	1,930.66	85.1557	1,930.66	85.8381	1,930.66	84.3218	1,930.66	85.1875	1,930.66	83.1116	1,930.66	83.9248	1,930.66	81.3679	1,930.66	82.4118	1,930.66	79.2933	1,930.66	80.7302	1,930.66	77.5731	1,930.66	78.8549	1,930.66	76.6394	1,930.66	77.1294	1,930.66	75.5828	1,930.66	75.6972	1,930.66	73.7708	1,930.66	73.9015	1,930.66	72.7596	1,930.66	71.7734	1,930.66	72.7167	1,930.66	71.0594	1,930.66	70.7728	1,930.66	70.5276	1,930.66	68.412	1,930.66	67.8498	1,930.66	71.2009	1,930.66	68.5897	1,930.66	70.5168	1,930.66	69.0223	1,930.66	65.5095	1,930.66	64.1748	1,930.66	68.5561	1,930.66	66.1656	1,930.66	70.2404
2,000.98	86.2232	2,000.98	85.5275	2,000.98	86.2276	2,000.98	84.4388	2,000.98	85.5029	2,000.98	83.171	2,000.98	84.3497	2,000.98	81.668	2,000.98	83.0251	2,000.98	79.6885	2,000.98	81.516	2,000.98	77.3874	2,000.98	79.8268	2,000.98	75.6195	2,000.98	78.2376	2,000.98	73.9688	2,000.98	76.9016	2,000.98	71.4853	2,000.98	75.3606	2,000.98	70.3728	2,000.98	73.5776	2,000.98	70.3937	2,000.98	72.6272	2,000.98	68.1876	2,000.98	71.4255	2,000.98	69.1463	2,000.98	68.8738	2,000.98	71.8074	2,000.98	70.0602	2,000.98	68.8951	2,000.98	71.7337	2,000.98	60.0072	2,000.98	67.7012	2,000.98	68.4822	2,000.98	62.3565	2,000.98	69.2283
2,071.29	86.7646	2,071.29	86.2447	2,071.29	86.6293	2,071.29	85.092	2,071.29	85.9169	2,071.29	83.6998	2,071.29	84.7763	2,071.29	82.4289	2,071.29	83.4409	2,071.29	80.9621	2,071.29	82.0159	2,071.29	78.9936	2,071.29	80.4215	2,071.29	76.9534	2,071.29	78.7975	2,071.29	75.3181	2,071.29	77.5429	2,071.29	73.4318	2,071.29	76.1712	2,071.29	71.5265	2,071.29	74.0256	2,071.29	71.2918	2,071.29	72.9309	2,071.29	69.4492	2,071.29	73.0138	2,071.29	65.0544	2,071.29	70.8487	2,071.29	70.9523	2,071.29	71.4119	2,071.29	71.3064	2,071.29	73.4995	2,071.29	62.4468	2,071.29	70.3203	2,071.29	65.441	2,071.29	64.4907	2,071.29	68.8813
2,144.53	85.8879	2,144.53	85.5665	2,144.53	85.9007	2,144.53	84.9935	2,144.53	85.4445	2,144.53	84.0625	2,144.53	84.3786	2,144.53	82.5931	2,144.53	82.7729	2,144.53	80.7785	2,144.53	81.0256	2,144.53	79.2183	2,144.53	79.4971	2,144.53	78.0046	2,144.53	78.0849	2,144.53	76.5268	2,144.53	76.5975	2,144.53	74.3283	2,144.53	74.9018	2,144.53	72.2472	2,144.53	72.877	2,144.53	72.1102	2,144.53	71.9114	2,144.53	71.7107	2,144.53	72.0357	2,144.53	68.882	2,144.53	69.4425	2,144.53	68.8513	2,144.53	67.0806	2,144.53	70.2439	2,144.53	70.2456	2,144.53	67.5714	2,144.53	67.8453	2,144.53	66.9491	2,144.53	66.6054	2,144.53	70.1757
2,217.77	85.3034	2,217.77	84.9095	2,217.77	85.0412	2,217.77	83.9497	2,217.77	84.2555	2,217.77	82.708	2,217.77	83.2105	2,217.77	81.5012	2,217.77	82.0916	2,217.77	80.208	2,217.77	80.8152	2,217.77	78.485	2,217.77	79.2134	2,217.77	76.8242	2,217.77	77.4835	2,217.77	76.1611	2,217.77	75.9098	2,217.77	75.3787	2,217.77	74.4531	2,217.77	73.4577	2,217.77	72.9546	2,217.77	71.8282	2,217.77	71.3601	2,217.77	70.9661	2,217.77	70.1615	2,217.77	70.2084	2,217.77	69.4955	2,217.77	71.5794	2,217.77	69.1228	2,217.77	71.0073	2,217.77	69.5247	2,217.77	68.0798	2,217.77	66.8869	2,217.77	70.1076	2,217.77	60.5555	2,217.77	68.7475
2,296.88	86.0987	2,296.88	85.6617	2,296.88	86.1927	2,296.88	84.8115	2,296.88	85.7615	2,296.88	83.6178	2,296.88	84.7759	2,296.88	82.2716	2,296.88	83.6023	2,296.88	80.8355	2,296.88	82.3823	2,296.88	79.1942	2,296.88	80.8298	2,296.88	77.1063	2,296.88	78.7699	2,296.88	74.8978	2,296.88	76.8696	2,296.88	73.3781	2,296.88	75.9066	2,296.88	72.2061	2,296.88	74.923	2,296.88	71.3702	2,296.88	73.1787	2,296.88	69.9682	2,296.88	71.2549	2,296.88	66.9702	2,296.88	69.0944	2,296.88	70.4713	2,296.88	69.2623	2,296.88	70.6695	2,296.88	70.7103	2,296.88	62.7275	2,296.88	67.89	2,296.88	68.4234	2,296.88	64.2668	2,296.88	69.5831
2,378.91	86.9498	2,378.91	86.7142	2,378.91	86.6345	2,378.91	86.2302	2,378.91	85.8891	2,378.91	85.5284	2,378.91	84.9633	2,378.91	84.2209	2,378.91	83.6898	2,378.91	82.5054	2,378.91	82.0577	2,378.91	80.9602	2,378.91	80.3961	2,378.91	79.3673	2,378.91	78.581	2,378.91	77.3649	2,378.91	76.6763	2,378.91	75.2215	2,378.91	75.3529	2,378.91	72.9102	2,378.91	74.3397	2,378.91	71.431	2,378.91	72.9682	2,378.91	71.8025	2,378.91	71.882	2,378.91	69.781	2,378.91	70.6783	2,378.91	68.5156	2,378.91	70.1687	2,378.91	71.1867	2,378.91	71.9801	2,378.91	66.8559	2,378.91	70.1875	2,378.91	69.0666	2,378.91	65.3808	2,378.91	70.6015
2,460.94	86.3748	2,460.94	86.2859	2,460.94	85.9892	2,460.94	85.8351	2,460.94	85.1773	2,460.94	85.0393	2,460.94	84.1435	2,460.94	83.9664	2,460.94	83.0945	2,460.94	82.7577	2,460.94	82.0442	2,460.94	81.3743	2,460.94	80.6858	2,460.94	79.7634	2,460.94	78.8152	2,460.94	78.1133	2,460.94	76.4816	2,460.94	76.7512	2,460.94	74.2482	2,460.94	75.5543	2,460.94	72.822	2,460.94	74.0141	2,460.94	71.6511	2,460.94	72.711	2,460.94	70.7583	2,460.94	71.7596	2,460.94	70.0546	2,460.94	71.2929	2,460.94	69.1169	2,460.94	71.659	2,460.94	69.5721	2,460.94	68.5525	2,460.94	68.1127	2,460.94	69.2656	2,460.94	67.7917	2,460.94	71.2753
2,548.83	86.0944	2,548.83	85.9111	2,548.83	86.0077	2,548.83	85.4288	2,548.83	85.7227	2,548.83	84.723	2,548.83	85.2777	2,548.83	83.8066	2,548.83	84.5623	2,548.83	82.4898	2,548.83	83.4874	2,548.83	80.7795	2,548.83	82.1513	2,548.83	78.9824	2,548.83	80.5493	2,548.83	77.351	2,548.83	78.527	2,548.83	75.8376	2,548.83	76.4085	2,548.83	74.3543	2,548.83	74.877	2,548.83	73.4129	2,548.83	73.6102	2,548.83	72.867	2,548.83	72.4156	2,548.83	71.4722	2,548.83	71.4421	2,548.83	71.4537	2,548.83	69.502	2,548.83	72.1169	2,548.83	70.6875	2,548.83	69.504	2,548.83	71.1952	2,548.83	71.9463	2,548.83	66.2015	2,548.83	72.1243
2,639.65	86.666	2,639.65	86.4444	2,639.65	86.6464	2,639.65	86.1017	2,639.65	86.4684	2,639.65	85.6703	2,639.65	86.2672	2,639.65	84.9115	2,639.65	85.8741	2,639.65	83.6321	2,639.65	84.9948	2,639.65	81.9398	2,639.65	83.5912	2,639.65	79.9947	2,639.65	81.7988	2,639.65	77.8206	2,639.65	79.7793	2,639.65	75.7107	2,639.65	77.7149	2,639.65	74.1377	2,639.65	75.8568	2,639.65	72.9088	2,639.65	74.397	2,639.65	72.0762	2,639.65	73.2733	2,639.65	71.5779	2,639.65	72.3478	2,639.65	71.8068	2,639.65	71.952	2,639.65	71.9577	2,639.65	72.2796	2,639.65	68.5824	2,639.65	71.1502	2,639.65	70.4123	2,639.65	69.9233	2,639.65	72.1595
2,733.4	86.4055	2,733.4	86.3352	2,733.4	86.3535	2,733.4	86.2225	2,733.4	86.3421	2,733.4	86.0242	2,733.4	86.3526	2,733.4	85.4733	2,733.4	86.0359	2,733.4	84.3732	2,733.4	85.172	2,733.4	82.7428	2,733.4	83.7445	2,733.4	80.8077	2,733.4	81.8989	2,733.4	78.8476	2,733.4	79.8211	2,733.4	76.9901	2,733.4	77.6291	2,733.4	75.1813	2,733.4	75.6726	2,733.4	73.706	2,733.4	74.2006	2,733.4	73.2551	2,733.4	73.6801	2,733.4	72.1519	2,733.4	73.6026	2,733.4	71.3029	2,733.4	72.2078	2,733.4	72.8821	2,733.4	72.798	2,733.4	70.1755	2,733.4	72.6546	2,733.4	71.4254	2,733.4	67.6961	2,733.4	72.142
2,827.15	86.1296	2,827.15	86.3247	2,827.15	86.2741	2,827.15	86.5879	2,827.15	86.5865	2,827.15	86.4379	2,827.15	86.7874	2,827.15	85.679	2,827.15	86.5495	2,827.15	84.2559	2,827.15	85.6201	2,827.15	82.3029	2,827.15	84.0974	2,827.15	80.2421	2,827.15	82.214	2,827.15	78.2057	2,827.15	80.0609	2,827.15	76.2646	2,827.15	77.7782	2,827.15	75.0754	2,827.15	76.047	2,827.15	73.8403	2,827.15	74.9211	2,827.15	72.5339	2,827.15	73.34	2,827.15	73.0597	2,827.15	72.2926	2,827.15	72.463	2,827.15	72.2166	2,827.15	71.9191	2,827.15	72.2633	2,827.15	70.1806	2,827.15	72.1864	2,827.15	69.8753	2,827.15	71.0604	2,827.15	72.1702
2,926.76	85.9873	2,926.76	86.3033	2,926.76	86.2658	2,926.76	86.6472	2,926.76	86.8216	2,926.76	86.5697	2,926.76	86.9411	2,926.76	85.8191	2,926.76	86.423	2,926.76	84.3142	2,926.76	85.3678	2,926.76	82.3088	2,926.76	83.7245	2,926.76	80.1941	2,926.76	81.6003	2,926.76	78.1042	2,926.76	79.5623	2,926.76	75.8356	2,926.76	77.5221	2,926.76	73.9118	2,926.76	75.2574	2,926.76	72.9721	2,926.76	73.6119	2,926.76	71.9709	2,926.76	72.6463	2,926.76	71.6737	2,926.76	72.0331	2,926.76	73.0004	2,926.76	71.7062	2,926.76	73.3034	2,926.76	72.676	2,926.76	70.6589	2,926.76	72.4264	2,926.76	71.8102	2,926.76	67.9408	2,926.76	72.6551
3,032.23	86.3762	3,032.23	86.5908	3,032.23	86.6398	3,032.23	86.8371	3,032.23	87.1768	3,032.23	86.5403	3,032.23	87.2791	3,032.23	85.4714	3,032.23	86.5902	3,032.23	83.8	3,032.23	85.2035	3,032.23	81.5509	3,032.23	83.3252	3,032.23	79.1568	3,032.23	81.2346	3,032.23	77.1418	3,032.23	79.13	3,032.23	75.2898	3,032.23	76.9837	3,032.23	73.5693	3,032.23	75.0551	3,032.23	72.7386	3,032.23	73.5118	3,032.23	72.1219	3,032.23	72.1968	3,032.23	70.4007	3,032.23	71.2515	3,032.23	71.5271	3,032.23	70.2331	3,032.23	73.7971	3,032.23	71.9665	3,032.23	71.3368	3,032.23	73.5935	3,032.23	69.3333	3,032.23	68.4772	3,032.23	69.4172
3,137.7	86.5938	3,137.7	86.9634	3,137.7	86.9053	3,137.7	87.3176	3,137.7	87.5633	3,137.7	86.9648	3,137.7	87.7666	3,137.7	85.8464	3,137.7	87.0359	3,137.7	84.0767	3,137.7	85.4461	3,137.7	81.701	3,137.7	83.5401	3,137.7	79.2265	3,137.7	81.5211	3,137.7	76.8416	3,137.7	79.4723	3,137.7	74.415	3,137.7	77.2798	3,137.7	72.5456	3,137.7	75.1868	3,137.7	71.5538	3,137.7	73.9149	3,137.7	70.7597	3,137.7	72.4102	3,137.7	71.1993	3,137.7	71.7709	3,137.7	70.2057	3,137.7	72.074	3,137.7	72.7074	3,137.7	70.7994	3,137.7	72.4168	3,137.7	73.9191	3,137.7	66.2042	3,137.7	72.874	3,137.7	67.5974
3,249.02	86.5073	3,249.02	86.7364	3,249.02	86.71	3,249.02	87.0072	3,249.02	87.2722	3,249.02	86.6427	3,249.02	87.5589	3,249.02	85.4672	3,249.02	86.862	3,249.02	83.7455	3,249.02	85.3669	3,249.02	81.7223	3,249.02	83.4074	3,249.02	79.3749	3,249.02	81.2398	3,249.02	77.0619	3,249.02	79.243	3,249.02	75.3349	3,249.02	77.0789	3,249.02	73.2349	3,249.02	74.9692	3,249.02	71.3628	3,249.02	73.5364	3,249.02	70.8798	3,249.02	72.4581	3,249.02	69.9639	3,249.02	71.8726	3,249.02	71.4311	3,249.02	72.31	3,249.02	72.9985	3,249.02	72.2135	3,249.02	72.8452	3,249.02	72.9008	3,249.02	70.5543	3,249.02	71.9836	3,249.02	70.386
3,363.28	86.0996	3,363.28	86.5739	3,363.28	86.3885	3,363.28	86.9155	3,363.28	87.1358	3,363.28	86.3966	3,363.28	87.2492	3,363.28	84.9699	3,363.28	86.5043	3,363.28	83.1631	3,363.28	85.0777	3,363.28	81.202	3,363.28	82.9986	3,363.28	79.1019	3,363.28	80.8861	3,363.28	77.005	3,363.28	78.9578	3,363.28	75.0396	3,363.28	76.592	3,363.28	73.4538	3,363.28	74.0144	3,363.28	71.765	3,363.28	72.6108	3,363.28	69.6059	3,363.28	71.3427	3,363.28	69.5016	3,363.28	69.4161	3,363.28	70.2768	3,363.28	70.5625	3,363.28	72.3163	3,363.28	71.5564	3,363.28	71.1041	3,363.28	72.5101	3,363.28	68.6404	3,363.28	70.7031	3,363.28	69.5247
3,483.4	86.4241	3,483.4	86.7364	3,483.4	86.9018	3,483.4	87.0418	3,483.4	87.5682	3,483.4	86.3933	3,483.4	87.6705	3,483.4	84.9591	3,483.4	86.8862	3,483.4	83.1503	3,483.4	85.2026	3,483.4	80.8323	3,483.4	83.2595	3,483.4	78.5307	3,483.4	81.3445	3,483.4	77.0846	3,483.4	79.4845	3,483.4	75.2024	3,483.4	77.5041	3,483.4	72.25	3,483.4	75.1263	3,483.4	71.8857	3,483.4	73.3779	3,483.4	71.2931	3,483.4	72.2434	3,483.4	69.3473	3,483.4	70.3301	3,483.4	69.8548	3,483.4	71.6439	3,483.4	71.9886	3,483.4	72.4915	3,483.4	71.6257	3,483.4	73.1236	3,483.4	65.283	3,483.4	70.9286	3,483.4	68.0999
3,606.45	86.4857	3,606.45	86.7857	3,606.45	86.6282	3,606.45	86.8998	3,606.45	87.1885	3,606.45	86.2007	3,606.45	87.1676	3,606.45	84.7656	3,606.45	86.0207	3,606.45	83.1804	3,606.45	84.431	3,606.45	81.4343	3,606.45	82.7532	3,606.45	79.2002	3,606.45	80.8059	3,606.45	77.0276	3,606.45	78.7686	3,606.45	75.2584	3,606.45	76.5997	3,606.45	72.7611	3,606.45	74.4903	3,606.45	70.2906	3,606.45	72.302	3,606.45	70.6941	3,606.45	71.0232	3,606.45	69.6341	3,606.45	70.6509	3,606.45	69.7633	3,606.45	71.1335	3,606.45	72.8545	3,606.45	71.6246	3,606.45	72.9426	3,606.45	72.8401	3,606.45	68.0498	3,606.45	69.9484	3,606.45	67.2785
3,732.42	86.4154	3,732.42	86.3718	3,732.42	86.6236	3,732.42	86.4269	3,732.42	86.8787	3,732.42	85.6505	3,732.42	86.8488	3,732.42	84.0702	3,732.42	86.0176	3,732.42	82.5138	3,732.42	84.4832	3,732.42	81.045	3,732.42	82.6911	3,732.42	79.4309	3,732.42	81.0346	3,732.42	77.2068	3,732.42	79.0784	3,732.42	74.9859	3,732.42	76.9673	3,732.42	73.2553	3,732.42	75.0245	3,732.42	71.0321	3,732.42	72.8483	3,732.42	69.7953	3,732.42	70.5546	3,732.42	70.5391	3,732.42	68.7063	3,732.42	70.0111	3,732.42	70.0652	3,732.42	71.3603	3,732.42	70.6594	3,732.42	71.0815	3,732.42	71.3204	3,732.42	65.6298	3,732.42	69.7214	3,732.42	64.4703
3,864.26	86.5952	3,864.26	86.6009	3,864.26	86.7853	3,864.26	86.5788	3,864.26	86.9791	3,864.26	85.9101	3,864.26	86.8002	3,864.26	84.7304	3,864.26	85.9963	3,864.26	83.4417	3,864.26	84.7979	3,864.26	81.8742	3,864.26	83.4912	3,864.26	80.0471	3,864.26	81.9261	3,864.26	78.6565	3,864.26	79.957	3,864.26	76.6246	3,864.26	77.6401	3,864.26	73.2489	3,864.26	75.1873	3,864.26	71.0576	3,864.26	73.2141	3,864.26	69.1871	3,864.26	71.7457	3,864.26	68.6417	3,864.26	69.0168	3,864.26	70.3252	3,864.26	68.8624	3,864.26	71.0305	3,864.26	71.8731	3,864.26	70.9938	3,864.26	73.0421	3,864.26	64.0205	3,864.26	70.5339	3,864.26	66.9207
3,999.02	86.8913	3,999.02	86.5759	3,999.02	86.8537	3,999.02	86.2409	3,999.02	86.7823	3,999.02	85.6058	3,999.02	86.544	3,999.02	84.7301	3,999.02	85.8334	3,999.02	83.9691	3,999.02	85.1373	3,999.02	82.8418	3,999.02	84.2017	3,999.02	80.8848	3,999.02	82.7123	3,999.02	78.1738	3,999.02	80.7214	3,999.02	75.5635	3,999.02	78.5028	3,999.02	73.659	3,999.02	76.1234	3,999.02	71.9532	3,999.02	73.743	3,999.02	70.6439	3,999.02	72.36	3,999.02	68.6363	3,999.02	71.0676	3,999.02	69.8723	3,999.02	70.0643	3,999.02	71.629	3,999.02	70.399	3,999.02	71.4431	3,999.02	72.9532	3,999.02	65.2812	3,999.02	70.3926	3,999.02	67.8551
4,139.65	86.6994	4,139.65	85.8757	4,139.65	86.661	4,139.65	85.4007	4,139.65	86.1146	4,139.65	85.0373	4,139.65	86.0127	4,139.65	84.6622	4,139.65	86.0548	4,139.65	84.1752	4,139.65	85.6791	4,139.65	83.2824	4,139.65	84.6227	4,139.65	81.6871	4,139.65	83.0658	4,139.65	79.2281	4,139.65	80.8261	4,139.65	76.6795	4,139.65	78.4927	4,139.65	73.9405	4,139.65	76.3241	4,139.65	71.3871	4,139.65	74.0512	4,139.65	69.4527	4,139.65	72.4089	4,139.65	69.5591	4,139.65	70.8905	4,139.65	70.3795	4,139.65	71.1358	4,139.65	72.7926	4,139.65	71.8609	4,139.65	72.575	4,139.65	72.3697	4,139.65	62.1827	4,139.65	70.4469	4,139.65	63.4016
4,286.13	88.0926	4,286.13	87.0553	4,286.13	87.7205	4,286.13	85.5351	4,286.13	86.6265	4,286.13	85.0443	4,286.13	86.3235	4,286.13	85.1431	4,286.13	86.6037	4,286.13	84.7116	4,286.13	86.447	4,286.13	83.1277	4,286.13	85.4045	4,286.13	80.0373	4,286.13	83.4505	4,286.13	77.5095	4,286.13	81.2094	4,286.13	76.0859	4,286.13	78.6265	4,286.13	74.074	4,286.13	75.9122	4,286.13	71.7843	4,286.13	73.921	4,286.13	70.2072	4,286.13	71.7944	4,286.13	68.9917	4,286.13	70.1168	4,286.13	70.8365	4,286.13	70.8608	4,286.13	71.4515	4,286.13	72.5488	4,286.13	72.2944	4,286.13	73.8231	4,286.13	67.0431	4,286.13	71.5456	4,286.13	68.8974
4,438.48	88.2819	4,438.48	87.2073	4,438.48	87.9532	4,438.48	85.9978	4,438.48	86.7122	4,438.48	85.4732	4,438.48	85.96	4,438.48	85.2614	4,438.48	85.9106	4,438.48	84.8323	4,438.48	85.6929	4,438.48	83.4351	4,438.48	84.6279	4,438.48	81.0518	4,438.48	82.7673	4,438.48	78.1603	4,438.48	80.179	4,438.48	74.9902	4,438.48	77.6147	4,438.48	71.8103	4,438.48	75.2119	4,438.48	69.5189	4,438.48	72.8521	4,438.48	67.3572	4,438.48	70.8846	4,438.48	66.7932	4,438.48	68.6124	4,438.48	68.4737	4,438.48	69.8318	4,438.48	71.1083	4,438.48	70.4206	4,438.48	70.8268	4,438.48	71.978	4,438.48	66.18	4,438.48	68.0136	4,438.48	68.51
4,593.75	88.7339	4,593.75	87.5548	4,593.75	88.4995	4,593.75	85.8395	4,593.75	87.11	4,593.75	85.1012	4,593.75	86.1572	4,593.75	85.022	4,593.75	86.3833	4,593.75	84.3548	4,593.75	86.4413	4,593.75	82.6118	4,593.75	85.1712	4,593.75	79.5968	4,593.75	82.9882	4,593.75	77.2094	4,593.75	80.6232	4,593.75	75.4814	4,593.75	77.7801	4,593.75	72.9552	4,593.75	74.6813	4,593.75	70.0426	4,593.75	72.4805	4,593.75	69.645	4,593.75	70.7637	4,593.75	68.1563	4,593.75	68.4389	4,593.75	68.883	4,593.75	69.9897	4,593.75	70.8425	4,593.75	69.0157	4,593.75	71.4323	4,593.75	71.9907	4,593.75	58.8101	4,593.75	68.8073	4,593.75	65.882
4,757.81	88.5805	4,757.81	87.0496	4,757.81	88.1838	4,757.81	85.5186	4,757.81	86.709	4,757.81	85.3393	4,757.81	86.0045	4,757.81	85.2868	4,757.81	86.0639	4,757.81	84.7676	4,757.81	85.7888	4,757.81	83.1589	4,757.81	84.7651	4,757.81	80.4781	4,757.81	83.0106	4,757.81	77.8703	4,757.81	80.097	4,757.81	75.2636	4,757.81	77.3659	4,757.81	71.9648	4,757.81	75.4009	4,757.81	68.3558	4,757.81	73.0436	4,757.81	66.5482	4,757.81	71.6284	4,757.81	66.3028	4,757.81	68.0682	4,757.81	67.7892	4,757.81	69.9611	4,757.81	69.3914	4,757.81	71.1313	4,757.81	71.4355	4,757.81	71.4327	4,757.81	61.999	4,757.81	69.6882	4,757.81	63.0014
4,924.8	88.7682	4,924.8	87.4553	4,924.8	88.2919	4,924.8	85.8683	4,924.8	86.5424	4,924.8	85.4338	4,924.8	85.8564	4,924.8	85.3405	4,924.8	86.3476	4,924.8	84.3721	4,924.8	86.2078	4,924.8	82.2367	4,924.8	84.7764	4,924.8	79.8597	4,924.8	82.5635	4,924.8	77.5567	4,924.8	79.8931	4,924.8	74.3042	4,924.8	77.4772	4,924.8	72.1718	4,924.8	74.6369	4,924.8	69.7732	4,924.8	71.8148	4,924.8	68.0509	4,924.8	70.518	4,924.8	68.4399	4,924.8	68.2287	4,924.8	69.068	4,924.8	67.834	4,924.8	70.0095	4,924.8	69.9085	4,924.8	71.2306	4,924.8	70.7174	4,924.8	61.1927	4,924.8	69.2781	4,924.8	65.2532
5,097.66	88.6888	5,097.66	87.2073	5,097.66	88.2554	5,097.66	85.817	5,097.66	86.7432	5,097.66	85.5708	5,097.66	86.1864	5,097.66	85.2517	5,097.66	86.2498	5,097.66	84.0995	5,097.66	85.7319	5,097.66	82.2903	5,097.66	84.4792	5,097.66	80.0309	5,097.66	82.7092	5,097.66	77.388	5,097.66	80.0298	5,097.66	74.8024	5,097.66	77.318	5,097.66	72.345	5,097.66	75.065	5,097.66	69.7329	5,097.66	72.4873	5,097.66	67.0131	5,097.66	69.964	5,097.66	65.0718	5,097.66	67.282	5,097.66	67.8848	5,097.66	66.843	5,097.66	67.8446	5,097.66	70.0329	5,097.66	70.5547	5,097.66	70.8905	5,097.66	62.7383	5,097.66	68.4398	5,097.66	63.6057
5,279.3	88.1735	5,279.3	86.8473	5,279.3	87.7865	5,279.3	85.7535	5,279.3	86.0453	5,279.3	85.4279	5,279.3	85.4887	5,279.3	85.0688	5,279.3	85.8894	5,279.3	83.9823	5,279.3	85.4138	5,279.3	82.2859	5,279.3	83.8273	5,279.3	80.1322	5,279.3	81.7448	5,279.3	77.4003	5,279.3	79.3434	5,279.3	73.7442	5,279.3	77.0815	5,279.3	71.2525	5,279.3	74.3615	5,279.3	68.808	5,279.3	72.002	5,279.3	67.4218	5,279.3	69.9284	5,279.3	65.5794	5,279.3	65.8174	5,279.3	66.7206	5,279.3	65.5155	5,279.3	67.9154	5,279.3	68.2402	5,279.3	69.1653	5,279.3	70.0407	5,279.3	63.1217	5,279.3	67.0355	5,279.3	65.3283
5,463.87	88.1744	5,463.87	87.1694	5,463.87	87.7656	5,463.87	86.3423	5,463.87	86.5606	5,463.87	85.7463	5,463.87	86.1349	5,463.87	84.7666	5,463.87	85.7864	5,463.87	83.1811	5,463.87	84.87	5,463.87	81.6465	5,463.87	83.5808	5,463.87	79.5374	5,463.87	81.7838	5,463.87	77.0566	5,463.87	79.2955	5,463.87	74.3537	5,463.87	76.9461	5,463.87	72.1169	5,463.87	74.1934	5,463.87	69.3359	5,463.87	71.2373	5,463.87	66.9224	5,463.87	69.423	5,463.87	67.5953	5,463.87	67.0245	5,463.87	67.4053	5,463.87	64.8754	5,463.87	69.3157	5,463.87	68.2919	5,463.87	68.856	5,463.87	70.1189	5,463.87	60.6703	5,463.87	67.793	5,463.87	61.9972
5,657.23	87.5473	5,657.23	86.9127	5,657.23	87.3092	5,657.23	85.9602	5,657.23	86.5437	5,657.23	84.8955	5,657.23	85.8327	5,657.23	84.1017	5,657.23	85.4518	5,657.23	83.3982	5,657.23	84.8388	5,657.23	82.0153	5,657.23	83.228	5,657.23	80.3196	5,657.23	81.3198	5,657.23	78.2197	5,657.23	79.175	5,657.23	75.053	5,657.23	76.5866	5,657.23	72.0356	5,657.23	73.3243	5,657.23	69.608	5,657.23	71.0062	5,657.23	65.7691	5,657.23	69.2551	5,657.23	64.0246	5,657.23	66.9735	5,657.23	65.9667	5,657.23	62.441	5,657.23	66.6653	5,657.23	66.8703	5,657.23	68.8457	5,657.23	67.9787	5,657.23	63.8836	5,657.23	68.1684	5,657.23	65.5426
5,856.45	87.311	5,856.45	87.1126	5,856.45	87.0495	5,856.45	86.5819	5,856.45	86.8663	5,856.45	85.5126	5,856.45	86.1853	5,856.45	84.6573	5,856.45	85.2069	5,856.45	83.8752	5,856.45	84.6053	5,856.45	82.8641	5,856.45	83.7841	5,856.45	80.4841	5,856.45	81.893	5,856.45	77.1805	5,856.45	79.2939	5,856.45	73.5347	5,856.45	76.6869	5,856.45	71.399	5,856.45	74.0869	5,856.45	69.9534	5,856.45	72.037	5,856.45	65.437	5,856.45	69.6117	5,856.45	64.4863	5,856.45	66.8679	5,856.45	66.2574	5,856.45	61.4581	5,856.45	67.2176	5,856.45	66.1241	5,856.45	68.9838	5,856.45	67.314	5,856.45	62.8699	5,856.45	67.689	5,856.45	64.2141
6,061.52	87.5038	6,061.52	87.5337	6,061.52	87.6032	6,061.52	86.9714	6,061.52	87.3512	6,061.52	85.6393	6,061.52	86.0019	6,061.52	84.8906	6,061.52	85.0214	6,061.52	84.3356	6,061.52	84.9197	6,061.52	82.4419	6,061.52	84.0203	6,061.52	79.7725	6,061.52	82.2252	6,061.52	76.8691	6,061.52	79.4062	6,061.52	73.5275	6,061.52	76.2204	6,061.52	71.0761	6,061.52	73.1412	6,061.52	69.5289	6,061.52	71.028	6,061.52	64.8695	6,061.52	67.6665	6,061.52	62.9099	6,061.52	67.3106	6,061.52	62.5654	6,061.52	63.2383	6,061.52	66.654	6,061.52	66.278	6,061.52	67.455	6,061.52	67.6111	6,061.52	61.4404	6,061.52	67.6575	6,061.52	62.8148
6,275.39	87.7952	6,275.39	87.9537	6,275.39	87.9901	6,275.39	87.0083	6,275.39	87.9095	6,275.39	85.383	6,275.39	86.4833	6,275.39	85.0831	6,275.39	85.6495	6,275.39	84.6273	6,275.39	85.6352	6,275.39	82.9921	6,275.39	84.5227	6,275.39	80.1296	6,275.39	82.1974	6,275.39	77.223	6,275.39	79.2468	6,275.39	74.0597	6,275.39	76.1964	6,275.39	70.7313	6,275.39	73.0387	6,275.39	68.5052	6,275.39	70.6819	6,275.39	64.343	6,275.39	68.1536	6,275.39	63.8202	6,275.39	66.6542	6,275.39	61.2843	6,275.39	63.7933	6,275.39	66.6423	6,275.39	64.9555	6,275.39	67.5793	6,275.39	66.8806	6,275.39	59.8148	6,275.39	68.0152	6,275.39	61.3805
6,498.05	87.5931	6,498.05	87.91	6,498.05	87.955	6,498.05	87.0773	6,498.05	88.1354	6,498.05	85.6663	6,498.05	86.7072	6,498.05	85.5452	6,498.05	85.8902	6,498.05	84.9006	6,498.05	85.7597	6,498.05	82.9465	6,498.05	84.5332	6,498.05	80.1299	6,498.05	82.2716	6,498.05	76.9138	6,498.05	79.3707	6,498.05	73.6231	6,498.05	76.2947	6,498.05	70.4557	6,498.05	72.9746	6,498.05	68.2154	6,498.05	70.8176	6,498.05	64.7067	6,498.05	67.9618	6,498.05	66.1569	6,498.05	65.7777	6,498.05	59.4998	6,498.05	62.988	6,498.05	67.0506	6,498.05	65.8909	6,498.05	67.3416	6,498.05	66.3398	6,498.05	60.3688	6,498.05	67.0873	6,498.05	62.9075
6,726.56	87.1157	6,726.56	88.1227	6,726.56	87.4752	6,726.56	87.2524	6,726.56	88.0811	6,726.56	85.9957	6,726.56	86.6238	6,726.56	85.8125	6,726.56	85.896	6,726.56	84.7449	6,726.56	85.5985	6,726.56	82.5599	6,726.56	84.1458	6,726.56	79.4561	6,726.56	81.7935	6,726.56	76.1601	6,726.56	78.7906	6,726.56	73.5182	6,726.56	75.9693	6,726.56	70.6517	6,726.56	73.2508	6,726.56	68.6834	6,726.56	71.2435	6,726.56	65.4177	6,726.56	68.5239	6,726.56	66.4171	6,726.56	66.7693	6,726.56	59.7665	6,726.56	62.2932	6,726.56	66.5977	6,726.56	65.6315	6,726.56	66.7581	6,726.56	65.3233	6,726.56	56.0222	6,726.56	67.8855	6,726.56	60.3761
6,963.87	87.2293	6,963.87	87.9927	6,963.87	87.5781	6,963.87	87.0654	6,963.87	87.9767	6,963.87	86.0107	6,963.87	86.589	6,963.87	85.4912	6,963.87	85.9596	6,963.87	84.054	6,963.87	85.277	6,963.87	82.2056	6,963.87	83.7409	6,963.87	79.2583	6,963.87	81.4196	6,963.87	76.4551	6,963.87	78.8293	6,963.87	74.4709	6,963.87	75.9553	6,963.87	71.6984	6,963.87	73.045	6,963.87	68.8707	6,963.87	70.245	6,963.87	66.2943	6,963.87	67.4297	6,963.87	65.6831	6,963.87	66.2187	6,963.87	60.3404	6,963.87	64.2067	6,963.87	66.1215	6,963.87	64.5154	6,963.87	65.0438	6,963.87	64.4709	6,963.87	55.5327	6,963.87	67.2899	6,963.87	59.6627
7,209.96	86.8673	7,209.96	87.7414	7,209.96	87.1352	7,209.96	86.8445	7,209.96	87.707	7,209.96	86.1171	7,209.96	86.4297	7,209.96	85.1762	7,209.96	85.646	7,209.96	83.726	7,209.96	84.4871	7,209.96	82.1538	7,209.96	83.0127	7,209.96	79.6819	7,209.96	80.9937	7,209.96	76.6853	7,209.96	78.3096	7,209.96	74.1291	7,209.96	75.4216	7,209.96	71.0583	7,209.96	72.2505	7,209.96	68.7215	7,209.96	69.8795	7,209.96	67.0413	7,209.96	67.6439	7,209.96	65.2496	7,209.96	65.0062	7,209.96	61.4926	7,209.96	64.5531	7,209.96	66.6636	7,209.96	62.0016	7,209.96	64.8813	7,209.96	63.0632	7,209.96	57.5926	7,209.96	67.3457	7,209.96	55.7366
7,464.84	86.6796	7,464.84	87.4736	7,464.84	86.9715	7,464.84	86.8201	7,464.84	87.5457	7,464.84	86.2064	7,464.84	86.5245	7,464.84	84.7959	7,464.84	85.5806	7,464.84	83.6282	7,464.84	84.112	7,464.84	82.5444	7,464.84	83.1604	7,464.84	79.8235	7,464.84	81.3088	7,464.84	76.403	7,464.84	78.3167	7,464.84	73.565	7,464.84	75.4554	7,464.84	70.904	7,464.84	72.1849	7,464.84	68.1986	7,464.84	68.9643	7,464.84	67.585	7,464.84	67.2162	7,464.84	64.3312	7,464.84	63.677	7,464.84	60.635	7,464.84	65.2453	7,464.84	67.007	7,464.84	62.7748	7,464.84	64.2553	7,464.84	62.7587	7,464.84	58.9747	7,464.84	67.3998	7,464.84	55.668
7,728.52	86.9084	7,728.52	87.473	7,728.52	87.0956	7,728.52	87.0754	7,728.52	87.5645	7,728.52	86.3637	7,728.52	86.7778	7,728.52	84.7575	7,728.52	85.5619	7,728.52	83.9012	7,728.52	84.1399	7,728.52	82.7504	7,728.52	83.5295	7,728.52	79.7635	7,728.52	81.3526	7,728.52	75.6433	7,728.52	77.9933	7,728.52	72.6161	7,728.52	74.6434	7,728.52	70.3303	7,728.52	71.0209	7,728.52	66.1767	7,728.52	67.8521	7,728.52	67.4898	7,728.52	66.5955	7,728.52	62.1382	7,728.52	62.2919	7,728.52	58.5748	7,728.52	64.3398	7,728.52	66.9191	7,728.52	60.5278	7,728.52	61.5754	7,728.52	62.5291	7,728.52	53.2172	7,728.52	66.5212	7,728.52	56.9853
8,000.98	87.6122	8,000.98	87.8085	8,000.98	87.5615	8,000.98	87.4575	8,000.98	87.8689	8,000.98	86.6989	8,000.98	87.2791	8,000.98	85.0947	8,000.98	85.7539	8,000.98	84.4217	8,000.98	84.3833	8,000.98	82.8627	8,000.98	83.7851	8,000.98	79.491	8,000.98	81.3454	8,000.98	75.0915	8,000.98	77.6097	8,000.98	71.8989	8,000.98	73.9832	8,000.98	69.7541	8,000.98	70.3051	8,000.98	64.0753	8,000.98	67.5313	8,000.98	67.0622	8,000.98	66.0291	8,000.98	61.0407	8,000.98	60.8366	8,000.98	59.8684	8,000.98	64.9929	8,000.98	65.8507	8,000.98	60.0724	8,000.98	58.5664	8,000.98	61.5296	8,000.98	54.6211	8,000.98	65.5656	8,000.98	54.8885
8,282.23	87.8717	8,282.23	88.1202	8,282.23	87.7924	8,282.23	88.0521	8,282.23	88.2532	8,282.23	87.0759	8,282.23	87.7907	8,282.23	85.5432	8,282.23	86.1279	8,282.23	84.5825	8,282.23	84.9177	8,282.23	82.6395	8,282.23	83.8539	8,282.23	79.3622	8,282.23	81.1954	8,282.23	75.5272	8,282.23	77.4208	8,282.23	71.5793	8,282.23	74.1918	8,282.23	69.6659	8,282.23	70.3013	8,282.23	62.5967	8,282.23	68.1945	8,282.23	66.9545	8,282.23	66.0087	8,282.23	56.8616	8,282.23	60.4479	8,282.23	59.3963	8,282.23	63.0838	8,282.23	65.7863	8,282.23	60.4634	8,282.23	58.2089	8,282.23	62.4505	8,282.23	56.521	8,282.23	65.7312	8,282.23	54.4102
8,575.2	87.9818	8,575.2	88.059	8,575.2	87.8548	8,575.2	88.0161	8,575.2	88.1634	8,575.2	86.8951	8,575.2	87.7453	8,575.2	85.715	8,575.2	86.0717	8,575.2	84.303	8,575.2	85.0688	8,575.2	82.3248	8,575.2	83.5461	8,575.2	79.216	8,575.2	80.743	8,575.2	75.746	8,575.2	77.3766	8,575.2	71.3509	8,575.2	73.992	8,575.2	69.9516	8,575.2	70.3742	8,575.2	63.2056	8,575.2	68.7479	8,575.2	66.4711	8,575.2	65.4138	8,575.2	58.2428	8,575.2	63.6866	8,575.2	60.2279	8,575.2	62.6523	8,575.2	64.54	8,575.2	60.5811	8,575.2	55.741	8,575.2	63.2803	8,575.2	55.1835	8,575.2	65.0883	8,575.2	56.4395
8,876.95	87.7324	8,876.95	87.7623	8,876.95	87.5351	8,876.95	87.7294	8,876.95	87.8317	8,876.95	86.49	8,876.95	87.2984	8,876.95	85.6586	8,876.95	85.7024	8,876.95	83.7089	8,876.95	84.7808	8,876.95	81.9251	8,876.95	82.6601	8,876.95	79.2193	8,876.95	80.3984	8,876.95	75.9496	8,876.95	77.4282	8,876.95	71.1791	8,876.95	73.6591	8,876.95	69.5981	8,876.95	70.4347	8,876.95	64.8964	8,876.95	68.8648	8,876.95	65.5215	8,876.95	64.7599	8,876.95	58.6384	8,876.95	64.3707	8,876.95	59.0609	8,876.95	62.1111	8,876.95	64.2939	8,876.95	59.3968	8,876.95	53.7084	8,876.95	61.9367	8,876.95	57.3045	8,876.95	63.7938	8,876.95	54.9476
9,190.43	87.3943	9,190.43	87.4818	9,190.43	87.172	9,190.43	87.3099	9,190.43	87.3588	9,190.43	86.1351	9,190.43	86.7869	9,190.43	85.4818	9,190.43	85.4815	9,190.43	83.0841	9,190.43	84.1083	9,190.43	81.579	9,190.43	81.6424	9,190.43	79.1231	9,190.43	80.0533	9,190.43	75.7318	9,190.43	77.3015	9,190.43	70.7101	9,190.43	73.4557	9,190.43	68.7436	9,190.43	69.6731	9,190.43	65.7641	9,190.43	68.576	9,190.43	65.309	9,190.43	63.778	9,190.43	59.1656	9,190.43	64.0919	9,190.43	57.3143	9,190.43	59.7488	9,190.43	62.6224	9,190.43	58.8057	9,190.43	53.8361	9,190.43	61.2246	9,190.43	57.2387	9,190.43	62.4499	9,190.43	55.0287
9,512.7	87.2474	9,512.7	87.4195	9,512.7	86.9924	9,512.7	87.0618	9,512.7	87.0954	9,512.7	86.0956	9,512.7	86.3305	9,512.7	85.0884	9,512.7	85.0533	9,512.7	82.5021	9,512.7	83.1214	9,512.7	81.3556	9,512.7	81.2497	9,512.7	78.9254	9,512.7	79.7113	9,512.7	74.9993	9,512.7	77.2472	9,512.7	70.5205	9,512.7	72.4464	9,512.7	68.116	9,512.7	68.9304	9,512.7	65.5673	9,512.7	67.8547	9,512.7	65.2997	9,512.7	62.6843	9,512.7	58.4334	9,512.7	64.2006	9,512.7	57.4643	9,512.7	59.1617	9,512.7	61.2088	9,512.7	58.6828	9,512.7	53.3406	9,512.7	61.2899	9,512.7	56.1997	9,512.7	61.3801	9,512.7	56.4921
9,849.61	87.3728	9,849.61	87.4262	9,849.61	87.1641	9,849.61	86.8906	9,849.61	86.9968	9,849.61	85.9336	9,849.61	86.0981	9,849.61	84.5391	9,849.61	84.7866	9,849.61	82.378	9,849.61	82.6827	9,849.61	81.1686	9,849.61	81.1802	9,849.61	78.3932	9,849.61	79.2508	9,849.61	74.1118	9,849.61	76.3646	9,849.61	70.0706	9,849.61	71.3143	9,849.61	66.144	9,849.61	67.6173	9,849.61	64.5368	9,849.61	66.4649	9,849.61	63.8572	9,849.61	63.3265	9,849.61	56.6296	9,849.61	63.3402	9,849.61	56.2239	9,849.61	60.0949	9,849.61	59.3806	9,849.61	56.539	9,849.61	47.4091	9,849.61	58.5191	9,849.61	58.4373	9,849.61	60.2678	9,849.61	55.8975
10,195.3	87.7667	10,195.3	87.8088	10,195.3	87.4976	10,195.3	87.1057	10,195.3	87.2219	10,195.3	86.3079	10,195.3	86.3829	10,195.3	84.6314	10,195.3	85.025	10,195.3	82.7293	10,195.3	82.7205	10,195.3	80.9085	10,195.3	81.1093	10,195.3	77.8987	10,195.3	78.2751	10,195.3	74.2383	10,195.3	75.5191	10,195.3	70.2647	10,195.3	71.5183	10,195.3	66.3699	10,195.3	67.7508	10,195.3	64.8607	10,195.3	65.9408	10,195.3	62.9834	10,195.3	64.4569	10,195.3	55.6058	10,195.3	60.2385	10,195.3	55.4008	10,195.3	59.928	10,195.3	59.5596	10,195.3	54.0432	10,195.3	38.5858	10,195.3	53.9537	10,195.3	58.4853	10,195.3	58.3123	10,195.3	57.2467
10,555.7	88.1537	10,555.7	87.8767	10,555.7	87.879	10,555.7	87.1437	10,555.7	87.4191	10,555.7	86.4369	10,555.7	86.5815	10,555.7	84.4849	10,555.7	85.0129	10,555.7	82.8604	10,555.7	82.9678	10,555.7	80.6088	10,555.7	81.0691	10,555.7	77.9067	10,555.7	78.1249	10,555.7	74.5134	10,555.7	76.1288	10,555.7	70.3906	10,555.7	72.5534	10,555.7	66.4877	10,555.7	69.1567	10,555.7	64.9578	10,555.7	66.4157	10,555.7	62.9503	10,555.7	64.3709	10,555.7	53.4861	10,555.7	60.6278	10,555.7	56.485	10,555.7	59.517	10,555.7	59.9542	10,555.7	51.9431	10,555.7	44.466	10,555.7	53.1225	10,555.7	57.9444	10,555.7	59.9569	10,555.7	46.9306
10,927.7	88.2123	10,927.7	87.7424	10,927.7	87.9035	10,927.7	86.9674	10,927.7	87.2992	10,927.7	85.9943	10,927.7	86.5021	10,927.7	84.3093	10,927.7	84.9005	10,927.7	82.5442	10,927.7	83.3331	10,927.7	80.3792	10,927.7	80.7737	10,927.7	78.029	10,927.7	78.6534	10,927.7	74.6997	10,927.7	76.349	10,927.7	70.0908	10,927.7	72.395	10,927.7	66.4228	10,927.7	68.5696	10,927.7	66.0363	10,927.7	65.382	10,927.7	62.6411	10,927.7	64.6199	10,927.7	56.8748	10,927.7	61.8158	10,927.7	55.3892	10,927.7	60.5462	10,927.7	59.1086	10,927.7	51.888	10,927.7	49.3659	10,927.7	51.2026	10,927.7	57.3433	10,927.7	60.4389	10,927.7	49.1393
11,314.5	88.1408	11,314.5	87.6336	11,314.5	87.5756	11,314.5	86.8373	11,314.5	86.9327	11,314.5	85.733	11,314.5	86.0738	11,314.5	84.1504	11,314.5	84.4486	11,314.5	81.9438	11,314.5	82.7024	11,314.5	80.3451	11,314.5	80.2468	11,314.5	77.8022	11,314.5	78.7364	11,314.5	74.2934	11,314.5	76.2509	11,314.5	70.134	11,314.5	72.3237	11,314.5	66.1811	11,314.5	68.2381	11,314.5	65.9259	11,314.5	65.2636	11,314.5	61.9331	11,314.5	63.9305	11,314.5	55.3741	11,314.5	61.9758	11,314.5	54.1579	11,314.5	58.88	11,314.5	58.2403	11,314.5	49.6681	11,314.5	49.7594	11,314.5	52.4124	11,314.5	57.927	11,314.5	58.6547	11,314.5	51.0278
11,712.9	87.8116	11,712.9	87.106	11,712.9	87.3658	11,712.9	86.4781	11,712.9	86.4383	11,712.9	85.1412	11,712.9	85.3552	11,712.9	83.879	11,712.9	83.783	11,712.9	81.5829	11,712.9	82.0496	11,712.9	80.2766	11,712.9	80.0896	11,712.9	77.4716	11,712.9	78.383	11,712.9	74.0213	11,712.9	75.7859	11,712.9	69.9582	11,712.9	71.8058	11,712.9	64.8211	11,712.9	67.4579	11,712.9	64.8913	11,712.9	64.3009	11,712.9	61.2302	11,712.9	63.6147	11,712.9	52.2701	11,712.9	61.1685	11,712.9	53.3622	11,712.9	58.4136	11,712.9	57.2744	11,712.9	50.2638	11,712.9	52.4425	11,712.9	49.8115	11,712.9	58.3203	11,712.9	57.5602	11,712.9	49.0616
12,126	87.8326	12,126	87.2802	12,126	87.3498	12,126	86.383	12,126	86.3818	12,126	85.1315	12,126	85.3726	12,126	83.9149	12,126	84.2091	12,126	82.0396	12,126	82.2627	12,126	80.6969	12,126	80.8005	12,126	77.9508	12,126	78.4497	12,126	74.9054	12,126	76.1134	12,126	70.4772	12,126	72.6092	12,126	66.056	12,126	67.9567	12,126	65.5847	12,126	65.2405	12,126	59.4759	12,126	64.0126	12,126	51.195	12,126	59.6172	12,126	51.996	12,126	56.7655	12,126	57.7672	12,126	50.9911	12,126	57.4454	12,126	55.5344	12,126	59.698	12,126	58.3133	12,126	31.0018
12,553.7	87.7552	12,553.7	87.1154	12,553.7	87.5742	12,553.7	86.297	12,553.7	86.4713	12,553.7	85.3144	12,553.7	85.4629	12,553.7	83.7984	12,553.7	84.3944	12,553.7	82.491	12,553.7	82.8298	12,553.7	80.6012	12,553.7	81.3741	12,553.7	78.7835	12,553.7	79.3214	12,553.7	75.8114	12,553.7	76.8571	12,553.7	70.7863	12,553.7	73.7784	12,553.7	65.5373	12,553.7	68.4518	12,553.7	67.2858	12,553.7	65.8667	12,553.7	58.8443	12,553.7	64.4296	12,553.7	55.949	12,553.7	59.4817	12,553.7	53.6175	12,553.7	56.6497	12,553.7	58.4768	12,553.7	47.6594	12,553.7	58.2538	12,553.7	55.0729	12,553.7	58.4545	12,553.7	61.4295	12,553.7	45.4322
12,996.1	87.7658	12,996.1	87.1359	12,996.1	87.6536	12,996.1	86.014	12,996.1	86.288	12,996.1	85.0725	12,996.1	85.3165	12,996.1	83.4239	12,996.1	84.3768	12,996.1	82.4654	12,996.1	83.2139	12,996.1	80.7102	12,996.1	81.2418	12,996.1	79.0092	12,996.1	79.9954	12,996.1	75.4388	12,996.1	76.6467	12,996.1	70.2679	12,996.1	73.6847	12,996.1	64.3219	12,996.1	67.2973	12,996.1	67.0007	12,996.1	65.2495	12,996.1	58.2619	12,996.1	63.086	12,996.1	57.5346	12,996.1	59.4074	12,996.1	54.0285	12,996.1	57.4173	12,996.1	58.4898	12,996.1	53.546	12,996.1	60.1485	12,996.1	51.3299	12,996.1	56.1467	12,996.1	62.125	12,996.1	51.8938
13,453.1	87.4581	13,453.1	86.9304	13,453.1	87.4717	13,453.1	85.7947	13,453.1	85.9214	13,453.1	85.1416	13,453.1	84.946	13,453.1	83.5444	13,453.1	84.0655	13,453.1	82.5882	13,453.1	83.2381	13,453.1	80.9796	13,453.1	81.2935	13,453.1	78.889	13,453.1	80.0924	13,453.1	74.9987	13,453.1	76.1854	13,453.1	71.2955	13,453.1	73.2206	13,453.1	62.3562	13,453.1	66.7948	13,453.1	67.4375	13,453.1	65.8163	13,453.1	53.4098	13,453.1	62.1761	13,453.1	55.0852	13,453.1	59.0016	13,453.1	54.2048	13,453.1	56.5315	13,453.1	60.1738	13,453.1	56.3354	13,453.1	61.6537	13,453.1	47.1112	13,453.1	50.0389	13,453.1	62.3939	13,453.1	52.0806
13,927.7	86.9829	13,927.7	86.5221	13,927.7	87.0601	13,927.7	85.4845	13,927.7	85.4944	13,927.7	85.095	13,927.7	84.6615	13,927.7	83.5475	13,927.7	84.1291	13,927.7	82.6444	13,927.7	82.9213	13,927.7	80.7924	13,927.7	81.4634	13,927.7	78.613	13,927.7	79.498	13,927.7	75.3976	13,927.7	75.896	13,927.7	71.5923	13,927.7	72.9275	13,927.7	61.3333	13,927.7	66.4013	13,927.7	67.4461	13,927.7	65.1011	13,927.7	54.7474	13,927.7	61.649	13,927.7	58.9683	13,927.7	58.234	13,927.7	52.182	13,927.7	54.8266	13,927.7	60.0579	13,927.7	59.0233	13,927.7	62.2474	13,927.7	52.2216	13,927.7	54.3857	13,927.7	62.6172	13,927.7	55.3551
14,419.9	86.7546	14,419.9	86.1533	14,419.9	87.0104	14,419.9	85.3494	14,419.9	85.4247	14,419.9	85.3868	14,419.9	84.8128	14,419.9	83.5664	14,419.9	84.1224	14,419.9	83.083	14,419.9	83.1474	14,419.9	80.4985	14,419.9	81.4325	14,419.9	78.8032	14,419.9	79.3708	14,419.9	75.9765	14,419.9	76.1654	14,419.9	71.5555	14,419.9	73.4864	14,419.9	62.3431	14,419.9	66.4067	14,419.9	68.1486	14,419.9	64.0303	14,419.9	55.1157	14,419.9	61.9795	14,419.9	60.7727	14,419.9	56.4255	14,419.9	51.0269	14,419.9	52.8013	14,419.9	59.2312	14,419.9	60.3737	14,419.9	62.5854	14,419.9	54.1191	14,419.9	60.216	14,419.9	61.9142	14,419.9	57.0188
14,929.7	86.8847	14,929.7	86.3977	14,929.7	87.3201	14,929.7	85.9238	14,929.7	85.7155	14,929.7	85.8998	14,929.7	85.3053	14,929.7	83.8954	14,929.7	84.4864	14,929.7	83.1788	14,929.7	83.7059	14,929.7	80.5313	14,929.7	81.4528	14,929.7	78.8313	14,929.7	79.903	14,929.7	75.9883	14,929.7	75.9052	14,929.7	71.5099	14,929.7	73.5649	14,929.7	62.1421	14,929.7	66.9202	14,929.7	67.685	14,929.7	63.0266	14,929.7	56.4438	14,929.7	61.6103	14,929.7	61.6615	14,929.7	55.6036	14,929.7	49.6028	14,929.7	51.9194	14,929.7	58.5031	14,929.7	60.9463	14,929.7	63.4038	14,929.7	56.6865	14,929.7	62.8301	14,929.7	61.9499	14,929.7	57.5863
15,454.1	87.1924	15,454.1	86.8869	15,454.1	87.6321	15,454.1	86.6206	15,454.1	86.0119	15,454.1	86.2339	15,454.1	85.7692	15,454.1	84.4462	15,454.1	85.042	15,454.1	83.0003	15,454.1	84.1215	15,454.1	80.6818	15,454.1	81.6454	15,454.1	78.4555	15,454.1	79.4557	15,454.1	75.4454	15,454.1	75.4449	15,454.1	71.7187	15,454.1	73.4361	15,454.1	62.6988	15,454.1	67.4794	15,454.1	67.1681	15,454.1	63.1484	15,454.1	57.4652	15,454.1	61.0557	15,454.1	62.4678	15,454.1	55.5941	15,454.1	51.2682	15,454.1	51.7883	15,454.1	57.8153	15,454.1	61.9784	15,454.1	63.6587	15,454.1	58.6613	15,454.1	64.8936	15,454.1	60.8249	15,454.1	59.2011
15,999	87.2184	15,999	87.0815	15,999	87.6968	15,999	86.9418	15,999	86.3089	15,999	86.3909	15,999	86.233	15,999	84.674	15,999	85.5476	15,999	82.6619	15,999	84.0866	15,999	80.0965	15,999	81.6449	15,999	77.6375	15,999	78.3319	15,999	74.9232	15,999	75.1425	15,999	71.0185	15,999	72.7494	15,999	62.0948	15,999	66.7938	15,999	66.7816	15,999	62.1261	15,999	60.655	15,999	60.1292	15,999	64.1867	15,999	54.5754	15,999	52.2445	15,999	56.1884	15,999	57.2432	15,999	63.7656	15,999	64.6504	15,999	59.5107	15,999	66.7745	15,999	60.2947	15,999	61.0341
16,564.5	87.2251	16,564.5	87.1418	16,564.5	87.6304	16,564.5	86.8927	16,564.5	86.3653	16,564.5	86.1724	16,564.5	86.2037	16,564.5	83.9646	16,564.5	85.0187	16,564.5	81.6578	16,564.5	82.9617	16,564.5	78.6438	16,564.5	79.665	16,564.5	76.5697	16,564.5	75.552	16,564.5	73.7684	16,564.5	72.3244	16,564.5	70.2814	16,564.5	69.6619	16,564.5	61.8256	16,564.5	64.2613	16,564.5	65.8528	16,564.5	58.2024	16,564.5	62.6911	16,564.5	54.935	16,564.5	64.1838	16,564.5	51.3024	16,564.5	53.073	16,564.5	56.6506	16,564.5	59.1642	16,564.5	63.8461	16,564.5	64.2706	16,564.5	58.9345	16,564.5	68.2651	16,564.5	61.8235	16,564.5	62.3781
17,147.5	87.3265	17,147.5	87.4676	17,147.5	87.7642	17,147.5	87.5228	17,147.5	86.7827	17,147.5	86.7897	17,147.5	86.9444	17,147.5	84.2585	17,147.5	85.5581	17,147.5	81.5162	17,147.5	83.1872	17,147.5	78.564	17,147.5	79.6064	17,147.5	76.163	17,147.5	75.1514	17,147.5	73.4822	17,147.5	71.4799	17,147.5	70.7127	17,147.5	69.6547	17,147.5	63.823	17,147.5	65.4273	17,147.5	66.0981	17,147.5	55.2588	17,147.5	64.5583	17,147.5	56.3849	17,147.5	65.5618	17,147.5	51.5663	17,147.5	53.025	17,147.5	57.948	17,147.5	61.5007	17,147.5	65.241	17,147.5	65.2518	17,147.5	60.4257	17,147.5	69.673	17,147.5	62.3505	17,147.5	62.6831
17,753.9	87.6169	17,753.9	88.0528	17,753.9	88.036	17,753.9	88.0755	17,753.9	87.24	17,753.9	87.1461	17,753.9	87.2908	17,753.9	84.0671	17,753.9	85.6013	17,753.9	80.9639	17,753.9	82.9697	17,753.9	77.9387	17,753.9	79.1883	17,753.9	75.2984	17,753.9	72.9827	17,753.9	73.0384	17,753.9	70.3965	17,753.9	70.8109	17,753.9	69.0966	17,753.9	65.0978	17,753.9	65.6765	17,753.9	65.4873	17,753.9	52.7167	17,753.9	66.0023	17,753.9	57.0689	17,753.9	66.288	17,753.9	52.4476	17,753.9	53.8914	17,753.9	59.182	17,753.9	62.1615	17,753.9	66.292	17,753.9	66.8106	17,753.9	62.6364	17,753.9	70.3735	17,753.9	62.6326	17,753.9	62.5222
18,377.9	87.3902	18,377.9	87.9581	18,377.9	87.819	18,377.9	87.8505	18,377.9	87.3045	18,377.9	86.7091	18,377.9	87.1502	18,377.9	83.04	18,377.9	85.139	18,377.9	79.7653	18,377.9	82.116	18,377.9	76.2227	18,377.9	77.6833	18,377.9	74.132	18,377.9	69.9817	18,377.9	71.3673	18,377.9	67.8729	18,377.9	69.6652	18,377.9	67.3808	18,377.9	65.1789	18,377.9	65.6334	18,377.9	63.835	18,377.9	48.0668	18,377.9	66.9293	18,377.9	59.1067	18,377.9	66.2328	18,377.9	50.6307	18,377.9	54.9083	18,377.9	58.7091	18,377.9	61.6429	18,377.9	67.0904	18,377.9	67.9833	18,377.9	63.7696	18,377.9	70.8452	18,377.9	63.6505	18,377.9	62.7212
19,028.3	87.8277	19,028.3	88.1999	19,028.3	88.0581	19,028.3	87.6234	19,028.3	87.7088	19,028.3	85.9708	19,028.3	87.2172	19,028.3	81.8379	19,028.3	84.8677	19,028.3	77.8084	19,028.3	81.4307	19,028.3	74.0868	19,028.3	76.1322	19,028.3	71.6597	19,028.3	66.8559	19,028.3	69.0268	19,028.3	65.6663	19,028.3	68.1395	19,028.3	67.2071	19,028.3	64.4664	19,028.3	66.7182	19,028.3	62.2014	19,028.3	43.0419	19,028.3	67.5744	19,028.3	59.4747	19,028.3	66.5098	19,028.3	42.8372	19,028.3	55.7891	19,028.3	59.6403	19,028.3	62.2132	19,028.3	66.7434	19,028.3	68.0081	19,028.3	63.2749	19,028.3	71.0956	19,028.3	62.3836	19,028.3	62.6672
19,699.2	88.6693	19,699.2	88.8416	19,699.2	88.5776	19,699.2	87.9099	19,699.2	88.2835	19,699.2	85.7472	19,699.2	87.27	19,699.2	81.4172	19,699.2	84.3938	19,699.2	76.4326	19,699.2	80.2553	19,699.2	72.9916	19,699.2	74.2746	19,699.2	69.6818	19,699.2	58.9625	19,699.2	68.0876	19,699.2	63.0876	19,699.2	68.2754	19,699.2	66.6391	19,699.2	65.218	19,699.2	66.904	19,699.2	61.727	19,699.2	50.2007	19,699.2	68.1951	19,699.2	59.8566	19,699.2	66.6278	19,699.2	47.1394	19,699.2	56.9489	19,699.2	60.6135	19,699.2	63.1044	19,699.2	67.1847	19,699.2	67.7691	19,699.2	63.7154	19,699.2	71.099	19,699.2	61.9578	19,699.2	62.782
19,998	88.8407	19,998	88.9421	19,998	88.6938	19,998	87.7772	19,998	88.4444	19,998	85.7673	19,998	87.212	19,998	81.0311	19,998	84.2776	19,998	75.4634	19,998	79.5875	19,998	72.349	19,998	73.7558	19,998	67.9305	19,998	49.5689	19,998	68.2515	19,998	63.3818	19,998	67.4273	19,998	66.4357	19,998	65.1159	19,998	67.4457	19,998	61.9333	19,998	52.648	19,998	67.9986	19,998	62.3391	19,998	65.8097	19,998	50.5248	19,998	59.1855	19,998	62.3906	19,998	61.3153	19,998	68.185	19,998	67.652	19,998	62.9399	19,998	70.9334	19,998	61.4611	19,998	61.076
