"SPL Horizontal"																																																																							
"On-Axis"		"10°"		"-10°"		"20°"		"-20°"		"30°"		"-30°"		"40°"		"-40°"		"50°"		"-50°"		"60°"		"-60°"		"70°"		"-70°"		"80°"		"-80°"		"90°"		"-90°"		"100°"		"-100°"		"110°"		"-110°"		"120°"		"-120°"		"130°"		"-130°"		"140°"		"-140°"		"150°"		"-150°"		"160°"		"-160°"		"170°"		"-170°"		"180°"	
"Frequency [Hz]"	"Sound Pessure Level [dB]  / [2.83V 1m] "	"Frequency [Hz]"	"Sound Pessure Level [dB]  / [2.83V 1m] "	"Frequency [Hz]"	"Sound Pessure Level [dB]  / [2.83V 1m] "	"Frequency [Hz]"	"Sound Pessure Level [dB]  / [2.83V 1m] "	"Frequency [Hz]"	"Sound Pessure Level [dB]  / [2.83V 1m] "	"Frequency [Hz]"	"Sound Pessure Level [dB]  / [2.83V 1m] "	"Frequency [Hz]"	"Sound Pessure Level [dB]  / [2.83V 1m] "	"Frequency [Hz]"	"Sound Pessure Level [dB]  / [2.83V 1m] "	"Frequency [Hz]"	"Sound Pessure Level [dB]  / [2.83V 1m] "	"Frequency [Hz]"	"Sound Pessure Level [dB]  / [2.83V 1m] "	"Frequency [Hz]"	"Sound Pessure Level [dB]  / [2.83V 1m] "	"Frequency [Hz]"	"Sound Pessure Level [dB]  / [2.83V 1m] "	"Frequency [Hz]"	"Sound Pessure Level [dB]  / [2.83V 1m] "	"Frequency [Hz]"	"Sound Pessure Level [dB]  / [2.83V 1m] "	"Frequency [Hz]"	"Sound Pessure Level [dB]  / [2.83V 1m] "	"Frequency [Hz]"	"Sound Pessure Level [dB]  / [2.83V 1m] "	"Frequency [Hz]"	"Sound Pessure Level [dB]  / [2.83V 1m] "	"Frequency [Hz]"	"Sound Pessure Level [dB]  / [2.83V 1m] "	"Frequency [Hz]"	"Sound Pessure Level [dB]  / [2.83V 1m] "	"Frequency [Hz]"	"Sound Pessure Level [dB]  / [2.83V 1m] "	"Frequency [Hz]"	"Sound Pessure Level [dB]  / [2.83V 1m] "	"Frequency [Hz]"	"Sound Pessure Level [dB]  / [2.83V 1m] "	"Frequency [Hz]"	"Sound Pessure Level [dB]  / [2.83V 1m] "	"Frequency [Hz]"	"Sound Pessure Level [dB]  / [2.83V 1m] "	"Frequency [Hz]"	"Sound Pessure Level [dB]  / [2.83V 1m] "	"Frequency [Hz]"	"Sound Pessure Level [dB]  / [2.83V 1m] "	"Frequency [Hz]"	"Sound Pessure Level [dB]  / [2.83V 1m] "	"Frequency [Hz]"	"Sound Pessure Level [dB]  / [2.83V 1m] "	"Frequency [Hz]"	"Sound Pessure Level [dB]  / [2.83V 1m] "	"Frequency [Hz]"	"Sound Pessure Level [dB]  / [2.83V 1m] "	"Frequency [Hz]"	"Sound Pessure Level [dB]  / [2.83V 1m] "	"Frequency [Hz]"	"Sound Pessure Level [dB]  / [2.83V 1m] "	"Frequency [Hz]"	"Sound Pessure Level [dB]  / [2.83V 1m] "	"Frequency [Hz]"	"Sound Pessure Level [dB]  / [2.83V 1m] "	"Frequency [Hz]"	"Sound Pessure Level [dB]  / [2.83V 1m] "	"Frequency [Hz]"	"Sound Pessure Level [dB]  / [2.83V 1m] "
20.5078	54.0252	20.5078	53.9299	20.5078	54.1395	20.5078	53.8574	20.5078	54.2687	20.5078	53.8106	20.5078	54.4083	20.5078	53.7914	20.5078	54.554	20.5078	53.8001	20.5078	54.7013	20.5078	53.8359	20.5078	54.8458	20.5078	53.8966	20.5078	54.9835	20.5078	53.9794	20.5078	55.1103	20.5078	54.081	20.5078	55.2229	20.5078	54.1979	20.5078	55.3179	20.5078	54.327	20.5078	55.3931	20.5078	54.465	20.5078	55.4462	20.5078	54.6086	20.5078	55.4761	20.5078	54.7539	20.5078	55.4817	20.5078	54.8966	20.5078	55.4628	20.5078	55.0322	20.5078	55.4195	20.5078	55.1561	20.5078	55.3528	20.5078	55.2641
21.9727	52.2855	21.9727	52.2668	21.9727	52.3176	21.9727	52.2616	21.9727	52.3625	21.9727	52.2695	21.9727	52.4194	21.9727	52.2898	21.9727	52.4871	21.9727	52.3213	21.9727	52.5641	21.9727	52.3625	21.9727	52.6486	21.9727	52.412	21.9727	52.7383	21.9727	52.4686	21.9727	52.8307	21.9727	52.5312	21.9727	52.9226	21.9727	52.5993	21.9727	53.0107	21.9727	52.6722	21.9727	53.0917	21.9727	52.7497	21.9727	53.162	21.9727	52.831	21.9727	53.2183	21.9727	52.9146	21.9727	53.2575	21.9727	52.9981	21.9727	53.2769	21.9727	53.078	21.9727	53.2752	21.9727	53.15	21.9727	53.2523	21.9727	53.2095
23.4375	53.4638	23.4375	53.5026	23.4375	53.4233	23.4375	53.5404	23.4375	53.3807	23.4375	53.5771	23.4375	53.335	23.4375	53.6122	23.4375	53.2855	23.4375	53.6446	23.4375	53.2317	23.4375	53.6729	23.4375	53.1732	23.4375	53.6949	23.4375	53.1102	23.4375	53.7083	23.4375	53.0436	23.4375	53.7103	23.4375	52.9751	23.4375	53.6984	23.4375	52.9077	23.4375	53.6702	23.4375	52.846	23.4375	53.6237	23.4375	52.796	23.4375	53.5581	23.4375	52.7646	23.4375	53.4735	23.4375	52.7583	23.4375	53.3722	23.4375	52.7817	23.4375	53.2584	23.4375	52.8361	23.4375	53.139	23.4375	52.9185	23.4375	53.0225
24.9023	51.4625	24.9023	51.449	24.9023	51.4883	24.9023	51.4493	24.9023	51.525	24.9023	51.4648	24.9023	51.571	24.9023	51.4965	24.9023	51.6255	24.9023	51.5447	24.9023	51.6874	24.9023	51.6086	24.9023	51.7562	24.9023	51.687	24.9023	51.8313	24.9023	51.7775	24.9023	51.912	24.9023	51.8773	24.9023	51.9977	24.9023	51.9829	24.9023	52.0872	24.9023	52.0909	24.9023	52.1787	24.9023	52.1975	24.9023	52.2698	24.9023	52.2985	24.9023	52.3569	24.9023	52.3899	24.9023	52.4357	24.9023	52.4677	24.9023	52.5017	24.9023	52.5281	24.9023	52.5507	24.9023	52.5679	24.9023	52.5793	24.9023	52.5853
26.3672	53.8368	26.3672	53.868	26.3672	53.8212	26.3672	53.9151	26.3672	53.8209	26.3672	53.9777	26.3672	53.8354	26.3672	54.055	26.3672	53.8643	26.3672	54.1454	26.3672	53.9074	26.3672	54.2462	26.3672	53.9642	26.3672	54.354	26.3672	54.0339	26.3672	54.4649	26.3672	54.1156	26.3672	54.5745	26.3672	54.2078	26.3672	54.6786	26.3672	54.3084	26.3672	54.7736	26.3672	54.4145	26.3672	54.8564	26.3672	54.5229	26.3672	54.9245	26.3672	54.6296	26.3672	54.9764	26.3672	54.7302	26.3672	55.0106	26.3672	54.8208	26.3672	55.0264	26.3672	54.8977	26.3672	55.0231	26.3672	54.9582	26.3672	55.0002
27.832	51.8824	27.832	51.9751	27.832	51.839	27.832	52.1162	27.832	51.8451	27.832	52.3034	27.832	51.9	27.832	52.5329	27.832	52.002	27.832	52.7987	27.832	52.1485	27.832	53.0931	27.832	52.3357	27.832	53.406	27.832	52.558	27.832	53.7264	27.832	52.8089	27.832	54.0421	27.832	53.0808	27.832	54.3412	27.832	53.3654	27.832	54.6124	27.832	53.6544	27.832	54.8459	27.832	53.9397	27.832	55.0341	27.832	54.2136	27.832	55.1715	27.832	54.4692	27.832	55.2549	27.832	54.6998	27.832	55.2837	27.832	54.8995	27.832	55.2591	27.832	55.0627	27.832	55.1842
29.2969	47.5709	29.2969	47.8983	29.2969	47.3807	29.2969	48.3447	29.2969	47.3392	29.2969	48.8871	29.2969	47.4491	29.2969	49.5006	29.2969	47.7036	29.2969	50.1598	29.2969	48.0871	29.2969	50.8403	29.2969	48.5773	29.2969	51.5198	29.2969	49.1483	29.2969	52.1779	29.2969	49.7732	29.2969	52.7968	29.2969	50.4266	29.2969	53.3606	29.2969	51.0858	29.2969	53.856	29.2969	51.7311	29.2969	54.2719	29.2969	52.3463	29.2969	54.5999	29.2969	52.918	29.2969	54.8343	29.2969	53.4357	29.2969	54.9723	29.2969	53.8908	29.2969	55.0136	29.2969	54.2766	29.2969	54.9606	29.2969	54.5871	29.2969	54.8168
30.7617	50.2668	30.7617	50.2949	30.7617	50.3845	30.7617	50.4704	30.7617	50.6369	30.7617	50.7851	30.7617	51.0055	30.7617	51.2212	30.7617	51.468	30.7617	51.7548	30.7617	52.0001	30.7617	52.3578	30.7617	52.5784	30.7617	53.0017	30.7617	53.1814	30.7617	53.6588	30.7617	53.7899	30.7617	54.3047	30.7617	54.3869	30.7617	54.9181	30.7617	54.9578	30.7617	55.4819	30.7617	55.4892	30.7617	55.9832	30.7617	55.9699	30.7617	56.4131	30.7617	56.39	30.7617	56.7663	30.7617	56.7418	30.7617	57.0402	30.7617	57.0198	30.7617	57.2345	30.7617	57.2205	30.7617	57.3494	30.7617	57.3425	30.7617	57.3854
32.2266	46.2136	32.2266	46.529	32.2266	46.0164	32.2266	46.9264	32.2266	45.9985	32.2266	47.3934	32.2266	46.2269	32.2266	47.9317	32.2266	46.7384	32.2266	48.5455	32.2266	47.5099	32.2266	49.2315	32.2266	48.466	32.2266	49.9754	32.2266	49.5138	32.2266	50.7534	32.2266	50.5731	32.2266	51.5371	32.2266	51.5873	32.2266	52.2991	32.2266	52.521	32.2266	53.0163	32.2266	53.3536	32.2266	53.6714	32.2266	54.073	32.2266	54.2527	32.2266	54.6724	32.2266	54.7523	32.2266	55.1484	32.2266	55.1645	32.2266	55.4998	32.2266	55.4845	32.2266	55.7275	32.2266	55.7069	32.2266	55.8345	32.2266	55.8257
33.6914	40.2989	33.6914	40.0471	33.6914	40.4529	33.6914	39.6073	33.6914	40.8291	33.6914	39.1963	33.6914	41.8123	33.6914	39.4216	33.6914	43.4732	33.6914	40.8129	33.6914	45.5014	33.6914	43.0394	33.6914	47.5622	33.6914	45.4412	33.6914	49.4782	33.6914	47.6776	33.6914	51.1886	33.6914	49.658	33.6914	52.6847	33.6914	51.3822	33.6914	53.9763	33.6914	52.8725	33.6914	55.0767	33.6914	54.1516	33.6914	55.9981	33.6914	55.2372	33.6914	56.7493	33.6914	56.1416	33.6914	57.3357	33.6914	56.8725	33.6914	57.7597	33.6914	57.4341	33.6914	58.0219	33.6914	57.8286	33.6914	58.1215	33.6914	58.0574
35.1563	53.1905	35.1563	53.0282	35.1563	53.3072	35.1563	52.8202	35.1563	53.405	35.1563	52.5986	35.1563	53.5327	35.1563	52.4329	35.1563	53.7522	35.1563	52.4256	35.1563	54.1206	35.1563	52.6815	35.1563	54.6665	35.1563	53.2518	35.1563	55.3765	35.1563	54.0982	35.1563	56.2015	35.1563	55.1179	35.1563	57.0787	35.1563	56.1992	35.1563	57.9498	35.1563	57.2564	35.1563	58.77	35.1563	58.2349	35.1563	59.5081	35.1563	59.1035	35.1563	60.1432	35.1563	59.8448	35.1563	60.6612	35.1563	60.4494	35.1563	61.0523	35.1563	60.9119	35.1563	61.3093	35.1563	61.2294	35.1563	61.4267	35.1563	61.4008
36.6211	63.3825	36.6211	63.3578	36.6211	63.4146	36.6211	63.3464	36.6211	63.4527	36.6211	63.3582	36.6211	63.4998	36.6211	63.406	36.6211	63.5629	36.6211	63.5027	36.6211	63.6516	36.6211	63.6592	36.6211	63.7765	36.6211	63.8807	36.6211	63.9469	36.6211	64.1648	36.6211	64.1684	36.6211	64.5013	36.6211	64.4403	36.6211	64.8734	36.6211	64.7556	36.6211	65.2604	36.6211	65.1009	36.6211	65.6408	36.6211	65.4584	36.6211	65.9939	36.6211	65.8084	36.6211	66.3019	36.6211	66.1311	36.6211	66.5499	36.6211	66.4088	36.6211	66.7268	36.6211	66.6265	36.6211	66.825	36.6211	66.773	36.6211	66.8404
38.0859	65.2401	38.0859	65.1932	38.0859	65.2527	38.0859	65.1141	38.0859	65.2332	38.0859	65.0089	38.0859	65.1874	38.0859	64.8882	38.0859	65.1253	38.0859	64.7671	38.0859	65.0602	38.0859	64.6647	38.0859	65.0085	38.0859	64.6016	38.0859	64.9875	38.0859	64.5973	38.0859	65.0129	38.0859	64.6651	38.0859	65.0952	38.0859	64.8086	38.0859	65.2366	38.0859	65.0196	38.0859	65.4293	38.0859	65.28	38.0859	65.6569	38.0859	65.5652	38.0859	65.8969	38.0859	65.8487	38.0859	66.1254	38.0859	66.1057	38.0859	66.3197	38.0859	66.3156	38.0859	66.4613	38.0859	66.4629	38.0859	66.5366	38.0859	66.5378
39.5508	71.4623	39.5508	71.4331	39.5508	71.463	39.5508	71.3756	39.5508	71.4366	39.5508	71.2922	39.5508	71.3864	39.5508	71.1871	39.5508	71.3175	39.5508	71.067	39.5508	71.2366	39.5508	70.9411	39.5508	71.1524	39.5508	70.821	39.5508	71.0743	39.5508	70.7195	39.5508	71.012	39.5508	70.6495	39.5508	70.9738	39.5508	70.6213	39.5508	70.965	39.5508	70.6399	39.5508	70.9868	39.5508	70.7033	39.5508	71.0355	39.5508	70.8027	39.5508	71.1029	39.5508	70.9233	39.5508	71.1773	39.5508	71.0483	39.5508	71.2457	39.5508	71.1611	39.5508	71.2954	39.5508	71.2483	39.5508	71.3162	39.5508	71.3011
41.0156	71.9677	41.0156	71.9795	41.0156	71.966	41.0156	72.004	41.0156	71.9741	41.0156	72.0454	41.0156	71.9938	41.0156	72.1089	41.0156	72.0288	41.0156	72.1999	41.0156	72.0844	41.0156	72.3225	41.0156	72.1664	41.0156	72.4784	41.0156	72.2799	41.0156	72.6663	41.0156	72.4281	41.0156	72.8812	41.0156	72.6109	41.0156	73.1144	41.0156	72.8245	41.0156	73.3551	41.0156	73.0607	41.0156	73.5909	41.0156	73.3081	41.0156	73.8093	41.0156	73.5531	41.0156	73.9989	41.0156	73.7816	41.0156	74.1501	41.0156	73.9808	41.0156	74.2551	41.0156	74.1396	41.0156	74.3084	41.0156	74.25	41.0156	74.307
42.4805	76.5923	42.4805	76.5888	42.4805	76.6026	42.4805	76.5923	42.4805	76.6203	42.4805	76.604	42.4805	76.647	42.4805	76.6261	42.4805	76.6847	42.4805	76.6616	42.4805	76.7356	42.4805	76.7136	42.4805	76.8016	42.4805	76.7848	42.4805	76.8841	42.4805	76.8769	42.4805	76.9834	42.4805	76.9897	42.4805	77.0983	42.4805	77.1207	42.4805	77.2261	42.4805	77.265	42.4805	77.3624	42.4805	77.4156	42.4805	77.5013	42.4805	77.564	42.4805	77.6359	42.4805	77.7015	42.4805	77.7585	42.4805	77.8197	42.4805	77.8618	42.4805	77.9114	42.4805	77.9391	42.4805	77.9713	42.4805	77.985	42.4805	77.9962
43.9453	78.4715	43.9453	78.468	43.9453	78.4876	43.9453	78.4784	43.9453	78.5155	43.9453	78.5044	43.9453	78.5551	43.9453	78.5479	43.9453	78.6066	43.9453	78.6105	43.9453	78.6704	43.9453	78.6936	43.9453	78.7471	43.9453	78.7974	43.9453	78.8371	43.9453	78.9205	43.9453	78.9403	43.9453	79.0601	43.9453	79.0558	43.9453	79.2112	43.9453	79.1817	43.9453	79.3673	43.9453	79.3149	43.9453	79.5209	43.9453	79.4511	43.9453	79.6638	43.9453	79.5848	43.9453	79.7887	43.9453	79.7099	43.9453	79.8888	43.9453	79.8197	43.9453	79.9592	43.9453	79.9081	43.9453	79.9967	43.9453	79.9695	43.9453	79.9999
45.4102	79.9319	45.4102	79.9458	45.4102	79.9256	45.4102	79.9674	45.4102	79.9267	45.4102	79.9974	45.4102	79.9352	45.4102	80.036	45.4102	79.9512	45.4102	80.0834	45.4102	79.9754	45.4102	80.1395	45.4102	80.008	45.4102	80.2037	45.4102	80.0496	45.4102	80.2749	45.4102	80.1005	45.4102	80.3513	45.4102	80.1606	45.4102	80.4305	45.4102	80.2291	45.4102	80.5095	45.4102	80.3047	45.4102	80.5848	45.4102	80.3851	45.4102	80.6527	45.4102	80.4672	45.4102	80.7095	45.4102	80.5474	45.4102	80.7518	45.4102	80.6215	45.4102	80.7768	45.4102	80.6856	45.4102	80.7826	45.4102	80.7356	45.4102	80.7686
46.875	82.1165	46.875	82.1261	46.875	82.1122	46.875	82.1408	46.875	82.1134	46.875	82.1606	46.875	82.1203	46.875	82.1858	46.875	82.1334	46.875	82.2163	46.875	82.1532	46.875	82.2521	46.875	82.18	46.875	82.2931	46.875	82.2141	46.875	82.3389	46.875	82.2555	46.875	82.3887	46.875	82.3037	46.875	82.4414	46.875	82.3576	46.875	82.4954	46.875	82.4156	46.875	82.5489	46.875	82.4757	46.875	82.5993	46.875	82.5351	46.875	82.6442	46.875	82.5908	46.875	82.6809	46.875	82.6397	46.875	82.7071	46.875	82.6791	46.875	82.7208	46.875	82.7066	46.875	82.7208
48.3398	84.0379	48.3398	84.0509	48.3398	84.0309	48.3398	84.0697	48.3398	84.0303	48.3398	84.0942	48.3398	84.0363	48.3398	84.124	48.3398	84.049	48.3398	84.159	48.3398	84.0686	48.3398	84.1987	48.3398	84.0953	48.3398	84.2425	48.3398	84.1288	48.3398	84.2899	48.3398	84.1689	48.3398	84.3397	48.3398	84.215	48.3398	84.3908	48.3398	84.2661	48.3398	84.4416	48.3398	84.3207	48.3398	84.4902	48.3398	84.3771	48.3398	84.5345	48.3398	84.4332	48.3398	84.5724	48.3398	84.4864	48.3398	84.6018	48.3398	84.5342	48.3398	84.6206	48.3398	84.5741	48.3398	84.6276	48.3398	84.6039	48.3398	84.622
51.2695	86.5401	51.2695	86.5413	51.2695	86.5435	51.2695	86.5473	51.2695	86.5515	51.2695	86.558	51.2695	86.5642	51.2695	86.5734	51.2695	86.5813	51.2695	86.5936	51.2695	86.6028	51.2695	86.6184	51.2695	86.6286	51.2695	86.6477	51.2695	86.6584	51.2695	86.6811	51.2695	86.6917	51.2695	86.7178	51.2695	86.728	51.2695	86.7571	51.2695	86.7664	51.2695	86.7978	51.2695	86.8059	51.2695	86.8383	51.2695	86.8452	51.2695	86.8771	51.2695	86.8826	51.2695	86.9122	51.2695	86.9164	51.2695	86.9419	51.2695	86.9449	51.2695	86.9646	51.2695	86.9665	51.2695	86.9789	51.2695	86.9799	51.2695	86.9841
52.7344	87.6014	52.7344	87.6027	52.7344	87.6059	52.7344	87.6099	52.7344	87.6162	52.7344	87.623	52.7344	87.632	52.7344	87.6419	52.7344	87.6532	52.7344	87.6662	52.7344	87.6794	52.7344	87.6957	52.7344	87.7102	52.7344	87.7298	52.7344	87.7452	52.7344	87.7679	52.7344	87.7836	52.7344	87.809	52.7344	87.8246	52.7344	87.852	52.7344	87.8671	52.7344	87.8957	52.7344	87.9099	52.7344	87.9385	52.7344	87.9516	52.7344	87.9789	52.7344	87.9905	52.7344	88.0151	52.7344	88.025	52.7344	88.0457	52.7344	88.0535	52.7344	88.0692	52.7344	88.0745	52.7344	88.0843	52.7344	88.087	52.7344	88.0904
54.1992	88.5266	54.1992	88.5277	54.1992	88.5312	54.1992	88.5346	54.1992	88.5415	54.1992	88.5474	54.1992	88.5572	54.1992	88.5658	54.1992	88.578	54.1992	88.5896	54.1992	88.6035	54.1992	88.6184	54.1992	88.6333	54.1992	88.6516	54.1992	88.6667	54.1992	88.6886	54.1992	88.7031	54.1992	88.7282	54.1992	88.7417	54.1992	88.7695	54.1992	88.7814	54.1992	88.8112	54.1992	88.8212	54.1992	88.8517	54.1992	88.8598	54.1992	88.8896	54.1992	88.8958	54.1992	88.9234	54.1992	88.9277	54.1992	88.9514	54.1992	88.9543	54.1992	88.9726	54.1992	88.9743	54.1992	88.9858	54.1992	88.9866	54.1992	88.9905
55.6641	89.426	55.6641	89.4299	55.6641	89.4277	55.6641	89.4395	55.6641	89.4349	55.6641	89.4544	55.6641	89.4476	55.6641	89.4745	55.6641	89.4653	55.6641	89.4992	55.6641	89.4876	55.6641	89.528	55.6641	89.5141	55.6641	89.5602	55.6641	89.5441	55.6641	89.595	55.6641	89.5768	55.6641	89.6313	55.6641	89.6115	55.6641	89.6682	55.6641	89.6472	55.6641	89.7044	55.6641	89.6829	55.6641	89.7387	55.6641	89.7175	55.6641	89.7699	55.6641	89.75	55.6641	89.7968	55.6641	89.7791	55.6641	89.8182	55.6641	89.8039	55.6641	89.8334	55.6641	89.8233	55.6641	89.8416	55.6641	89.8364	55.6641	89.8426
58.5938	90.852	58.5938	90.8573	58.5938	90.8515	58.5938	90.8673	58.5938	90.8558	58.5938	90.8815	58.5938	90.8648	58.5938	90.8996	58.5938	90.8784	58.5938	90.9209	58.5938	90.896	58.5938	90.945	58.5938	90.9172	58.5938	90.9711	58.5938	90.9413	58.5938	90.9985	58.5938	90.9675	58.5938	91.0263	58.5938	90.995	58.5938	91.0538	58.5938	91.0231	58.5938	91.0801	58.5938	91.0508	58.5938	91.1044	58.5938	91.0773	58.5938	91.126	58.5938	91.1019	58.5938	91.1441	58.5938	91.1237	58.5938	91.1581	58.5938	91.1422	58.5938	91.1677	58.5938	91.1567	58.5938	91.1724	58.5938	91.1668	58.5938	91.1721
60.0586	91.4305	60.0586	91.4341	60.0586	91.4308	60.0586	91.4415	60.0586	91.435	60.0586	91.4524	60.0586	91.443	60.0586	91.4663	60.0586	91.4546	60.0586	91.483	60.0586	91.4694	60.0586	91.5018	60.0586	91.487	60.0586	91.5222	60.0586	91.5068	60.0586	91.5436	60.0586	91.5281	60.0586	91.5654	60.0586	91.5503	60.0586	91.5868	60.0586	91.5726	60.0586	91.6074	60.0586	91.5944	60.0586	91.6265	60.0586	91.6151	60.0586	91.6436	60.0586	91.6339	60.0586	91.6582	60.0586	91.6503	60.0586	91.6698	60.0586	91.6639	60.0586	91.6781	60.0586	91.6741	60.0586	91.6828	60.0586	91.6808	60.0586	91.6837
62.9883	92.2177	62.9883	92.2204	62.9883	92.2188	62.9883	92.2266	62.9883	92.2236	62.9883	92.2361	62.9883	92.2318	62.9883	92.2487	62.9883	92.2433	62.9883	92.2639	62.9883	92.2577	62.9883	92.2811	62.9883	92.2744	62.9883	92.2998	62.9883	92.2929	62.9883	92.3193	62.9883	92.3127	62.9883	92.3391	62.9883	92.333	62.9883	92.3586	62.9883	92.3532	62.9883	92.3771	62.9883	92.3726	62.9883	92.3943	62.9883	92.3908	62.9883	92.4096	62.9883	92.4071	62.9883	92.4227	62.9883	92.421	62.9883	92.4333	62.9883	92.4322	62.9883	92.441	62.9883	92.4404	62.9883	92.4457	62.9883	92.4454	62.9883	92.4472
64.4531	92.5562	64.4531	92.5593	64.4531	92.5566	64.4531	92.5656	64.4531	92.5603	64.4531	92.5749	64.4531	92.5673	64.4531	92.5868	64.4531	92.5773	64.4531	92.6009	64.4531	92.5899	64.4531	92.6166	64.4531	92.6046	64.4531	92.6333	64.4531	92.6208	64.4531	92.6504	64.4531	92.638	64.4531	92.6674	64.4531	92.6555	64.4531	92.6838	64.4531	92.6729	64.4531	92.6992	64.4531	92.6895	64.4531	92.713	64.4531	92.7049	64.4531	92.7252	64.4531	92.7186	64.4531	92.7353	64.4531	92.7303	64.4531	92.7433	64.4531	92.7398	64.4531	92.749	64.4531	92.7468	64.4531	92.7523	64.4531	92.7512	64.4531	92.7531
67.3828	93.1256	67.3828	93.1269	67.3828	93.1268	67.3828	93.1305	67.3828	93.1303	67.3828	93.1363	67.3828	93.1362	67.3828	93.1439	67.3828	93.144	67.3828	93.1529	67.3828	93.1535	67.3828	93.1629	67.3828	93.1642	67.3828	93.1734	67.3828	93.1755	67.3828	93.184	67.3828	93.1871	67.3828	93.1943	67.3828	93.1984	67.3828	93.2039	67.3828	93.2089	67.3828	93.2127	67.3828	93.2183	67.3828	93.2204	67.3828	93.2264	67.3828	93.227	67.3828	93.2329	67.3828	93.2325	67.3828	93.2379	67.3828	93.2369	67.3828	93.2414	67.3828	93.2402	67.3828	93.2435	67.3828	93.2426	67.3828	93.2443	67.3828	93.244
68.8477	93.3306	68.8477	93.3318	68.8477	93.3321	68.8477	93.3356	68.8477	93.3365	68.8477	93.3419	68.8477	93.3436	68.8477	93.3502	68.8477	93.3531	68.8477	93.3602	68.8477	93.3647	68.8477	93.3714	68.8477	93.3777	68.8477	93.3833	68.8477	93.3918	68.8477	93.3955	68.8477	93.4061	68.8477	93.4075	68.8477	93.4202	68.8477	93.4191	68.8477	93.4334	68.8477	93.4299	68.8477	93.4452	68.8477	93.4397	68.8477	93.4553	68.8477	93.4484	68.8477	93.4634	68.8477	93.4559	68.8477	93.4694	68.8477	93.4623	68.8477	93.4733	68.8477	93.4675	68.8477	93.4753	68.8477	93.4715	68.8477	93.4756	68.8477	93.4742
71.7773	93.7303	71.7773	93.736	71.7773	93.7265	71.7773	93.7431	71.7773	93.7248	71.7773	93.7515	71.7773	93.7253	71.7773	93.7608	71.7773	93.7279	71.7773	93.7705	71.7773	93.7328	71.7773	93.7803	71.7773	93.7396	71.7773	93.7899	71.7773	93.7482	71.7773	93.7988	71.7773	93.7581	71.7773	93.807	71.7773	93.7689	71.7773	93.8141	71.7773	93.78	71.7773	93.8201	71.7773	93.7909	71.7773	93.825	71.7773	93.8012	71.7773	93.8289	71.7773	93.8105	71.7773	93.8318	71.7773	93.8184	71.7773	93.8338	71.7773	93.8247	71.7773	93.835	71.7773	93.8295	71.7773	93.8353	71.7773	93.8327	71.7773	93.8346
74.707	94.1185	74.707	94.1117	74.707	94.1265	74.707	94.106	74.707	94.1354	74.707	94.1016	74.707	94.145	74.707	94.0985	74.707	94.1552	74.707	94.0967	74.707	94.1655	74.707	94.0961	74.707	94.1758	74.707	94.0967	74.707	94.1856	74.707	94.0985	74.707	94.1945	74.707	94.1014	74.707	94.2022	74.707	94.1055	74.707	94.2082	74.707	94.1107	74.707	94.2121	74.707	94.1169	74.707	94.2136	74.707	94.1243	74.707	94.2125	74.707	94.1326	74.707	94.2088	74.707	94.142	74.707	94.2026	74.707	94.1522	74.707	94.1944	74.707	94.163	74.707	94.1847	74.707	94.174
77.6367	94.3569	77.6367	94.367	77.6367	94.3465	77.6367	94.3765	77.6367	94.3362	77.6367	94.3852	77.6367	94.3262	77.6367	94.3928	77.6367	94.3169	77.6367	94.3991	77.6367	94.3088	77.6367	94.4039	77.6367	94.3021	77.6367	94.4071	77.6367	94.2973	77.6367	94.4087	77.6367	94.2946	77.6367	94.4084	77.6367	94.2942	77.6367	94.4066	77.6367	94.2961	77.6367	94.4031	77.6367	94.3002	77.6367	94.3984	77.6367	94.3062	77.6367	94.3926	77.6367	94.3136	77.6367	94.3861	77.6367	94.3221	77.6367	94.3791	77.6367	94.3309	77.6367	94.3719	77.6367	94.3398	77.6367	94.3644	77.6367	94.3484	77.6367	94.3566
79.1016	94.5686	79.1016	94.5881	79.1016	94.5479	79.1016	94.6062	79.1016	94.5266	79.1016	94.6225	79.1016	94.505	79.1016	94.6368	79.1016	94.4836	79.1016	94.6488	79.1016	94.463	79.1016	94.6581	79.1016	94.4436	79.1016	94.6643	79.1016	94.4263	79.1016	94.6672	79.1016	94.4116	79.1016	94.6665	79.1016	94.4002	79.1016	94.6618	79.1016	94.3928	79.1016	94.653	79.1016	94.3901	79.1016	94.6401	79.1016	94.3923	79.1016	94.6233	79.1016	94.3997	79.1016	94.603	79.1016	94.4122	79.1016	94.5798	79.1016	94.4293	79.1016	94.5543	79.1016	94.4504	79.1016	94.5276	79.1016	94.4746	79.1016	94.5007
82.0313	95.0419	82.0313	95.0571	82.0313	95.0239	82.0313	95.0694	82.0313	95.0036	82.0313	95.0786	82.0313	94.9812	82.0313	95.0846	82.0313	94.9573	82.0313	95.0872	82.0313	94.9324	82.0313	95.0865	82.0313	94.9071	82.0313	95.0825	82.0313	94.8824	82.0313	95.0751	82.0313	94.859	82.0313	95.0643	82.0313	94.8378	82.0313	95.0503	82.0313	94.8198	82.0313	95.0332	82.0313	94.806	82.0313	95.0131	82.0313	94.7971	82.0313	94.9903	82.0313	94.7938	82.0313	94.9654	82.0313	94.7963	82.0313	94.939	82.0313	94.8048	82.0313	94.9119	82.0313	94.8187	82.0313	94.8852	82.0313	94.8374	82.0313	94.86
84.9609	95.3237	84.9609	95.3287	84.9609	95.3155	84.9609	95.3304	84.9609	95.3042	84.9609	95.329	84.9609	95.29	84.9609	95.3245	84.9609	95.2733	84.9609	95.3171	84.9609	95.2545	84.9609	95.3072	84.9609	95.2341	84.9609	95.2951	84.9609	95.2128	84.9609	95.2809	84.9609	95.1913	84.9609	95.265	84.9609	95.1703	84.9609	95.2478	84.9609	95.1505	84.9609	95.2296	84.9609	95.1328	84.9609	95.2106	84.9609	95.1178	84.9609	95.1914	84.9609	95.1063	84.9609	95.1723	84.9609	95.0987	84.9609	95.154	84.9609	95.0953	84.9609	95.1371	84.9609	95.0961	84.9609	95.1222	84.9609	95.1012	84.9609	95.11
87.8906	95.6009	87.8906	95.6046	87.8906	95.5951	87.8906	95.6061	87.8906	95.5873	87.8906	95.6058	87.8906	95.5776	87.8906	95.6038	87.8906	95.5663	87.8906	95.6003	87.8906	95.5539	87.8906	95.5958	87.8906	95.541	87.8906	95.5905	87.8906	95.528	87.8906	95.5846	87.8906	95.5156	87.8906	95.5783	87.8906	95.5044	87.8906	95.5716	87.8906	95.4949	87.8906	95.5647	87.8906	95.4876	87.8906	95.5575	87.8906	95.4829	87.8906	95.5498	87.8906	95.4808	87.8906	95.5416	87.8906	95.4815	87.8906	95.5329	87.8906	95.4847	87.8906	95.5238	87.8906	95.4901	87.8906	95.5146	87.8906	95.4972	87.8906	95.5055
90.8203	96.0062	90.8203	96.0117	90.8203	95.9966	90.8203	96.0131	90.8203	95.9829	90.8203	96.0109	90.8203	95.9653	90.8203	96.0057	90.8203	95.9446	90.8203	95.9984	90.8203	95.9215	90.8203	95.9895	90.8203	95.8973	90.8203	95.9799	90.8203	95.8733	90.8203	95.9704	90.8203	95.8509	90.8203	95.9613	90.8203	95.8316	90.8203	95.9529	90.8203	95.8166	90.8203	95.9452	90.8203	95.807	90.8203	95.9379	90.8203	95.8032	90.8203	95.9305	90.8203	95.8054	90.8203	95.9224	90.8203	95.8129	90.8203	95.9128	90.8203	95.8249	90.8203	95.9014	90.8203	95.8398	90.8203	95.8879	90.8203	95.8561	90.8203	95.8726
95.2148	96.8354	95.2148	96.8048	95.2148	96.8575	95.2148	96.7664	95.2148	96.8703	95.2148	96.7211	95.2148	96.8735	95.2148	96.6699	95.2148	96.8666	95.2148	96.6138	95.2148	96.8495	95.2148	96.5543	95.2148	96.8223	95.2148	96.4927	95.2148	96.7852	95.2148	96.4305	95.2148	96.7388	95.2148	96.3693	95.2148	96.684	95.2148	96.311	95.2148	96.6221	95.2148	96.2572	95.2148	96.5549	95.2148	96.2099	95.2148	96.4845	95.2148	96.1707	95.2148	96.4135	95.2148	96.1413	95.2148	96.3446	95.2148	96.123	95.2148	96.2809	95.2148	96.1172	95.2148	96.2249	95.2148	96.1246	95.2148	96.1792	95.2148	96.1453
98.1445	97.0047	98.1445	96.9976	98.1445	97.0089	98.1445	96.9876	98.1445	97.01	98.1445	96.9751	98.1445	97.0082	98.1445	96.9606	98.1445	97.0038	98.1445	96.9446	98.1445	96.997	98.1445	96.9279	98.1445	96.9883	98.1445	96.9109	98.1445	96.9782	98.1445	96.8945	98.1445	96.9668	98.1445	96.8791	98.1445	96.9546	98.1445	96.8653	98.1445	96.9417	98.1445	96.8535	98.1445	96.9284	98.1445	96.8441	98.1445	96.9148	98.1445	96.8372	98.1445	96.9011	98.1445	96.8329	98.1445	96.8875	98.1445	96.8315	98.1445	96.8745	98.1445	96.8327	98.1445	96.8625	98.1445	96.8367	98.1445	96.8519	98.1445	96.8432
101.074	97.3337	101.074	97.3278	101.074	97.3354	101.074	97.3178	101.074	97.333	101.074	97.3042	101.074	97.3265	101.074	97.2877	101.074	97.3164	101.074	97.2689	101.074	97.3034	101.074	97.2488	101.074	97.288	101.074	97.2283	101.074	97.2712	101.074	97.2084	101.074	97.2535	101.074	97.1899	101.074	97.236	101.074	97.1735	101.074	97.219	101.074	97.1597	101.074	97.2033	101.074	97.1488	101.074	97.1891	101.074	97.1409	101.074	97.1765	101.074	97.1358	101.074	97.1656	101.074	97.1332	101.074	97.1564	101.074	97.1328	101.074	97.1487	101.074	97.1344	101.074	97.1424	101.074	97.1376
105.469	97.8059	105.469	97.8028	105.469	97.8024	105.469	97.793	105.469	97.7924	105.469	97.7771	105.469	97.7767	105.469	97.7558	105.469	97.7562	105.469	97.7303	105.469	97.7321	105.469	97.702	105.469	97.7057	105.469	97.6723	105.469	97.6786	105.469	97.6427	105.469	97.6521	105.469	97.6148	105.469	97.6274	105.469	97.5897	105.469	97.6055	105.469	97.5685	105.469	97.5869	105.469	97.5516	105.469	97.5719	105.469	97.5394	105.469	97.5601	105.469	97.5315	105.469	97.5511	105.469	97.5275	105.469	97.5443	105.469	97.5266	105.469	97.5388	105.469	97.5278	105.469	97.5343	105.469	97.5306
108.398	98.17	108.398	98.1642	108.398	98.1669	108.398	98.15	108.398	98.155	108.398	98.1283	108.398	98.1347	108.398	98.1001	108.398	98.1069	108.398	98.0669	108.398	98.0727	108.398	98.0303	108.398	98.0338	108.398	97.9918	108.398	97.992	108.398	97.9531	108.398	97.9493	108.398	97.9155	108.398	97.9077	108.398	97.8803	108.398	97.869	108.398	97.8485	108.398	97.8345	108.398	97.8206	108.398	97.8054	108.398	97.797	108.398	97.782	108.398	97.7779	108.398	97.7644	108.398	97.763	108.398	97.7521	108.398	97.7521	108.398	97.7445	108.398	97.745	108.398	97.7411	108.398	97.7413
112.793	98.5997	112.793	98.5836	112.793	98.6089	112.793	98.5616	112.793	98.6109	112.793	98.5345	112.793	98.6056	112.793	98.504	112.793	98.5933	112.793	98.4715	112.793	98.5747	112.793	98.4388	112.793	98.5508	112.793	98.4075	112.793	98.5227	112.793	98.3792	112.793	98.492	112.793	98.355	112.793	98.4601	112.793	98.3355	112.793	98.4286	112.793	98.321	112.793	98.3989	112.793	98.3109	112.793	98.3724	112.793	98.3044	112.793	98.3497	112.793	98.3007	112.793	98.3316	112.793	98.2988	112.793	98.318	112.793	98.298	112.793	98.3086	112.793	98.2981	112.793	98.3027	112.793	98.2995
117.188	99.0759	117.188	99.0645	117.188	99.079	117.188	99.0452	117.188	99.0743	117.188	99.0189	117.188	99.0625	117.188	98.987	117.188	99.0449	117.188	98.9512	117.188	99.023	117.188	98.914	117.188	98.9986	117.188	98.8776	117.188	98.9735	117.188	98.8444	117.188	98.9492	117.188	98.8165	117.188	98.9269	117.188	98.7956	117.188	98.9075	117.188	98.7822	117.188	98.8914	117.188	98.7765	117.188	98.8783	117.188	98.7776	117.188	98.8679	117.188	98.7839	117.188	98.8593	117.188	98.7936	117.188	98.8517	117.188	98.8049	117.188	98.8442	117.188	98.8163	117.188	98.8361	117.188	98.8269
120.117	99.403	120.117	99.3968	120.117	99.3993	120.117	99.3809	120.117	99.386	120.117	99.3562	120.117	99.3641	120.117	99.324	120.117	99.335	120.117	99.286	120.117	99.3007	120.117	99.2445	120.117	99.2634	120.117	99.2016	120.117	99.2256	120.117	99.16	120.117	99.1897	120.117	99.1219	120.117	99.1577	120.117	99.0893	120.117	99.131	120.117	99.0637	120.117	99.1102	120.117	99.0458	120.117	99.0951	120.117	99.0355	120.117	99.0848	120.117	99.0322	120.117	99.0779	120.117	99.0342	120.117	99.0727	120.117	99.0399	120.117	99.0677	120.117	99.0473	120.117	99.0619	120.117	99.055
124.512	99.6616	124.512	99.6415	124.512	99.6698	124.512	99.6103	124.512	99.6658	124.512	99.5696	124.512	99.6501	124.512	99.5213	124.512	99.6237	124.512	99.4678	124.512	99.5882	124.512	99.4118	124.512	99.5456	124.512	99.3561	124.512	99.4985	124.512	99.3035	124.512	99.4494	124.512	99.2564	124.512	99.4012	124.512	99.2168	124.512	99.3562	124.512	99.186	124.512	99.3163	124.512	99.1646	124.512	99.2826	124.512	99.1522	124.512	99.2554	124.512	99.148	124.512	99.2338	124.512	99.1503	124.512	99.2168	124.512	99.1572	124.512	99.2026	124.512	99.1669	124.512	99.19	124.512	99.1781
128.906	99.6355	128.906	99.6137	128.906	99.646	128.906	99.5811	128.906	99.6449	128.906	99.5391	128.906	99.6328	128.906	99.4893	128.906	99.6107	128.906	99.4342	128.906	99.5799	128.906	99.3765	128.906	99.5422	128.906	99.3191	128.906	99.4997	128.906	99.2651	128.906	99.4545	128.906	99.2172	128.906	99.409	128.906	99.1777	128.906	99.3652	128.906	99.148	128.906	99.3249	128.906	99.1286	128.906	99.2892	128.906	99.1191	128.906	99.2587	128.906	99.118	128.906	99.2333	128.906	99.1237	128.906	99.212	128.906	99.1341	128.906	99.1936	128.906	99.1472	128.906	99.1772	128.906	99.1618
133.301	99.8841	133.301	99.8736	133.301	99.8838	133.301	99.8526	133.301	99.8729	133.301	99.8222	133.301	99.8522	133.301	99.784	133.301	99.8232	133.301	99.7401	133.301	99.7878	133.301	99.6931	133.301	99.7481	133.301	99.6457	133.301	99.7067	133.301	99.6008	133.301	99.666	133.301	99.5607	133.301	99.6281	133.301	99.5276	133.301	99.5949	133.301	99.5027	133.301	99.5675	133.301	99.4863	133.301	99.5464	133.301	99.478	133.301	99.5312	133.301	99.4764	133.301	99.521	133.301	99.4796	133.301	99.5142	133.301	99.4856	133.301	99.5092	133.301	99.4925	133.301	99.5045	133.301	99.499
139.16	100.045	139.16	100.034	139.16	100.042	139.16	100.01	139.16	100.027	139.16	99.9749	139.16	99.9996	139.16	99.9305	139.16	99.9618	139.16	99.8794	139.16	99.916	139.16	99.8247	139.16	99.8651	139.16	99.7698	139.16	99.8122	139.16	99.7179	139.16	99.7607	139.16	99.6721	139.16	99.7133	139.16	99.6346	139.16	99.6727	139.16	99.6068	139.16	99.6404	139.16	99.5889	139.16	99.617	139.16	99.5798	139.16	99.6022	139.16	99.5777	139.16	99.5944	139.16	99.5801	139.16	99.5917	139.16	99.5845	139.16	99.5916	139.16	99.5886	139.16	99.592	139.16	99.5913
143.555	99.9717	143.555	99.9549	143.555	99.9747	143.555	99.925	143.555	99.964	143.555	99.8836	143.555	99.9406	143.555	99.8331	143.555	99.9061	143.555	99.7764	143.555	99.8631	143.555	99.7171	143.555	99.8146	143.555	99.659	143.555	99.7638	143.555	99.6059	143.555	99.7141	143.555	99.5611	143.555	99.6686	143.555	99.5269	143.555	99.6297	143.555	99.5048	143.555	99.5991	143.555	99.4944	143.555	99.5772	143.555	99.4943	143.555	99.5634	143.555	99.5017	143.555	99.5562	143.555	99.5134	143.555	99.5533	143.555	99.5262	143.555	99.552	143.555	99.5374	143.555	99.5501	143.555	99.5455
147.949	99.9723	147.949	99.9561	147.949	99.973	147.949	99.9251	147.949	99.9585	147.949	99.8809	147.949	99.93	147.949	99.8259	147.949	99.8895	147.949	99.7632	147.949	99.8399	147.949	99.6968	147.949	99.7847	147.949	99.6308	147.949	99.7275	147.949	99.5695	147.949	99.6724	147.949	99.5168	147.949	99.6228	147.949	99.4757	147.949	99.5814	147.949	99.448	147.949	99.5496	147.949	99.4338	147.949	99.5277	147.949	99.4318	147.949	99.5146	147.949	99.4391	147.949	99.508	147.949	99.4522	147.949	99.5053	147.949	99.4674	147.949	99.5034	147.949	99.4816	147.949	99.4997	147.949	99.4926
153.809	99.9337	153.809	99.9208	153.809	99.9298	153.809	99.8919	153.809	99.9092	153.809	99.8487	153.809	99.8729	153.809	99.7935	153.809	99.8229	153.809	99.7294	153.809	99.7624	153.809	99.6598	153.809	99.6952	153.809	99.5887	153.809	99.6257	153.809	99.5201	153.809	99.5587	153.809	99.4582	153.809	99.4985	153.809	99.4062	153.809	99.4485	153.809	99.3667	153.809	99.4108	153.809	99.3409	153.809	99.3857	153.809	99.3281	153.809	99.3716	153.809	99.3263	153.809	99.366	153.809	99.3323	153.809	99.3652	153.809	99.3421	153.809	99.3657	153.809	99.3523	153.809	99.3646	153.809	99.3602
159.668	99.9454	159.668	99.9293	159.668	99.9436	159.668	99.8963	159.668	99.9237	159.668	99.8487	159.668	99.8866	159.668	99.7894	159.668	99.8342	159.668	99.722	159.668	99.7694	159.668	99.6506	159.668	99.6959	159.668	99.5795	159.668	99.6182	159.668	99.5125	159.668	99.541	159.668	99.4531	159.668	99.4692	159.668	99.4037	159.668	99.407	159.668	99.3656	159.668	99.3574	159.668	99.3388	159.668	99.3219	159.668	99.3221	159.668	99.3003	159.668	99.3134	159.668	99.2905	159.668	99.3099	159.668	99.2893	159.668	99.3086	159.668	99.2933	159.668	99.3072	159.668	99.2991	159.668	99.3041
165.527	99.8483	165.527	99.8304	165.527	99.8474	165.527	99.7947	165.527	99.8279	165.527	99.7433	165.527	99.7911	165.527	99.6795	165.527	99.7394	165.527	99.6072	165.527	99.6763	165.527	99.5314	165.527	99.6061	165.527	99.4572	165.527	99.5338	165.527	99.3898	165.527	99.4646	165.527	99.3336	165.527	99.4035	165.527	99.2918	165.527	99.3544	165.527	99.2659	165.527	99.3197	165.527	99.2553	165.527	99.2998	165.527	99.2578	165.527	99.293	165.527	99.2694	165.527	99.2962	165.527	99.2858	165.527	99.3048	165.527	99.3022	165.527	99.3144	165.527	99.3149	165.527	99.3208	165.527	99.3213
171.387	99.7461	171.387	99.7286	171.387	99.7435	171.387	99.6922	171.387	99.7208	171.387	99.6391	171.387	99.679	171.387	99.5726	171.387	99.6204	171.387	99.497	171.387	99.5487	171.387	99.4171	171.387	99.4682	171.387	99.3384	171.387	99.3845	171.387	99.2659	171.387	99.3036	171.387	99.2043	171.387	99.2313	171.387	99.157	171.387	99.1728	171.387	99.1256	171.387	99.1315	171.387	99.1101	171.387	99.1084	171.387	99.1082	171.387	99.1019	171.387	99.1161	171.387	99.1082	171.387	99.1292	171.387	99.1219	171.387	99.1426	171.387	99.1372	171.387	99.152	171.387	99.1492	171.387	99.1545
177.246	99.5991	177.246	99.5798	177.246	99.5975	177.246	99.5401	177.246	99.5752	177.246	99.4825	177.246	99.5338	177.246	99.4101	177.246	99.4761	177.246	99.3278	177.246	99.4058	177.246	99.2412	177.246	99.3276	177.246	99.1565	177.246	99.2466	177.246	99.0799	177.246	99.1686	177.246	99.0168	177.246	99.0989	177.246	98.971	177.246	99.0422	177.246	98.9438	177.246	99.0014	177.246	98.9345	177.246	98.9777	177.246	98.9398	177.246	98.9697	177.246	98.955	177.246	98.9739	177.246	98.9744	177.246	98.9854	177.246	98.993	177.246	98.9985	177.246	99.0062	177.246	99.0085	177.246	99.0116
183.105	99.4106	183.105	99.3922	183.105	99.4045	183.105	99.3501	183.105	99.3745	183.105	99.2865	183.105	99.3226	183.105	99.2049	183.105	99.2519	183.105	99.1104	183.105	99.1672	183.105	99.0091	183.105	99.074	183.105	98.9082	183.105	98.979	183.105	98.8154	183.105	98.8891	183.105	98.7377	183.105	98.8108	183.105	98.6804	183.105	98.7493	183.105	98.6463	183.105	98.7076	183.105	98.6347	183.105	98.6861	183.105	98.6421	183.105	98.6824	183.105	98.6624	183.105	98.6918	183.105	98.6884	183.105	98.7081	183.105	98.7132	183.105	98.725	183.105	98.7314	183.105	98.7368	183.105	98.7395
188.965	99.319	188.965	99.3001	188.965	99.3132	188.965	99.2578	188.965	99.2828	188.965	99.1944	188.965	99.2293	188.965	99.1133	188.965	99.1553	188.965	99.0194	188.965	99.0651	188.965	98.9183	188.965	98.964	188.965	98.8166	188.965	98.8588	188.965	98.7215	188.965	98.757	188.965	98.6397	188.965	98.6662	188.965	98.577	188.965	98.5932	188.965	98.5368	188.965	98.5426	188.965	98.5194	188.965	98.5162	188.965	98.522	188.965	98.5122	188.965	98.5389	188.965	98.5254	188.965	98.5623	188.965	98.5485	188.965	98.5847	188.965	98.5735	188.965	98.5995	188.965	98.5933	188.965	98.6028
196.289	99.2082	196.289	99.19	196.289	99.1994	196.289	99.1464	196.289	99.1636	196.289	99.0804	196.289	99.1025	196.289	98.9963	196.289	99.0194	196.289	98.8995	196.289	98.9191	196.289	98.7964	196.289	98.8082	196.289	98.6938	196.289	98.6943	196.289	98.5986	196.289	98.5858	196.289	98.5171	196.289	98.4907	196.289	98.4539	196.289	98.4158	196.289	98.4116	196.289	98.3654	196.289	98.3903	196.289	98.3404	196.289	98.387	196.289	98.3383	196.289	98.3968	196.289	98.3534	196.289	98.413	196.289	98.3781	196.289	98.4289	196.289	98.4047	196.289	98.4386	196.289	98.4262	196.289	98.4381
203.613	99.0197	203.613	98.9907	203.613	99.0189	203.613	98.9337	203.613	98.988	203.613	98.8525	203.613	98.9285	203.613	98.7522	203.613	98.8439	203.613	98.6397	203.613	98.7394	203.613	98.523	203.613	98.6219	203.613	98.4108	203.613	98.5002	203.613	98.3117	203.613	98.3839	203.613	98.2334	203.613	98.283	203.613	98.181	203.613	98.2058	203.613	98.1566	203.613	98.158	203.613	98.1583	203.613	98.1406	203.613	98.1807	203.613	98.1504	203.613	98.2155	203.613	98.18	203.613	98.2534	203.613	98.2197	203.613	98.2854	203.613	98.2594	203.613	98.3044	203.613	98.2903	203.613	98.3063
210.938	98.8725	210.938	98.8408	210.938	98.8737	210.938	98.7799	210.938	98.8445	210.938	98.693	210.938	98.7869	210.938	98.5851	210.938	98.7041	210.938	98.4626	210.938	98.6012	210.938	98.3338	210.938	98.4846	210.938	98.2081	210.938	98.362	210.938	98.095	210.938	98.2424	210.938	98.0031	210.938	98.1347	210.938	97.9391	210.938	98.0475	210.938	97.9059	210.938	97.9869	210.938	97.9022	210.938	97.9555	210.938	97.9226	210.938	97.9516	210.938	97.9584	210.938	97.9691	210.938	97.9994	210.938	97.9991	210.938	98.0358	210.938	98.0313	210.938	98.0598	210.938	98.0562	210.938	98.0668
218.262	98.7481	218.262	98.7245	218.262	98.7391	218.262	98.6696	218.262	98.6979	218.262	98.5865	218.262	98.6264	218.262	98.4799	218.262	98.5287	218.262	98.3561	218.262	98.4105	218.262	98.2233	218.262	98.2798	218.262	98.0908	218.262	98.146	218.262	97.9686	218.262	98.0198	218.262	97.8664	218.262	97.9113	218.262	97.7917	218.262	97.8291	218.262	97.7488	218.262	97.7783	218.262	97.7376	218.262	97.7593	218.262	97.7532	218.262	97.7676	218.262	97.787	218.262	97.7953	218.262	97.8284	218.262	97.8322	218.262	97.8667	218.262	97.8678	218.262	97.8932	218.262	97.8933	218.262	97.9026
225.586	98.6157	225.586	98.5894	225.586	98.6078	225.586	98.5309	225.586	98.5658	225.586	98.4436	225.586	98.4912	225.586	98.3329	225.586	98.3879	225.586	98.2058	225.586	98.2618	225.586	98.0711	225.586	98.1212	225.586	97.9386	225.586	97.9765	225.586	97.8187	225.586	97.84	225.586	97.7209	225.586	97.724	225.586	97.6526	225.586	97.6394	225.586	97.6172	225.586	97.5928	225.586	97.614	225.586	97.5848	225.586	97.6378	225.586	97.6099	225.586	97.6795	225.586	97.6569	225.586	97.7282	225.586	97.7125	225.586	97.7727	225.586	97.7634	225.586	97.8032	225.586	97.7991	225.586	97.8129
232.91	98.4975	232.91	98.4689	232.91	98.4872	232.91	98.4033	232.91	98.4377	232.91	98.305	232.91	98.3511	232.91	98.1803	232.91	98.2313	232.91	98.0373	232.91	98.0849	232.91	97.8864	232.91	97.9209	232.91	97.739	232.91	97.751	232.91	97.6068	232.91	97.589	232.91	97.5003	232.91	97.4498	232.91	97.4273	232.91	97.3467	232.91	97.3912	232.91	97.2889	232.91	97.3905	232.91	97.2786	232.91	97.4186	232.91	97.3099	232.91	97.4651	232.91	97.3702	232.91	97.5173	232.91	97.443	232.91	97.5624	232.91	97.5122	232.91	97.5895	232.91	97.5644	232.91	97.5911
241.699	98.3619	241.699	98.3256	241.699	98.3572	241.699	98.2504	241.699	98.3113	241.699	98.1407	241.699	98.2262	241.699	98.0032	241.699	98.1056	241.699	97.8469	241.699	97.9557	241.699	97.6834	241.699	97.785	241.699	97.5258	241.699	97.6049	241.699	97.3873	241.699	97.4294	241.699	97.2795	241.699	97.2737	241.699	97.21	241.699	97.1526	241.699	97.1811	241.699	97.0774	241.699	97.1889	241.699	97.0527	241.699	97.2245	241.699	97.0747	241.699	97.2755	241.699	97.1318	241.699	97.3283	241.699	97.2074	241.699	97.37	241.699	97.2837	241.699	97.3903	241.699	97.3456	241.699	97.3826
250.488	98.2178	250.488	98.1842	250.488	98.2056	250.488	98.1063	250.488	98.148	250.488	97.9876	250.488	98.0475	250.488	97.8343	250.488	97.9088	250.488	97.6555	250.488	97.7393	250.488	97.4641	250.488	97.5494	250.488	97.2766	250.488	97.3525	250.488	97.1112	250.488	97.1648	250.488	96.9847	250.488	97.0031	250.488	96.9086	250.488	96.8823	250.488	96.8853	250.488	96.812	250.488	96.9077	250.488	96.7942	250.488	96.9609	250.488	96.8225	250.488	97.0274	250.488	96.8839	250.488	97.09	250.488	96.9619	250.488	97.1355	250.488	97.04	250.488	97.155	250.488	97.1042	250.488	97.1443
259.277	98.2484	259.277	98.2054	259.277	98.247	259.277	98.1207	259.277	98.2001	259.277	97.9985	259.277	98.1081	259.277	97.8444	259.277	97.9739	259.277	97.6661	259.277	97.8028	259.277	97.4736	259.277	97.6034	259.277	97.2795	259.277	97.3881	259.277	97.0988	259.277	97.1738	259.277	96.9477	259.277	96.9804	259.277	96.8407	259.277	96.8288	259.277	96.7871	259.277	96.7358	259.277	96.7878	259.277	96.709	259.277	96.834	259.277	96.7432	259.277	96.909	259.277	96.8212	259.277	96.9924	259.277	96.9192	259.277	97.0645	259.277	97.0129	259.277	97.1091	259.277	97.0828	259.277	97.1163
268.066	98.0228	268.066	97.96	268.066	98.0342	268.066	97.8502	268.066	97.9922	268.066	97.7002	268.066	97.8974	268.066	97.5193	268.066	97.7536	268.066	97.3187	268.066	97.5676	268.066	97.1121	268.066	97.3497	268.066	96.9142	268.066	97.1142	268.066	96.7406	268.066	96.8793	268.066	96.6054	268.066	96.6657	268.066	96.5197	268.066	96.4951	268.066	96.4887	268.066	96.3849	268.066	96.5094	268.066	96.3441	268.066	96.5704	268.066	96.3695	268.066	96.6531	268.066	96.4462	268.066	96.7358	268.066	96.5517	268.066	96.7985	268.066	96.6613	268.066	96.826	268.066	96.7529	268.066	96.8107
276.855	97.9618	276.855	97.8961	276.855	97.9793	276.855	97.7811	276.855	97.9509	276.855	97.6179	276.855	97.8788	276.855	97.4114	276.855	97.7659	276.855	97.172	276.855	97.6161	276.855	96.9167	276.855	97.4354	276.855	96.6672	276.855	97.2334	276.855	96.4478	276.855	97.0235	276.855	96.2794	276.855	96.8229	276.855	96.1742	276.855	96.6501	276.855	96.1335	276.855	96.5219	276.855	96.1484	276.855	96.4481	276.855	96.2042	276.855	96.4277	276.855	96.2843	276.855	96.4483	276.855	96.3726	276.855	96.4901	276.855	96.4543	276.855	96.5319	276.855	96.5171	276.855	96.5561	276.855	96.5522
287.109	98.1886	287.109	98.1827	287.109	98.1398	287.109	98.1201	287.109	98.0403	287.109	98.0012	287.109	97.8961	287.109	97.8294	287.109	97.7148	287.109	97.6123	287.109	97.5051	287.109	97.3624	287.109	97.2777	287.109	97.0985	287.109	97.0446	287.109	96.8449	287.109	96.8199	287.109	96.6277	287.109	96.6188	287.109	96.469	287.109	96.4559	287.109	96.3794	287.109	96.3421	287.109	96.355	287.109	96.282	287.109	96.3787	287.109	96.2725	287.109	96.4278	287.109	96.3032	287.109	96.4803	287.109	96.3592	287.109	96.5192	287.109	96.4239	287.109	96.5341	287.109	96.4818	287.109	96.521
297.363	97.9834	297.363	97.9377	297.363	97.9679	297.363	97.8357	297.363	97.889	297.363	97.6843	297.363	97.7481	297.363	97.4913	297.363	97.5506	297.363	97.2657	297.363	97.3061	297.363	97.0188	297.363	97.0285	297.363	96.7656	297.363	96.7359	297.363	96.5266	297.363	96.4511	297.363	96.3262	297.363	96.1997	297.363	96.1881	297.363	96.0067	297.363	96.1266	297.363	95.8908	297.363	96.1395	297.363	95.8586	297.363	96.2077	297.363	95.9017	297.363	96.3016	297.363	96	297.363	96.3909	297.363	96.1269	297.363	96.4518	297.363	96.2562	297.363	96.4699	297.363	96.366	297.363	96.4404
307.617	97.8443	307.617	97.7807	307.617	97.8504	307.617	97.6631	307.617	97.7973	307.617	97.4968	307.617	97.6852	307.617	97.2896	307.617	97.5174	307.617	97.0529	307.617	97.3013	307.617	96.8026	307.617	97.049	307.617	96.5588	307.617	96.778	307.617	96.3443	307.617	96.5115	307.617	96.1819	307.617	96.2767	307.617	96.0894	307.617	96.1014	307.617	96.0755	307.617	96.0077	307.617	96.1351	307.617	96.0042	307.617	96.2499	307.617	96.082	307.617	96.392	307.617	96.2164	307.617	96.5308	307.617	96.3745	307.617	96.6395	307.617	96.5237	307.617	96.6989	307.617	96.6375	307.617	96.6985
319.336	97.715	319.336	97.6699	319.336	97.7046	319.336	97.5704	319.336	97.638	319.336	97.4182	319.336	97.5151	319.336	97.2163	319.336	97.3376	319.336	96.9711	319.336	97.111	319.336	96.6944	319.336	96.8462	319.336	96.4049	319.336	96.5615	319.336	96.1288	319.336	96.2824	319.336	95.8967	319.336	96.0396	319.336	95.7376	319.336	95.8634	319.336	95.6697	319.336	95.7756	319.336	95.6937	319.336	95.7813	319.336	95.7925	319.336	95.8666	319.336	95.9366	319.336	96.002	319.336	96.0935	319.336	96.1506	319.336	96.2335	319.336	96.2778	319.336	96.3335	319.336	96.3582	319.336	96.3775
329.59	97.7329	329.59	97.6726	329.59	97.7255	329.59	97.5465	329.59	97.6505	329.59	97.3594	329.59	97.5104	329.59	97.1194	329.59	97.3094	329.59	96.8386	329.59	97.0547	329.59	96.5347	329.59	96.7576	329.59	96.2307	329.59	96.4356	329.59	95.9549	329.59	96.1142	329.59	95.7371	329.59	95.8267	329.59	95.6025	329.59	95.6092	329.59	95.5641	329.59	95.4907	329.59	95.6168	329.59	95.4817	329.59	95.7383	329.59	95.5687	329.59	95.8948	329.59	95.7198	329.59	96.0501	329.59	95.8953	329.59	96.1731	329.59	96.0586	329.59	96.242	329.59	96.1813	329.59	96.2452
341.309	97.7434	341.309	97.6895	341.309	97.7259	341.309	97.5636	341.309	97.639	341.309	97.368	341.309	97.4862	341.309	97.1092	341.309	97.2722	341.309	96.7997	341.309	97.0039	341.309	96.4598	341.309	96.6917	341.309	96.1187	341.309	96.3522	341.309	95.8121	341.309	96.0102	341.309	95.5768	341.309	95.7005	341.309	95.4403	341.309	95.4633	341.309	95.4129	341.309	95.334	341.309	95.4848	341.309	95.3291	341.309	95.6293	341.309	95.4362	341.309	95.8106	341.309	95.6181	341.309	95.9909	341.309	95.8272	341.309	96.1363	341.309	96.0189	341.309	96.2211	341.309	96.1601	341.309	96.2302
353.027	97.7085	353.027	97.6507	353.027	97.6893	353.027	97.5172	353.027	97.5924	353.027	97.3102	353.027	97.4183	353.027	97.0336	353.027	97.1701	353.027	96.6954	353.027	96.854	353.027	96.311	353.027	96.4818	353.027	95.9073	353.027	96.0729	353.027	95.5248	353.027	95.657	353.027	95.2133	353.027	95.2752	353.027	95.0188	353.027	94.9761	353.027	94.9643	353.027	94.8038	353.027	95.0386	353.027	94.7799	353.027	95.2017	353.027	94.8908	353.027	95.4019	353.027	95.0925	353.027	95.5919	353.027	95.3285	353.027	95.7358	353.027	95.5475	353.027	95.8104	353.027	95.713	353.027	95.8035
366.211	97.9131	366.211	97.8466	366.211	97.8994	366.211	97.7015	366.211	97.8046	366.211	97.4804	366.211	97.6288	366.211	97.1869	366.211	97.3736	366.211	96.8275	366.211	97.0441	366.211	96.4146	366.211	96.6504	366.211	95.9706	366.211	96.2118	366.211	95.533	366.211	95.7584	366.211	95.1553	366.211	95.3329	366.211	94.8954	366.211	94.9863	366.211	94.793	366.211	94.7663	366.211	94.8471	366.211	94.7008	366.211	95.016	366.211	94.7835	366.211	95.2382	366.211	94.9743	366.211	95.4553	366.211	95.2141	366.211	95.6234	366.211	95.4443	366.211	95.7143	366.211	95.6201	366.211	95.7139
379.395	97.9975	379.395	97.9295	379.395	97.9942	379.395	97.7891	379.395	97.9193	379.395	97.5753	379.395	97.7718	379.395	97.2889	379.395	97.5498	379.395	96.936	379.395	97.2522	379.395	96.5321	379.395	96.881	379.395	96.1056	379.395	96.4464	379.395	95.6992	379.395	95.9738	379.395	95.3639	379.395	95.5108	379.395	95.1473	379.395	95.1262	379.395	95.0761	379.395	94.8915	379.395	95.1442	379.395	94.8462	379.395	95.315	379.395	94.9738	379.395	95.5354	379.395	95.2119	379.395	95.7518	379.395	95.486	379.395	95.921	379.395	95.7348	379.395	96.0135	379.395	95.9181	379.395	96.0138
392.578	97.923	392.578	97.8567	392.578	97.9078	392.578	97.7066	392.578	97.8135	392.578	97.4715	392.578	97.6426	392.578	97.1529	392.578	97.3977	392.578	96.7573	392.578	97.0821	392.578	96.3005	392.578	96.701	392.578	95.8114	392.578	96.2633	392.578	95.3364	392.578	95.7871	392.578	94.9369	392.578	95.3069	392.578	94.6762	392.578	94.8799	392.578	94.5947	392.578	94.58	392.578	94.6878	392.578	94.4697	392.578	94.9065	392.578	94.5608	392.578	95.1799	392.578	94.8022	392.578	95.4405	392.578	95.108	392.578	95.6377	392.578	95.3976	392.578	95.7407	392.578	95.6162	392.578	95.7342
405.762	97.9031	405.762	97.8398	405.762	97.8881	405.762	97.6943	405.762	97.7953	405.762	97.4602	405.762	97.6226	405.762	97.1311	405.762	97.3664	405.762	96.7062	405.762	97.0242	405.762	96.1979	405.762	96.5976	405.762	95.6418	405.762	96.0973	405.762	95.103	405.762	95.5498	405.762	94.6688	405.762	95.0048	405.762	94.4191	405.762	94.5379	405.762	94.3841	405.762	94.237	405.762	94.5292	405.762	94.1642	405.762	94.7807	405.762	94.3153	405.762	95.0638	405.762	94.6173	405.762	95.3222	405.762	94.9694	405.762	95.5178	405.762	95.2857	405.762	95.6252	405.762	95.5126	405.762	95.6267
420.41	98.226	420.41	98.1421	420.41	98.217	420.41	97.969	420.41	98.1124	420.41	97.7095	420.41	97.9111	420.41	97.3621	420.41	97.6137	420.41	96.9192	420.41	97.2223	420.41	96.371	420.41	96.7416	420.41	95.7168	420.41	96.1812	420.41	94.9878	420.41	95.5616	420.41	94.276	420.41	94.9241	420.41	93.7416	420.41	94.3422	420.41	93.5457	420.41	93.921	420.41	93.7226	420.41	93.7614	420.41	94.1454	420.41	93.8937	420.41	94.6368	420.41	94.2447	420.41	95.0685	420.41	94.6829	420.41	95.3762	420.41	95.0886	420.41	95.5353	420.41	95.3856	420.41	95.5383
435.059	98.1567	435.059	98.0831	435.059	98.1529	435.059	97.9296	435.059	98.072	435.059	97.6917	435.059	97.911	435.059	97.3646	435.059	97.6631	435.059	96.9435	435.059	97.3181	435.059	96.4267	435.059	96.865	435.059	95.8215	435.059	96.2989	435.059	95.1552	435.059	95.6311	435.059	94.4926	435.059	94.9052	435.059	93.9487	435.059	94.2118	435.059	93.6637	435.059	93.6856	435.059	93.7189	435.059	93.4576	435.059	94.063	435.059	93.5709	435.059	94.5458	435.059	93.9462	435.059	95.0129	435.059	94.4396	435.059	95.3588	435.059	94.9186	435.059	95.5288	435.059	95.2917	435.059	95.5044
451.172	98.4098	451.172	98.3652	451.172	98.3847	451.172	98.2445	451.172	98.2906	451.172	98.036	451.172	98.124	451.172	97.7241	451.172	97.8781	451.172	97.2914	451.172	97.5433	451.172	96.7233	451.172	97.1081	451.172	96.0145	451.172	96.5615	451.172	95.1825	451.172	95.8992	451.172	94.2902	451.172	95.1376	451.172	93.4741	451.172	94.336	451.172	92.9363	451.172	93.6182	451.172	92.8343	451.172	93.1566	451.172	93.1358	451.172	93.0759	451.172	93.6446	451.172	93.344	451.172	94.1582	451.172	93.796	451.172	94.5507	451.172	94.2553	451.172	94.7649	451.172	94.604	451.172	94.7818
465.82	98.2613	465.82	98.2004	465.82	98.2604	465.82	98.0764	465.82	98.1966	465.82	97.8849	465.82	98.0659	465.82	97.6176	465.82	97.8607	465.82	97.2614	465.82	97.5689	465.82	96.8006	465.82	97.1743	465.82	96.2212	465.82	96.6595	465.82	95.5211	465.82	96.0125	465.82	94.7258	465.82	95.2403	465.82	93.9123	465.82	94.3905	465.82	93.2262	465.82	93.5774	465.82	92.8482	465.82	92.9805	465.82	92.8741	465.82	92.7613	465.82	93.2187	465.82	92.9315	465.82	93.6834	465.82	93.3403	465.82	94.0875	465.82	93.7963	465.82	94.323	465.82	94.1585	465.82	94.3464
483.398	98.0623	483.398	98.0125	483.398	98.0445	483.398	97.8946	483.398	97.9588	483.398	97.7055	483.398	97.804	483.398	97.4387	483.398	97.578	483.398	97.0827	483.398	97.2763	483.398	96.6227	483.398	96.8916	483.398	96.0467	483.398	96.4136	483.398	95.3569	483.398	95.8329	483.398	94.5878	483.398	95.1511	483.398	93.8282	483.398	94.3996	483.398	93.2266	483.398	93.6653	483.398	92.9373	483.398	93.0974	483.398	93.0078	483.398	92.849	483.398	93.3294	483.398	92.9573	483.398	93.7249	483.398	93.3038	483.398	94.0511	483.398	93.7113	483.398	94.2283	483.398	94.0432	483.398	94.2255
499.512	98.2451	499.512	98.1844	499.512	98.2619	499.512	98.0754	499.512	98.2308	499.512	97.9053	499.512	98.1404	499.512	97.6541	499.512	97.9746	499.512	97.2982	499.512	97.714	499.512	96.8148	499.512	97.3387	499.512	96.1889	499.512	96.8288	499.512	95.4235	499.512	96.169	499.512	94.5543	499.512	95.3578	499.512	93.6712	499.512	94.4317	499.512	92.9321	499.512	93.504	499.512	92.527	499.512	92.7895	499.512	92.5571	499.512	92.5195	499.512	92.9361	499.512	92.7351	499.512	93.4573	499.512	93.2334	499.512	93.9289	499.512	93.7587	499.512	94.2312	499.512	94.1425	499.512	94.3074
517.09	98.0601	517.09	98.0236	517.09	98.0532	517.09	97.9401	517.09	98.0054	517.09	97.803	517.09	97.9177	517.09	97.5992	517.09	97.7859	517.09	97.3079	517.09	97.5988	517.09	96.9019	517.09	97.3362	517.09	96.3558	517.09	96.9707	517.09	95.6577	517.09	96.4728	517.09	94.8274	517.09	95.8181	517.09	93.9364	517.09	95.003	517.09	93.12	517.09	94.0719	517.09	92.5499	517.09	93.159	517.09	92.3438	517.09	92.4992	517.09	92.4782	517.09	92.302	517.09	92.8088	517.09	92.5375	517.09	93.1655	517.09	92.9557	517.09	93.415	517.09	93.3113	517.09	93.4746
536.133	97.4479	536.133	97.4619	536.133	97.3861	536.133	97.421	536.133	97.2848	536.133	97.3192	536.133	97.1507	536.133	97.1499	536.133	96.9863	536.133	96.901	536.133	96.7863	536.133	96.5515	536.133	96.5363	536.133	96.074	536.133	96.214	536.133	95.4448	536.133	95.7929	536.133	94.6657	536.133	95.252	536.133	93.7935	536.133	94.5918	536.133	92.97	536.133	93.8586	536.133	92.4054	536.133	93.1665	536.133	92.2589	536.133	92.6847	536.133	92.495	536.133	92.5468	536.133	92.9171	536.133	92.7346	536.133	93.3189	536.133	93.0873	536.133	93.5661	536.133	93.4188	536.133	93.599
555.176	97.4584	555.176	97.4093	555.176	97.4581	555.176	97.3168	555.176	97.4037	555.176	97.1849	555.176	97.2935	555.176	97.0109	555.176	97.1284	555.176	96.7822	555.176	96.9075	555.176	96.4753	555.176	96.623	555.176	96.0577	555.176	96.2581	555.176	95.4972	555.176	95.7884	555.176	94.7778	555.176	95.1904	555.176	93.9264	555.176	94.4564	555.176	93.0473	555.176	93.6207	555.176	92.3359	555.176	92.7935	555.176	92	555.176	92.1704	555.176	92.0885	555.176	91.939	555.176	92.4369	555.176	92.1088	555.176	92.8137	555.176	92.4915	555.176	93.0513	555.176	92.8617	555.176	93.0696
574.219	97.117	574.219	97.1209	574.219	97.0822	574.219	97.0898	574.219	97.017	574.219	97.0146	574.219	96.9195	574.219	96.8789	574.219	96.7846	574.219	96.6587	574.219	96.604	574.219	96.3263	574.219	96.3645	574.219	95.8579	574.219	96.0461	574.219	95.2421	574.219	95.6232	574.219	94.4912	574.219	95.0718	574.219	93.6587	574.219	94.3896	574.219	92.8611	574.219	93.6283	574.219	92.2738	574.219	92.9227	574.219	92.0483	574.219	92.4616	574.219	92.184	574.219	92.3564	574.219	92.5205	574.219	92.5352	574.219	92.867	574.219	92.8193	574.219	93.0977	574.219	93.0564	574.219	93.1612
594.727	96.7524	594.727	96.7635	594.727	96.6956	594.727	96.7348	594.727	96.5932	594.727	96.6718	594.727	96.4518	594.727	96.5714	594.727	96.2812	594.727	96.4129	594.727	96.0848	594.727	96.156	594.727	95.8493	594.727	95.7514	594.727	95.5408	594.727	95.1594	594.727	95.115	594.727	94.3756	594.727	94.5354	594.727	93.4588	594.727	93.7963	594.727	92.5566	594.727	92.9511	594.727	91.8919	594.727	92.1455	594.727	91.6537	594.727	91.6137	594.727	91.8435	594.727	91.5434	594.727	92.2737	594.727	91.8856	594.727	92.7154	594.727	92.3938	594.727	93.002	594.727	92.8271	594.727	93.046
615.234	97.1397	615.234	97.0199	615.234	97.1872	615.234	96.851	615.234	97.151	615.234	96.6646	615.234	97.0299	615.234	96.486	615.234	96.8278	615.234	96.3152	615.234	96.5504	615.234	96.1141	615.234	96.2006	615.234	95.8133	615.234	95.7727	615.234	95.3369	615.234	95.246	615.234	94.6358	615.234	94.5857	615.234	93.7296	615.234	93.7604	615.234	92.7535	615.234	92.7872	615.234	91.9724	615.234	91.8075	615.234	91.6478	615.234	91.1373	615.234	91.8018	615.234	91.0862	615.234	92.2167	615.234	91.5848	615.234	92.6504	615.234	92.2496	615.234	92.9428	615.234	92.7644	615.234	92.9983
637.207	97.2317	637.207	97.1563	637.207	97.2475	637.207	97.0251	637.207	97.2068	637.207	96.8486	637.207	97.1176	637.207	96.64	637.207	96.9916	637.207	96.406	637.207	96.838	637.207	96.1334	637.207	96.6552	637.207	95.7809	637.207	96.4215	637.207	95.2836	637.207	96.0934	637.207	94.5732	637.207	95.6137	637.207	93.614	637.207	94.9308	637.207	92.467	637.207	94.0296	637.207	91.3852	637.207	92.9834	637.207	90.8053	637.207	92.0192	637.207	90.9607	637.207	91.4821	637.207	91.5675	637.207	91.5402	637.207	92.1922	637.207	91.9718	637.207	92.5841	637.207	92.4216	637.207	92.6578
659.18	97.0466	659.18	97.0402	659.18	96.9972	659.18	96.9797	659.18	96.9066	659.18	96.8875	659.18	96.7963	659.18	96.7956	659.18	96.6837	659.18	96.7165	659.18	96.5724	659.18	96.618	659.18	96.4451	659.18	96.4267	659.18	96.2648	659.18	96.0593	659.18	95.9818	659.18	95.4529	659.18	95.5389	659.18	94.5841	659.18	94.8775	659.18	93.4905	659.18	93.9575	659.18	92.3183	659.18	92.8093	659.18	91.3841	659.18	91.6384	659.18	91.0642	659.18	90.8861	659.18	91.3912	659.18	90.9098	659.18	91.9713	659.18	91.4929	659.18	92.3982	659.18	92.1226	659.18	92.4626
682.617	97.3145	682.617	97.2088	682.617	97.3322	682.617	97.0437	682.617	97.2557	682.617	96.8695	682.617	97.1046	682.617	96.7504	682.617	96.9281	682.617	96.7393	682.617	96.796	682.617	96.8332	682.617	96.7579	682.617	96.9456	682.617	96.7925	682.617	96.9306	682.617	96.8029	682.617	96.6441	682.617	96.6637	682.617	95.9974	682.617	96.2645	682.617	94.9901	682.617	95.522	682.617	93.7356	682.617	94.3869	682.617	92.4724	682.617	92.8938	682.617	91.5066	682.617	91.3015	682.617	91.0335	682.617	90.2109	682.617	90.9665	682.617	90.0669	682.617	91.0076	682.617	90.4885	682.617	90.8784
707.52	98.4912	707.52	98.2259	707.52	98.5052	707.52	97.716	707.52	98.2717	707.52	96.993	707.52	97.8077	707.52	96.1529	707.52	97.1596	707.52	95.4134	707.52	96.4366	707.52	95.0955	707.52	95.8463	707.52	95.3727	707.52	95.6419	707.52	96.0299	707.52	95.9063	707.52	96.6616	707.52	96.4354	707.52	96.966	707.52	96.9309	707.52	96.8128	707.52	97.1882	707.52	96.2194	707.52	97.1124	707.52	95.3387	707.52	96.6802	707.52	94.4245	707.52	95.929	707.52	93.7062	707.52	94.981	707.52	93.2572	707.52	94.0539	707.52	93.043	707.52	93.3807	707.52	93.0608
732.422	99.8577	732.422	99.7265	732.422	99.8333	732.422	99.4233	732.422	99.6614	732.422	98.9303	732.422	99.3344	732.422	98.2296	732.422	98.8267	732.422	97.3	732.422	98.1038	732.422	96.1309	732.422	97.1464	732.422	94.7939	732.422	95.9964	732.422	93.6023	732.422	94.8232	732.422	93.1333	732.422	93.9498	732.422	93.5961	732.422	93.6821	732.422	94.4738	732.422	94.0207	732.422	95.2459	732.422	94.6885	732.422	95.7403	732.422	95.3908	732.422	95.9993	732.422	95.9407	732.422	96.1317	732.422	96.2697	732.422	96.2226	732.422	96.4037	732.422	96.303	732.422	96.4158	732.422	96.3715
757.324	98.9834	757.324	98.8873	757.324	98.9751	757.324	98.6854	757.324	98.8532	757.324	98.3671	757.324	98.605	757.324	97.9218	757.324	98.2256	757.324	97.3427	757.324	97.719	757.324	96.619	757.324	97.0829	757.324	95.7308	757.324	96.2954	757.324	94.6802	757.324	95.3331	757.324	93.5809	757.324	94.2288	757.324	92.7403	757.324	93.1389	757.324	92.502	757.324	92.3491	757.324	92.8646	757.324	92.1353	757.324	93.5191	757.324	92.5423	757.324	94.2006	757.324	93.3374	757.324	94.7819	757.324	94.1974	757.324	95.2091	757.324	94.8921	757.324	95.4564	757.324	95.3283	757.324	95.5054
785.156	98.2835	785.156	98.206	785.156	98.2556	785.156	98.0095	785.156	98.1408	785.156	97.6946	785.156	97.9472	785.156	97.2777	785.156	97.6602	785.156	96.7844	785.156	97.2478	785.156	96.2295	785.156	96.6837	785.156	95.587	785.156	95.971	785.156	94.7799	785.156	95.1473	785.156	93.7352	785.156	94.2598	785.156	92.5286	785.156	93.336	785.156	91.5643	785.156	92.4106	785.156	91.4028	785.156	91.6461	785.156	92.0279	785.156	91.3995	785.156	92.9016	785.156	91.8802	785.156	93.6527	785.156	92.7773	785.156	94.1713	785.156	93.6286	785.156	94.445	785.156	94.2032	785.156	94.465
811.523	97.7584	811.523	97.6919	811.523	97.7617	811.523	97.551	811.523	97.6964	811.523	97.3161	811.523	97.5469	811.523	96.972	811.523	97.2953	811.523	96.5098	811.523	96.9225	811.523	95.9143	811.523	96.4086	811.523	95.1581	811.523	95.7399	811.523	94.2145	811.523	94.9141	811.523	93.0845	811.523	93.9373	811.523	91.8529	811.523	92.8314	811.523	90.8057	811.523	91.6916	811.523	90.4497	811.523	90.7844	811.523	91.0041	811.523	90.5133	811.523	92.0326	811.523	91.0312	811.523	93.0196	811.523	92.0061	811.523	93.7272	811.523	92.991	811.523	94.0898	811.523	93.719	811.523	94.0904
840.82	97.5886	840.82	97.4789	840.82	97.5715	840.82	97.249	840.82	97.4374	840.82	96.9186	840.82	97.2067	840.82	96.5186	840.82	96.9012	840.82	96.0882	840.82	96.5352	840.82	95.6514	840.82	96.1075	840.82	95.1753	840.82	95.5886	840.82	94.558	840.82	94.9242	840.82	93.681	840.82	94.0611	840.82	92.5013	840.82	92.9832	840.82	91.1862	840.82	91.7481	840.82	90.2633	840.82	90.5691	840.82	90.31	840.82	89.9266	840.82	91.1337	840.82	90.2723	840.82	92.0953	840.82	91.3288	840.82	92.846	840.82	92.4165	840.82	93.2992	840.82	93.1417	840.82	93.4192
870.117	97.177	870.117	97.0324	870.117	97.2185	870.117	96.7997	870.117	97.143	870.117	96.4925	870.117	96.9474	870.117	96.1255	870.117	96.6457	870.117	95.7157	870.117	96.2646	870.117	95.27	870.117	95.8228	870.117	94.7589	870.117	95.3085	870.117	94.1056	870.117	94.6788	870.117	93.2195	870.117	93.8841	870.117	92.0669	870.117	92.897	870.117	90.7804	870.117	91.7379	870.117	89.8155	870.117	90.5545	870.117	89.8074	870.117	89.7919	870.117	90.7403	870.117	90.0085	870.117	91.9215	870.117	91.0376	870.117	92.8397	870.117	92.1721	870.117	93.329	870.117	92.9873	870.117	93.3755
900.879	97.5833	900.879	97.4051	900.879	97.5859	900.879	97.0731	900.879	97.4273	900.879	96.633	900.879	97.1527	900.879	96.1364	900.879	96.8089	900.879	95.6272	900.879	96.412	900.879	95.1286	900.879	95.9463	900.879	94.6216	900.879	95.3945	900.879	94.021	900.879	94.7562	900.879	93.1769	900.879	94.0181	900.879	91.9413	900.879	93.1181	900.879	90.3504	900.879	91.9836	900.879	89.0181	900.879	90.6848	900.879	89.0579	900.879	89.6637	900.879	90.3309	900.879	89.6201	900.879	91.7359	900.879	90.5683	900.879	92.7445	900.879	91.7844	900.879	93.2484	900.879	92.7387	900.879	93.2423
933.105	97.8601	933.105	97.6245	933.105	97.9141	933.105	97.2612	933.105	97.7435	933.105	96.7979	933.105	97.3468	933.105	96.2354	933.105	96.7731	933.105	95.595	933.105	96.1194	933.105	94.9511	933.105	95.5007	933.105	94.3699	933.105	94.9754	933.105	93.8083	933.105	94.4826	933.105	93.1121	933.105	93.8807	933.105	92.1105	933.105	93.0393	933.105	90.7363	933.105	91.8886	933.105	89.2838	933.105	90.4906	933.105	88.7288	933.105	89.3228	933.105	89.6408	933.105	89.3793	933.105	91.0918	933.105	90.6926	933.105	92.2935	933.105	92.1302	933.105	93.0522	933.105	93.0425	933.105	93.3261
965.332	98.3336	965.332	98.1949	965.332	98.2686	965.332	97.8332	965.332	98.0472	965.332	97.2791	965.332	97.7088	965.332	96.6111	965.332	97.2558	965.332	95.9342	965.332	96.6647	965.332	95.345	965.332	95.9477	965.332	94.8712	965.332	95.202	965.332	94.3972	965.332	94.5474	965.332	93.677	965.332	93.9668	965.332	92.4553	965.332	93.2579	965.332	90.6134	965.332	92.1632	965.332	88.4647	965.332	90.5165	965.332	87.3546	965.332	88.5238	965.332	88.3368	965.332	87.5016	965.332	90.0796	965.332	88.6143	965.332	91.4417	965.332	90.3689	965.332	92.1503	965.332	91.6186	965.332	92.2037
1,000.49	98.6098	1,000.49	98.3916	1,000.49	98.6095	1,000.49	97.9908	1,000.49	98.3608	1,000.49	97.4223	1,000.49	97.861	1,000.49	96.6803	1,000.49	97.1421	1,000.49	95.7904	1,000.49	96.2749	1,000.49	94.8822	1,000.49	95.364	1,000.49	94.1653	1,000.49	94.52	1,000.49	93.7226	1,000.49	93.8025	1,000.49	93.3462	1,000.49	93.1811	1,000.49	92.6854	1,000.49	92.5368	1,000.49	91.4801	1,000.49	91.6816	1,000.49	89.7695	1,000.49	90.4373	1,000.49	88.3144	1,000.49	88.9094	1,000.49	88.3792	1,000.49	88.0287	1,000.49	89.6057	1,000.49	88.7865	1,000.49	90.8142	1,000.49	90.2522	1,000.49	91.5631	1,000.49	91.3326	1,000.49	91.7584
1,035.64	99.2771	1,035.64	99.1113	1,035.64	99.2547	1,035.64	98.7786	1,035.64	99.0335	1,035.64	98.2768	1,035.64	98.6215	1,035.64	97.5573	1,035.64	98.0296	1,035.64	96.5581	1,035.64	97.254	1,035.64	95.2975	1,035.64	96.2798	1,035.64	93.9844	1,035.64	95.1187	1,035.64	92.9878	1,035.64	93.8643	1,035.64	92.4285	1,035.64	92.6983	1,035.64	91.9126	1,035.64	91.7534	1,035.64	90.9908	1,035.64	90.9229	1,035.64	89.6835	1,035.64	89.8952	1,035.64	88.7745	1,035.64	88.4337	1,035.64	89.0448	1,035.64	86.9946	1,035.64	89.9797	1,035.64	87.2114	1,035.64	90.8662	1,035.64	89.0028	1,035.64	91.4105	1,035.64	90.6046	1,035.64	91.3929
1,072.27	98.2822	1,072.27	98.2655	1,072.27	98.2467	1,072.27	98.1356	1,072.27	98.175	1,072.27	97.8395	1,072.27	98.0378	1,072.27	97.3719	1,072.27	97.7904	1,072.27	96.754	1,072.27	97.3754	1,072.27	95.9815	1,072.27	96.7199	1,072.27	95.0154	1,072.27	95.7806	1,072.27	93.8578	1,072.27	94.6022	1,072.27	92.635	1,072.27	93.2992	1,072.27	91.4897	1,072.27	91.938	1,072.27	90.3087	1,072.27	90.4871	1,072.27	88.8709	1,072.27	88.9985	1,072.27	87.6948	1,072.27	87.7739	1,072.27	88.0603	1,072.27	87.1804	1,072.27	89.3782	1,072.27	87.4549	1,072.27	90.3414	1,072.27	88.4885	1,072.27	90.669	1,072.27	89.6554	1,072.27	90.4302
1,108.89	97.4171	1,108.89	97.2251	1,108.89	97.4347	1,108.89	96.9435	1,108.89	97.2597	1,108.89	96.6368	1,108.89	96.9443	1,108.89	96.2793	1,108.89	96.5511	1,108.89	95.7984	1,108.89	96.0983	1,108.89	95.1591	1,108.89	95.5422	1,108.89	94.3731	1,108.89	94.7937	1,108.89	93.4541	1,108.89	93.7631	1,108.89	92.4116	1,108.89	92.4464	1,108.89	91.2659	1,108.89	91.0442	1,108.89	89.9962	1,108.89	89.9264	1,108.89	88.5917	1,108.89	89.1648	1,108.89	87.5435	1,108.89	88.3815	1,108.89	87.8775	1,108.89	87.5591	1,108.89	89.1548	1,108.89	87.5727	1,108.89	90.1437	1,108.89	88.6442	1,108.89	90.5044	1,108.89	89.7371	1,108.89	90.3526
1,148.44	97.0517	1,148.44	96.8658	1,148.44	97.0448	1,148.44	96.5446	1,148.44	96.8414	1,148.44	96.1592	1,148.44	96.5045	1,148.44	95.7472	1,148.44	96.1209	1,148.44	95.2794	1,148.44	95.7413	1,148.44	94.6872	1,148.44	95.3581	1,148.44	93.9247	1,148.44	94.8988	1,148.44	92.9652	1,148.44	94.2389	1,148.44	91.7278	1,148.44	93.2516	1,148.44	90.0367	1,148.44	91.8346	1,148.44	87.7301	1,148.44	89.8769	1,148.44	85.4271	1,148.44	87.3026	1,148.44	85.6529	1,148.44	84.8192	1,148.44	87.9085	1,148.44	84.979	1,148.44	89.7924	1,148.44	87.2161	1,148.44	90.8958	1,148.44	89.1928	1,148.44	91.3405	1,148.44	90.4988	1,148.44	91.2034
1,189.45	97.5444	1,189.45	97.3398	1,189.45	97.5565	1,189.45	96.9359	1,189.45	97.346	1,189.45	96.3079	1,189.45	96.881	1,189.45	95.4893	1,189.45	96.1936	1,189.45	94.6235	1,189.45	95.4444	1,189.45	93.883	1,189.45	94.8572	1,189.45	93.3132	1,189.45	94.4759	1,189.45	92.812	1,189.45	94.1155	1,189.45	92.2136	1,189.45	93.5886	1,189.45	91.2497	1,189.45	92.7683	1,189.45	89.4678	1,189.45	91.4848	1,189.45	86.3429	1,189.45	89.5249	1,189.45	82.9333	1,189.45	86.8154	1,189.45	84.8571	1,189.45	84.2644	1,189.45	88.241	1,189.45	84.911	1,189.45	90.2623	1,189.45	87.7002	1,189.45	91.1125	1,189.45	89.8666	1,189.45	90.9793
1,230.47	97.8464	1,230.47	97.6095	1,230.47	97.8026	1,230.47	97.1305	1,230.47	97.5054	1,230.47	96.5061	1,230.47	97.0213	1,230.47	95.8166	1,230.47	96.4248	1,230.47	95.051	1,230.47	95.7861	1,230.47	94.1892	1,230.47	95.1665	1,230.47	93.3839	1,230.47	94.5785	1,230.47	92.8521	1,230.47	93.9696	1,230.47	92.4188	1,230.47	93.2953	1,230.47	91.5605	1,230.47	92.526	1,230.47	89.8438	1,230.47	91.4841	1,230.47	87.0024	1,230.47	89.7822	1,230.47	83.3772	1,230.47	87.0825	1,230.47	83.3147	1,230.47	84.3778	1,230.47	86.8506	1,230.47	85.2552	1,230.47	89.3788	1,230.47	87.8218	1,230.47	90.5177	1,230.47	89.6357	1,230.47	90.5403
1,274.41	97.9957	1,274.41	97.7902	1,274.41	97.9762	1,274.41	97.3659	1,274.41	97.7038	1,274.41	96.7238	1,274.41	97.1537	1,274.41	95.8952	1,274.41	96.355	1,274.41	94.9666	1,274.41	95.4425	1,274.41	94.071	1,274.41	94.6334	1,274.41	93.2852	1,274.41	94.0273	1,274.41	92.5262	1,274.41	93.4755	1,274.41	91.6992	1,274.41	92.8096	1,274.41	90.8067	1,274.41	91.9991	1,274.41	89.6627	1,274.41	90.948	1,274.41	87.7157	1,274.41	89.341	1,274.41	84.6555	1,274.41	86.8713	1,274.41	83.4126	1,274.41	84.398	1,274.41	86.4694	1,274.41	85.2992	1,274.41	89.2427	1,274.41	88.0757	1,274.41	90.6887	1,274.41	90.0561	1,274.41	90.9282
1,319.82	97.7757	1,319.82	97.5039	1,319.82	97.8042	1,319.82	97.0124	1,319.82	97.5813	1,319.82	96.3669	1,319.82	97.0984	1,319.82	95.641	1,319.82	96.3465	1,319.82	94.8504	1,319.82	95.3482	1,319.82	93.9885	1,319.82	94.2725	1,319.82	93.0867	1,319.82	93.4467	1,319.82	92.2167	1,319.82	92.9726	1,319.82	91.5131	1,319.82	92.518	1,319.82	90.9409	1,319.82	91.7348	1,319.82	89.8827	1,319.82	90.4917	1,319.82	87.4137	1,319.82	88.6563	1,319.82	83.4923	1,319.82	85.8417	1,319.82	83.2234	1,319.82	82.1786	1,319.82	86.5469	1,319.82	83.0466	1,319.82	89.1112	1,319.82	87.1443	1,319.82	90.5983	1,319.82	89.7815	1,319.82	90.8715
1,366.7	97.3922	1,366.7	97.1804	1,366.7	97.4134	1,366.7	96.7611	1,366.7	97.2184	1,366.7	96.1052	1,366.7	96.7743	1,366.7	95.228	1,366.7	96.0573	1,366.7	94.1777	1,366.7	95.0406	1,366.7	93.0513	1,366.7	93.7852	1,366.7	92.0914	1,366.7	92.6165	1,366.7	91.5524	1,366.7	91.9305	1,366.7	91.3415	1,366.7	91.612	1,366.7	91.0207	1,366.7	91.2126	1,366.7	90.0401	1,366.7	90.4675	1,366.7	87.8512	1,366.7	89.1418	1,366.7	84.0046	1,366.7	86.6777	1,366.7	80.8729	1,366.7	82.3321	1,366.7	84.2688	1,366.7	80.5568	1,366.7	87.5989	1,366.7	85.1811	1,366.7	89.2618	1,366.7	88.2093	1,366.7	89.464
1,413.57	97.0992	1,413.57	96.9724	1,413.57	97.0093	1,413.57	96.519	1,413.57	96.7635	1,413.57	95.7456	1,413.57	96.3385	1,413.57	94.8192	1,413.57	95.6836	1,413.57	93.8262	1,413.57	94.7627	1,413.57	92.7078	1,413.57	93.6038	1,413.57	91.6605	1,413.57	92.3764	1,413.57	91.0345	1,413.57	91.3844	1,413.57	90.5704	1,413.57	90.8093	1,413.57	89.8272	1,413.57	90.4437	1,413.57	88.6692	1,413.57	89.8687	1,413.57	86.5114	1,413.57	88.6882	1,413.57	82.1253	1,413.57	86.4314	1,413.57	79.314	1,413.57	82.4182	1,413.57	84.3787	1,413.57	79.4911	1,413.57	87.5139	1,413.57	83.8383	1,413.57	88.7314	1,413.57	87.1302	1,413.57	88.6026
1,463.38	96.8154	1,463.38	96.653	1,463.38	96.8206	1,463.38	96.2756	1,463.38	96.6275	1,463.38	95.6504	1,463.38	96.1777	1,463.38	94.8217	1,463.38	95.5163	1,463.38	93.7889	1,463.38	94.6744	1,463.38	92.5434	1,463.38	93.5575	1,463.38	91.306	1,463.38	92.1647	1,463.38	90.3239	1,463.38	90.8315	1,463.38	89.4343	1,463.38	89.9056	1,463.38	88.5375	1,463.38	89.2579	1,463.38	87.6274	1,463.38	88.5441	1,463.38	85.9416	1,463.38	87.5432	1,463.38	82.2701	1,463.38	85.9789	1,463.38	78.1467	1,463.38	83.2707	1,463.38	82.5552	1,463.38	80.5886	1,463.38	86.0731	1,463.38	83.003	1,463.38	87.3848	1,463.38	85.8746	1,463.38	87.2478
1,516.11	97.0685	1,516.11	96.8579	1,516.11	97.007	1,516.11	96.4105	1,516.11	96.734	1,516.11	95.7697	1,516.11	96.343	1,516.11	94.9063	1,516.11	95.8274	1,516.11	93.7927	1,516.11	95.0367	1,516.11	92.4562	1,516.11	93.859	1,516.11	90.9766	1,516.11	92.4653	1,516.11	89.61	1,516.11	91.2098	1,516.11	88.679	1,516.11	90.2324	1,516.11	88.0893	1,516.11	89.5173	1,516.11	87.3634	1,516.11	89.0226	1,516.11	85.8836	1,516.11	88.2798	1,516.11	82.6522	1,516.11	86.4923	1,516.11	76.984	1,516.11	82.9613	1,516.11	81.1428	1,516.11	79.6176	1,516.11	85.6869	1,516.11	82.5978	1,516.11	87.3488	1,516.11	85.6922	1,516.11	87.221
1,568.85	97.489	1,568.85	97.3387	1,568.85	97.5637	1,568.85	97.0582	1,568.85	97.3678	1,568.85	96.4714	1,568.85	96.7898	1,568.85	95.6543	1,568.85	95.97	1,568.85	94.6996	1,568.85	95.0929	1,568.85	93.2121	1,568.85	94.1871	1,568.85	91.109	1,568.85	93.0817	1,568.85	89.5711	1,568.85	91.7361	1,568.85	89.0129	1,568.85	90.8546	1,568.85	88.3817	1,568.85	90.8519	1,568.85	87.8113	1,568.85	90.521	1,568.85	86.9621	1,568.85	89.2547	1,568.85	84.0829	1,568.85	87.2564	1,568.85	77.9412	1,568.85	83.5625	1,568.85	80.3765	1,568.85	77.6203	1,568.85	85.5196	1,568.85	82.1019	1,568.85	87.7797	1,568.85	86.2903	1,568.85	87.9457
1,624.51	97.5212	1,624.51	97.3302	1,624.51	97.6627	1,624.51	97.302	1,624.51	97.3723	1,624.51	96.955	1,624.51	96.685	1,624.51	95.945	1,624.51	95.8732	1,624.51	94.7441	1,624.51	94.9624	1,624.51	93.4436	1,624.51	93.823	1,624.51	91.5956	1,624.51	92.6215	1,624.51	90.102	1,624.51	91.549	1,624.51	89.8819	1,624.51	90.6536	1,624.51	89.2731	1,624.51	90.1226	1,624.51	88.1131	1,624.51	89.519	1,624.51	87.4135	1,624.51	88.1208	1,624.51	85.8723	1,624.51	86.0057	1,624.51	81.8514	1,624.51	83.3336	1,624.51	81.0751	1,624.51	79.4964	1,624.51	85.0865	1,624.51	81.1583	1,624.51	87.2603	1,624.51	85.6013	1,624.51	87.4623
1,681.64	97.1334	1,681.64	96.9905	1,681.64	97.1649	1,681.64	96.9698	1,681.64	96.8238	1,681.64	96.6606	1,681.64	96.1981	1,681.64	95.4154	1,681.64	95.5804	1,681.64	93.7441	1,681.64	94.7945	1,681.64	92.8111	1,681.64	93.3805	1,681.64	91.939	1,681.64	91.6921	1,681.64	90.381	1,681.64	90.6482	1,681.64	89.5851	1,681.64	89.9637	1,681.64	89.1068	1,681.64	89.2468	1,681.64	87.9552	1,681.64	88.9361	1,681.64	87.4592	1,681.64	88.295	1,681.64	86.2152	1,681.64	86.5885	1,681.64	80.8316	1,681.64	83.9561	1,681.64	80.3942	1,681.64	79.6162	1,681.64	84.6503	1,681.64	78.967	1,681.64	86.5725	1,681.64	85.3114	1,681.64	87.2847
1,741.7	97.035	1,741.7	96.842	1,741.7	96.8671	1,741.7	96.2706	1,741.7	96.6562	1,741.7	95.6646	1,741.7	96.2595	1,741.7	94.7813	1,741.7	95.4185	1,741.7	93.4612	1,741.7	94.4487	1,741.7	92.3378	1,741.7	93.6555	1,741.7	91.4515	1,741.7	92.6658	1,741.7	89.8607	1,741.7	91.0857	1,741.7	88.5119	1,741.7	89.3531	1,741.7	88.6848	1,741.7	88.3052	1,741.7	88.3492	1,741.7	88.437	1,741.7	86.9463	1,741.7	88.8293	1,741.7	85.0098	1,741.7	87.6986	1,741.7	80.995	1,741.7	84.435	1,741.7	78.1892	1,741.7	80.1149	1,741.7	82.2923	1,741.7	77.4852	1,741.7	84.4748	1,741.7	81.8778	1,741.7	84.6695
1,803.22	97.4574	1,803.22	97.3279	1,803.22	97.2667	1,803.22	96.6927	1,803.22	96.9749	1,803.22	95.7173	1,803.22	96.5446	1,803.22	94.6832	1,803.22	95.7632	1,803.22	93.6336	1,803.22	94.6746	1,803.22	92.5317	1,803.22	93.6048	1,803.22	91.1668	1,803.22	92.4972	1,803.22	89.2175	1,803.22	91.0469	1,803.22	87.5652	1,803.22	89.6051	1,803.22	87.7485	1,803.22	88.8645	1,803.22	88.3394	1,803.22	88.7174	1,803.22	87.9481	1,803.22	88.4224	1,803.22	85.6817	1,803.22	87.4288	1,803.22	80.5086	1,803.22	85.4897	1,803.22	78.1349	1,803.22	82.3274	1,803.22	82.3142	1,803.22	80.5302	1,803.22	84.3032	1,803.22	82.6935	1,803.22	84.3465
1,866.21	97.7261	1,866.21	97.4368	1,866.21	97.5551	1,866.21	96.7396	1,866.21	97.0811	1,866.21	95.8259	1,866.21	96.5094	1,866.21	95.0491	1,866.21	95.6268	1,866.21	94.3221	1,866.21	94.5066	1,866.21	93.2492	1,866.21	93.5919	1,866.21	91.7853	1,866.21	92.4722	1,866.21	89.7969	1,866.21	90.7484	1,866.21	87.7702	1,866.21	89.123	1,866.21	87.731	1,866.21	88.2436	1,866.21	88.6054	1,866.21	88.1863	1,866.21	88.293	1,866.21	88.5601	1,866.21	86.4203	1,866.21	88.1204	1,866.21	82.1175	1,866.21	86.0662	1,866.21	76.5675	1,866.21	82.5028	1,866.21	82.7664	1,866.21	81.5671	1,866.21	84.7962	1,866.21	84.1989	1,866.21	84.9854
1,932.13	97.1695	1,932.13	96.8535	1,932.13	97.1962	1,932.13	96.2486	1,932.13	96.7002	1,932.13	95.2973	1,932.13	95.7858	1,932.13	94.3733	1,932.13	94.7445	1,932.13	93.5884	1,932.13	93.6657	1,932.13	92.6278	1,932.13	92.5901	1,932.13	91.4145	1,932.13	91.4675	1,932.13	89.836	1,932.13	90.0406	1,932.13	88.0289	1,932.13	88.1607	1,932.13	87.223	1,932.13	86.2415	1,932.13	87.6964	1,932.13	85.4147	1,932.13	87.5669	1,932.13	86.2331	1,932.13	86.4953	1,932.13	86.8967	1,932.13	84.2472	1,932.13	85.7305	1,932.13	80.3533	1,932.13	81.6998	1,932.13	81.5376	1,932.13	77.6228	1,932.13	83.9814	1,932.13	81.599	1,932.13	84.0271
1,999.51	96.7568	1,999.51	96.5388	1,999.51	96.716	1,999.51	95.842	1,999.51	96.442	1,999.51	94.6788	1,999.51	95.8336	1,999.51	93.5179	1,999.51	94.9138	1,999.51	92.492	1,999.51	93.794	1,999.51	91.2091	1,999.51	92.6192	1,999.51	89.8411	1,999.51	91.5556	1,999.51	88.7897	1,999.51	90.3183	1,999.51	87.6509	1,999.51	88.4609	1,999.51	86.1639	1,999.51	86.6527	1,999.51	85.4352	1,999.51	86.0032	1,999.51	85.5868	1,999.51	86.1271	1,999.51	84.9785	1,999.51	86.1226	1,999.51	82.1236	1,999.51	85.1526	1,999.51	79.0015	1,999.51	82.418	1,999.51	81.4198	1,999.51	78.725	1,999.51	83.3115	1,999.51	80.3049	1,999.51	83.1708
2,069.82	97.6321	2,069.82	97.1866	2,069.82	97.4796	2,069.82	96.2693	2,069.82	97.1635	2,069.82	95.4222	2,069.82	96.7869	2,069.82	94.6193	2,069.82	95.9409	2,069.82	93.4112	2,069.82	94.6317	2,069.82	91.9318	2,069.82	93.4166	2,069.82	90.504	2,069.82	92.449	2,069.82	89.0465	2,069.82	91.2448	2,069.82	87.5694	2,069.82	89.5574	2,069.82	86.3723	2,069.82	87.8654	2,069.82	85.6975	2,069.82	87.0753	2,069.82	85.2654	2,069.82	87.3557	2,069.82	85.0749	2,069.82	87.4898	2,069.82	83.8261	2,069.82	86.6437	2,069.82	79.893	2,069.82	84.2597	2,069.82	80.415	2,069.82	81.7382	2,069.82	83.7032	2,069.82	82.963	2,069.82	84.4238
2,143.07	97.826	2,143.07	97.5784	2,143.07	97.7516	2,143.07	96.8938	2,143.07	97.3684	2,143.07	95.9014	2,143.07	96.6212	2,143.07	94.6684	2,143.07	95.669	2,143.07	93.3271	2,143.07	94.4025	2,143.07	92.2732	2,143.07	92.8075	2,143.07	91.2226	2,143.07	91.6736	2,143.07	90.0747	2,143.07	90.8552	2,143.07	88.9471	2,143.07	89.4692	2,143.07	87.0571	2,143.07	88.0275	2,143.07	85.8776	2,143.07	87.1422	2,143.07	86.4153	2,143.07	86.9109	2,143.07	86.6312	2,143.07	86.8679	2,143.07	85.6143	2,143.07	86.2082	2,143.07	82.8707	2,143.07	84.1519	2,143.07	80.8788	2,143.07	80.8697	2,143.07	83.0304	2,143.07	82.3403	2,143.07	83.9571
2,219.24	96.7998	2,219.24	96.4304	2,219.24	96.9062	2,219.24	95.5472	2,219.24	96.5725	2,219.24	94.6873	2,219.24	95.4542	2,219.24	94.0066	2,219.24	94.1645	2,219.24	92.897	2,219.24	93.149	2,219.24	91.7558	2,219.24	91.9878	2,219.24	90.8429	2,219.24	90.6065	2,219.24	89.9072	2,219.24	89.0034	2,219.24	89.1883	2,219.24	87.696	2,219.24	87.8906	2,219.24	87.3812	2,219.24	85.5153	2,219.24	86.9331	2,219.24	84.7697	2,219.24	86.3898	2,219.24	85.3636	2,219.24	86.6249	2,219.24	84.1289	2,219.24	86.4917	2,219.24	82.1999	2,219.24	84.7332	2,219.24	82.8984	2,219.24	81.5095	2,219.24	84.6264	2,219.24	80.41	2,219.24	83.8754
2,296.88	96.38	2,296.88	96.1137	2,296.88	96.4681	2,296.88	95.7085	2,296.88	96.2511	2,296.88	94.6896	2,296.88	95.8685	2,296.88	93.1326	2,296.88	95.2069	2,296.88	91.9749	2,296.88	94.1065	2,296.88	91.0329	2,296.88	92.9496	2,296.88	89.644	2,296.88	91.6912	2,296.88	88.6201	2,296.88	89.85	2,296.88	87.9585	2,296.88	88.6662	2,296.88	87.294	2,296.88	88.9986	2,296.88	86.667	2,296.88	88.6851	2,296.88	85.3823	2,296.88	87.2726	2,296.88	84.3115	2,296.88	87.0472	2,296.88	84.1819	2,296.88	86.9723	2,296.88	82.2835	2,296.88	85.1264	2,296.88	81.0892	2,296.88	83.1273	2,296.88	81.7655	2,296.88	80.5795	2,296.88	79.6631
2,378.91	97.4963	2,378.91	97.1007	2,378.91	97.3309	2,378.91	96.1719	2,378.91	96.8478	2,378.91	95.3391	2,378.91	96.2006	2,378.91	94.3615	2,378.91	95.7197	2,378.91	92.6673	2,378.91	95.035	2,378.91	91.1756	2,378.91	93.777	2,378.91	90.2722	2,378.91	92.7349	2,378.91	89.1063	2,378.91	91.7978	2,378.91	87.6941	2,378.91	90.2949	2,378.91	86.6298	2,378.91	89.2493	2,378.91	86.0333	2,378.91	88.746	2,378.91	85.9992	2,378.91	88.7282	2,378.91	86.2858	2,378.91	89.0123	2,378.91	84.9013	2,378.91	88.1977	2,378.91	83.4521	2,378.91	85.3526	2,378.91	82.1698	2,378.91	83.4697	2,378.91	81.4596	2,378.91	84.5049	2,378.91	83.5634
2,462.4	97.3456	2,462.4	96.9772	2,462.4	97.3213	2,462.4	96.2066	2,462.4	96.9588	2,462.4	95.2844	2,462.4	96.3161	2,462.4	94.1768	2,462.4	95.4828	2,462.4	92.9213	2,462.4	94.3578	2,462.4	91.8344	2,462.4	93.2793	2,462.4	90.5271	2,462.4	92.2132	2,462.4	88.8939	2,462.4	90.7881	2,462.4	88.1749	2,462.4	89.1918	2,462.4	87.8694	2,462.4	87.8103	2,462.4	86.681	2,462.4	87.2072	2,462.4	85.7593	2,462.4	87.205	2,462.4	85.9355	2,462.4	87.6642	2,462.4	85.6927	2,462.4	87.4812	2,462.4	84.0438	2,462.4	86.0444	2,462.4	83.2447	2,462.4	84.0566	2,462.4	83.8507	2,462.4	81.8646	2,462.4	82.778
2,548.83	97.0757	2,548.83	96.6046	2,548.83	96.7855	2,548.83	95.2559	2,548.83	96.4473	2,548.83	93.8667	2,548.83	95.9542	2,548.83	92.8246	2,548.83	94.8423	2,548.83	91.7747	2,548.83	93.7731	2,548.83	90.6363	2,548.83	92.7332	2,548.83	89.4823	2,548.83	91.3136	2,548.83	88.396	2,548.83	90.2816	2,548.83	87.1436	2,548.83	89.3999	2,548.83	85.9014	2,548.83	87.8744	2,548.83	85.2896	2,548.83	86.3054	2,548.83	85.6542	2,548.83	86.35	2,548.83	86.2273	2,548.83	87.6138	2,548.83	85.4016	2,548.83	87.9776	2,548.83	83.0774	2,548.83	86.5223	2,548.83	80.221	2,548.83	84.6985	2,548.83	79.797	2,548.83	84.0678	2,548.83	81.9353
2,639.65	97.4313	2,639.65	96.7311	2,639.65	97.7003	2,639.65	95.9797	2,639.65	97.3893	2,639.65	94.9058	2,639.65	96.6926	2,639.65	93.139	2,639.65	95.9905	2,639.65	91.2526	2,639.65	94.9927	2,639.65	89.6214	2,639.65	93.4494	2,639.65	88.4327	2,639.65	91.9765	2,639.65	87.539	2,639.65	90.911	2,639.65	86.4935	2,639.65	90.0212	2,639.65	85.1793	2,639.65	88.8096	2,639.65	83.7885	2,639.65	87.2926	2,639.65	83.7157	2,639.65	86.5271	2,639.65	85.1094	2,639.65	87.3523	2,639.65	85.062	2,639.65	87.8677	2,639.65	82.4785	2,639.65	86.905	2,639.65	81.3715	2,639.65	84.2872	2,639.65	82.8792	2,639.65	82.2905	2,639.65	83.0198
2,731.93	97.9784	2,731.93	97.4913	2,731.93	97.9932	2,731.93	96.6653	2,731.93	97.6018	2,731.93	95.473	2,731.93	97.1131	2,731.93	94.2175	2,731.93	96.1186	2,731.93	92.6933	2,731.93	94.7822	2,731.93	90.5711	2,731.93	93.7211	2,731.93	89.0884	2,731.93	92.6216	2,731.93	88.6305	2,731.93	91.4328	2,731.93	87.3538	2,731.93	90.1316	2,731.93	85.1529	2,731.93	88.7765	2,731.93	84.4237	2,731.93	87.8962	2,731.93	85.2305	2,731.93	87.0827	2,731.93	85.6696	2,731.93	86.89	2,731.93	84.5902	2,731.93	87.5699	2,731.93	82.1117	2,731.93	86.7696	2,731.93	79.7744	2,731.93	84.3769	2,731.93	81.3995	2,731.93	83.1049	2,731.93	82.7163
2,828.61	97.3859	2,828.61	96.991	2,828.61	97.3798	2,828.61	96.1235	2,828.61	97.2326	2,828.61	95.0313	2,828.61	96.8378	2,828.61	93.9738	2,828.61	95.9289	2,828.61	92.6197	2,828.61	94.6887	2,828.61	90.9957	2,828.61	93.4172	2,828.61	89.5663	2,828.61	92.1909	2,828.61	88.7741	2,828.61	91.0085	2,828.61	88.2684	2,828.61	89.4912	2,828.61	86.4639	2,828.61	88.2654	2,828.61	84.7724	2,828.61	87.6688	2,828.61	85.1676	2,828.61	86.3869	2,828.61	85.9453	2,828.61	85.4593	2,828.61	86.447	2,828.61	86.0327	2,828.61	85.1821	2,828.61	85.8146	2,828.61	82.7986	2,828.61	83.8367	2,828.61	83.3844	2,828.61	81.5171	2,828.61	83.182
2,928.22	97.6088	2,928.22	97.2265	2,928.22	97.4956	2,928.22	96.2989	2,928.22	97.3787	2,928.22	95.5048	2,928.22	96.9535	2,928.22	94.6257	2,928.22	95.9685	2,928.22	93.3901	2,928.22	94.8082	2,928.22	91.9756	2,928.22	93.4008	2,928.22	90.541	2,928.22	92.2778	2,928.22	89.4214	2,928.22	91.1325	2,928.22	88.2586	2,928.22	89.4723	2,928.22	87.102	2,928.22	88.4708	2,928.22	86.0447	2,928.22	88.1964	2,928.22	85.6947	2,928.22	88.1624	2,928.22	85.7876	2,928.22	87.1209	2,928.22	85.8226	2,928.22	86.1949	2,928.22	85.3941	2,928.22	86.557	2,928.22	82.7126	2,928.22	85.3014	2,928.22	82.0085	2,928.22	82.2037	2,928.22	81.7876
3,030.76	97.8133	3,030.76	97.4879	3,030.76	97.8707	3,030.76	97.0767	3,030.76	97.4961	3,030.76	96.4201	3,030.76	96.7467	3,030.76	95.1447	3,030.76	96.0303	3,030.76	93.7212	3,030.76	94.743	3,030.76	92.5553	3,030.76	93.125	3,030.76	91.5639	3,030.76	91.9068	3,030.76	89.8455	3,030.76	90.4565	3,030.76	88.1995	3,030.76	89.274	3,030.76	87.5464	3,030.76	88.3229	3,030.76	85.7209	3,030.76	87.3225	3,030.76	84.9858	3,030.76	86.5977	3,030.76	86.7986	3,030.76	85.8705	3,030.76	87.4163	3,030.76	85.8254	3,030.76	86.3388	3,030.76	86.349	3,030.76	83.253	3,030.76	84.8938	3,030.76	81.185	3,030.76	80.9605	3,030.76	80.0065
3,137.7	98.4643	3,137.7	98.1485	3,137.7	98.6043	3,137.7	97.9495	3,137.7	97.9836	3,137.7	97.0292	3,137.7	97.2393	3,137.7	95.7692	3,137.7	96.2816	3,137.7	94.3494	3,137.7	94.9661	3,137.7	92.3946	3,137.7	93.9424	3,137.7	90.8632	3,137.7	92.5892	3,137.7	89.4803	3,137.7	91.2662	3,137.7	88.0094	3,137.7	90.2495	3,137.7	87.1631	3,137.7	88.6074	3,137.7	86.4679	3,137.7	87.1276	3,137.7	85.7503	3,137.7	86.2899	3,137.7	86.3154	3,137.7	86.1759	3,137.7	85.505	3,137.7	86.9453	3,137.7	83.3391	3,137.7	86.4707	3,137.7	79.3867	3,137.7	85.0132	3,137.7	74.6498	3,137.7	83.3515	3,137.7	78.6691
3,249.02	98.4398	3,249.02	98.237	3,249.02	98.2882	3,249.02	97.8508	3,249.02	97.7578	3,249.02	97.0276	3,249.02	97.3978	3,249.02	96.1649	3,249.02	96.4749	3,249.02	94.8009	3,249.02	95.3688	3,249.02	92.6154	3,249.02	94.2555	3,249.02	90.6632	3,249.02	92.5066	3,249.02	89.949	3,249.02	91.1353	3,249.02	89.002	3,249.02	90.3465	3,249.02	87.5843	3,249.02	89.0722	3,249.02	87.2521	3,249.02	86.7568	3,249.02	86.9368	3,249.02	85.1506	3,249.02	86.9368	3,249.02	84.421	3,249.02	86.542	3,249.02	84.7596	3,249.02	84.7724	3,249.02	84.9458	3,249.02	82.6323	3,249.02	84.5019	3,249.02	79.2379	3,249.02	82.9982	3,249.02	80.0726
3,363.28	98.8952	3,363.28	98.6209	3,363.28	98.6023	3,363.28	97.8303	3,363.28	98.4649	3,363.28	97.1086	3,363.28	97.9787	3,363.28	96.3749	3,363.28	96.7857	3,363.28	95.3903	3,363.28	95.8053	3,363.28	93.5451	3,363.28	94.6238	3,363.28	90.5078	3,363.28	93.4468	3,363.28	88.929	3,363.28	91.9834	3,363.28	88.3158	3,363.28	90.775	3,363.28	87.1457	3,363.28	90.0779	3,363.28	87.2652	3,363.28	88.7398	3,363.28	86.4091	3,363.28	87.554	3,363.28	84.6361	3,363.28	85.9302	3,363.28	84.2892	3,363.28	84.3969	3,363.28	84.5148	3,363.28	85.8133	3,363.28	83.6848	3,363.28	85.4598	3,363.28	81.2552	3,363.28	82.6914	3,363.28	80.4543
3,481.93	99.3614	3,481.93	98.8536	3,481.93	99.1301	3,481.93	97.9264	3,481.93	99.0406	3,481.93	97.4635	3,481.93	98.2315	3,481.93	96.5713	3,481.93	97.2302	3,481.93	95.5053	3,481.93	96.6026	3,481.93	94.2874	3,481.93	95.4639	3,481.93	92.3609	3,481.93	93.6823	3,481.93	89.8088	3,481.93	91.3655	3,481.93	88.5466	3,481.93	90.5285	3,481.93	88.1339	3,481.93	90.1152	3,481.93	87.1263	3,481.93	88.5331	3,481.93	85.7678	3,481.93	87.266	3,481.93	84.6926	3,481.93	87.2846	3,481.93	86.4482	3,481.93	87.0397	3,481.93	86.5315	3,481.93	87.2165	3,481.93	84.677	3,481.93	86.1161	3,481.93	83.7859	3,481.93	81.2973	3,481.93	80.946
3,604.98	99.32	3,604.98	98.9237	3,604.98	99.6505	3,604.98	98.7018	3,604.98	98.9203	3,604.98	97.6025	3,604.98	97.9037	3,604.98	96.1712	3,604.98	97.658	3,604.98	95.3211	3,604.98	96.6394	3,604.98	94.7576	3,604.98	95.6299	3,604.98	93.5558	3,604.98	94.2311	3,604.98	90.2954	3,604.98	92.653	3,604.98	88.8408	3,604.98	91.4594	3,604.98	89.1565	3,604.98	90.0911	3,604.98	87.3918	3,604.98	88.5129	3,604.98	85.7754	3,604.98	86.26	3,604.98	85.116	3,604.98	86.3558	3,604.98	86.5828	3,604.98	86.7305	3,604.98	86.9738	3,604.98	85.7792	3,604.98	83.3516	3,604.98	85.3752	3,604.98	82.4773	3,604.98	83.3693	3,604.98	81.7144
3,732.42	99.38	3,732.42	99.3548	3,732.42	99.4476	3,732.42	99.3535	3,732.42	98.7656	3,732.42	98.4048	3,732.42	98.491	3,732.42	97.4028	3,732.42	97.6775	3,732.42	95.8573	3,732.42	96.5136	3,732.42	94.3234	3,732.42	95.8151	3,732.42	93.0068	3,732.42	94.2947	3,732.42	91.025	3,732.42	92.4368	3,732.42	89.8441	3,732.42	90.9147	3,732.42	89.1863	3,732.42	90.3125	3,732.42	87.459	3,732.42	89.0236	3,732.42	86.7334	3,732.42	87.6148	3,732.42	87.873	3,732.42	87.0074	3,732.42	88.1742	3,732.42	85.9318	3,732.42	87.8251	3,732.42	85.9329	3,732.42	85.2093	3,732.42	87.0871	3,732.42	80.9203	3,732.42	85.3689	3,732.42	81.1243
3,864.26	99.7952	3,864.26	99.6433	3,864.26	99.5756	3,864.26	99.158	3,864.26	99.5863	3,864.26	98.7373	3,864.26	99.4965	3,864.26	97.9327	3,864.26	98.4916	3,864.26	96.1702	3,864.26	97.8419	3,864.26	94.273	3,864.26	96.5947	3,864.26	92.2103	3,864.26	95.0495	3,864.26	91.1324	3,864.26	92.7715	3,864.26	89.7499	3,864.26	90.9161	3,864.26	87.7471	3,864.26	90.5489	3,864.26	86.5581	3,864.26	88.8595	3,864.26	86.3196	3,864.26	87.9139	3,864.26	87.1155	3,864.26	87.45	3,864.26	86.4688	3,864.26	87.0382	3,864.26	86.6024	3,864.26	88.0726	3,864.26	85.7977	3,864.26	87.9508	3,864.26	81.5672	3,864.26	85.7157	3,864.26	82.1534
4,000.49	100.334	4,000.49	100.074	4,000.49	99.9784	4,000.49	99.0986	4,000.49	100.289	4,000.49	99.0486	4,000.49	99.795	4,000.49	98.5649	4,000.49	99.2233	4,000.49	97.0439	4,000.49	98.4963	4,000.49	94.7114	4,000.49	96.8852	4,000.49	92.2326	4,000.49	95.2757	4,000.49	90.7209	4,000.49	93.5701	4,000.49	89.6939	4,000.49	92.13	4,000.49	88.3333	4,000.49	90.2122	4,000.49	87.9444	4,000.49	89.1849	4,000.49	87.8206	4,000.49	87.7554	4,000.49	86.05	4,000.49	87.1919	4,000.49	85.844	4,000.49	87.755	4,000.49	86.6233	4,000.49	87.1948	4,000.49	85.6625	4,000.49	86.8994	4,000.49	82.6119	4,000.49	85.3243	4,000.49	82.4168
4,141.11	100.519	4,141.11	100.063	4,141.11	100.926	4,141.11	99.5362	4,141.11	100.521	4,141.11	98.5631	4,141.11	99.9282	4,141.11	97.8158	4,141.11	100.013	4,141.11	97.11	4,141.11	98.9913	4,141.11	95.7021	4,141.11	97.316	4,141.11	93.8927	4,141.11	95.1996	4,141.11	90.8034	4,141.11	93.7893	4,141.11	88.8863	4,141.11	92.0806	4,141.11	88.7467	4,141.11	89.9362	4,141.11	87.3513	4,141.11	88.9685	4,141.11	86.7782	4,141.11	88.4113	4,141.11	86.8306	4,141.11	88.912	4,141.11	87.2674	4,141.11	89.2993	4,141.11	87.0555	4,141.11	88.4084	4,141.11	84.4871	4,141.11	87.6189	4,141.11	84.3786	4,141.11	83.9827	4,141.11	82.7932
4,287.6	100.3	4,287.6	99.9451	4,287.6	100.955	4,287.6	100.397	4,287.6	100.293	4,287.6	99.4546	4,287.6	100.731	4,287.6	98.1482	4,287.6	100.48	4,287.6	97.4413	4,287.6	99.3604	4,287.6	97.0425	4,287.6	98.4644	4,287.6	95.5107	4,287.6	97.1918	4,287.6	93.1372	4,287.6	94.9114	4,287.6	90.5458	4,287.6	91.9882	4,287.6	88.7539	4,287.6	90.4207	4,287.6	87.3318	4,287.6	90.2281	4,287.6	86.9043	4,287.6	89.4721	4,287.6	88.3929	4,287.6	88.3416	4,287.6	86.5787	4,287.6	88.8208	4,287.6	87.0489	4,287.6	88.4295	4,287.6	86.5336	4,287.6	87.3633	4,287.6	80.348	4,287.6	86.3458	4,287.6	80.8162
4,438.48	99.7763	4,438.48	100.595	4,438.48	99.0824	4,438.48	100.498	4,438.48	100.867	4,438.48	100.814	4,438.48	101.404	4,438.48	99.9473	4,438.48	100.255	4,438.48	97.6998	4,438.48	99.7442	4,438.48	95.5491	4,438.48	98.1615	4,438.48	93.6871	4,438.48	96.2998	4,438.48	92.2148	4,438.48	94.8333	4,438.48	90.3978	4,438.48	92.8112	4,438.48	88.3954	4,438.48	90.4122	4,438.48	86.7876	4,438.48	90.8019	4,438.48	86.4068	4,438.48	89.8256	4,438.48	87.8465	4,438.48	87.6266	4,438.48	87.5792	4,438.48	88.2392	4,438.48	85.129	4,438.48	87.8508	4,438.48	83.3151	4,438.48	87.1517	4,438.48	76.1846	4,438.48	86.565	4,438.48	79.5348
4,595.21	99.8637	4,595.21	99.8593	4,595.21	100.317	4,595.21	99.6664	4,595.21	101.027	4,595.21	99.6227	4,595.21	101.041	4,595.21	99.517	4,595.21	101.437	4,595.21	98.1501	4,595.21	100.589	4,595.21	94.6482	4,595.21	98.6022	4,595.21	92.7616	4,595.21	96.0929	4,595.21	91.6336	4,595.21	94.4485	4,595.21	89.8638	4,595.21	92.7794	4,595.21	87.9466	4,595.21	90.4833	4,595.21	87.3262	4,595.21	89.7211	4,595.21	86.0819	4,595.21	89.1012	4,595.21	85.2036	4,595.21	88.9774	4,595.21	87.5097	4,595.21	89.3925	4,595.21	87.233	4,595.21	88.0804	4,595.21	84.1074	4,595.21	86.0687	4,595.21	84.2035	4,595.21	82.643	4,595.21	82.4754
4,756.35	100.617	4,756.35	100.757	4,756.35	101.896	4,756.35	101.478	4,756.35	101.452	4,756.35	100.105	4,756.35	101.642	4,756.35	99.285	4,756.35	101.852	4,756.35	98.3887	4,756.35	100.817	4,756.35	96.8342	4,756.35	99.1753	4,756.35	94.6518	4,756.35	96.9422	4,756.35	92.194	4,756.35	94.1526	4,756.35	89.5059	4,756.35	92.2813	4,756.35	87.471	4,756.35	91.0154	4,756.35	87.2591	4,756.35	89.0992	4,756.35	85.2792	4,756.35	89.1403	4,756.35	85.8452	4,756.35	88.5083	4,756.35	87.605	4,756.35	88.2528	4,756.35	87.8565	4,756.35	88.6346	4,756.35	86.6965	4,756.35	87.879	4,756.35	81.9623	4,756.35	86.732	4,756.35	83.5037
4,924.8	100.152	4,924.8	101.091	4,924.8	99.2174	4,924.8	100.682	4,924.8	100.684	4,924.8	101.017	4,924.8	101.571	4,924.8	100.256	4,924.8	100.674	4,924.8	97.3701	4,924.8	99.881	4,924.8	95.7157	4,924.8	98.8595	4,924.8	94.0437	4,924.8	96.6509	4,924.8	91.6901	4,924.8	94.7079	4,924.8	90.266	4,924.8	93.0711	4,924.8	88.86	4,924.8	89.7609	4,924.8	87.9537	4,924.8	89.2988	4,924.8	88.4053	4,924.8	89.438	4,924.8	88.8365	4,924.8	88.1808	4,924.8	89.2115	4,924.8	87.5702	4,924.8	88.1893	4,924.8	88.0945	4,924.8	85.6092	4,924.8	88.9016	4,924.8	80.2753	4,924.8	86.0866	4,924.8	78.4766
5,097.66	100.467	5,097.66	100.334	5,097.66	100.386	5,097.66	100.669	5,097.66	100.983	5,097.66	101.032	5,097.66	101.559	5,097.66	99.8628	5,097.66	101.458	5,097.66	98.023	5,097.66	100.656	5,097.66	95.3063	5,097.66	98.5665	5,097.66	91.9572	5,097.66	95.6063	5,097.66	90.0394	5,097.66	94.5079	5,097.66	88.9649	5,097.66	92.7888	5,097.66	86.2689	5,097.66	90.1972	5,097.66	84.9923	5,097.66	87.923	5,097.66	85.3319	5,097.66	87.2641	5,097.66	85.8783	5,097.66	87.1007	5,097.66	86.5484	5,097.66	88.1604	5,097.66	86.8173	5,097.66	88.1698	5,097.66	87.7099	5,097.66	87.8509	5,097.66	85.7711	5,097.66	85.4658	5,097.66	81.5324
5,277.83	99.828	5,277.83	100.304	5,277.83	100.976	5,277.83	101.165	5,277.83	101.423	5,277.83	100.212	5,277.83	101.545	5,277.83	99.0849	5,277.83	101.297	5,277.83	97.6014	5,277.83	100.492	5,277.83	95.2773	5,277.83	98.3255	5,277.83	92.223	5,277.83	96.1217	5,277.83	90.9682	5,277.83	93.2808	5,277.83	88.5222	5,277.83	91.6065	5,277.83	86.1935	5,277.83	90.3542	5,277.83	87.1815	5,277.83	87.7521	5,277.83	86.6291	5,277.83	87.7739	5,277.83	84.4501	5,277.83	87.1497	5,277.83	84.6862	5,277.83	86.3418	5,277.83	87.3684	5,277.83	87.9352	5,277.83	86.6747	5,277.83	86.6819	5,277.83	79.8959	5,277.83	84.5658	5,277.83	80.009
5,463.87	99.3834	5,463.87	100.728	5,463.87	98.8103	5,463.87	100.48	5,463.87	100.474	5,463.87	100.233	5,463.87	100.951	5,463.87	99.426	5,463.87	100.608	5,463.87	97.3238	5,463.87	99.4651	5,463.87	94.7916	5,463.87	97.7345	5,463.87	92.6481	5,463.87	96.0415	5,463.87	91.1989	5,463.87	94.3491	5,463.87	88.8535	5,463.87	92.5265	5,463.87	87.4068	5,463.87	88.4814	5,463.87	86.8576	5,463.87	88.0232	5,463.87	85.9616	5,463.87	87.9003	5,463.87	86.0149	5,463.87	87.4292	5,463.87	87.9456	5,463.87	87.4864	5,463.87	87.9972	5,463.87	87.7141	5,463.87	85.5071	5,463.87	87.9389	5,463.87	79.0645	5,463.87	84.4256	5,463.87	77.4564
5,657.23	100.047	5,657.23	100.282	5,657.23	100.006	5,657.23	100.695	5,657.23	100.372	5,657.23	100.692	5,657.23	100.977	5,657.23	99.4166	5,657.23	100.65	5,657.23	97.1888	5,657.23	99.3085	5,657.23	94.82	5,657.23	97.7867	5,657.23	92.8388	5,657.23	95.3095	5,657.23	89.9628	5,657.23	93.2473	5,657.23	86.8461	5,657.23	90.4699	5,657.23	85.6367	5,657.23	88.5748	5,657.23	83.8933	5,657.23	87.408	5,657.23	84.5196	5,657.23	87.0078	5,657.23	86.5742	5,657.23	86.4131	5,657.23	86.6674	5,657.23	85.8483	5,657.23	85.8713	5,657.23	85.8043	5,657.23	84.0658	5,657.23	85.6415	5,657.23	78.5089	5,657.23	82.6216	5,657.23	74.1848
5,856.45	99.022	5,856.45	99.4876	5,856.45	99.5395	5,856.45	100.268	5,856.45	100.398	5,856.45	100.013	5,856.45	100.816	5,856.45	98.7501	5,856.45	100.38	5,856.45	97.0882	5,856.45	98.9472	5,856.45	95.5043	5,856.45	96.7263	5,856.45	93.1229	5,856.45	94.7546	5,856.45	90.3775	5,856.45	93.0681	5,856.45	88.8768	5,856.45	91.4899	5,856.45	86.8677	5,856.45	88.5201	5,856.45	86.6085	5,856.45	87.8397	5,856.45	88.208	5,856.45	86.8444	5,856.45	87.3801	5,856.45	84.8478	5,856.45	86.071	5,856.45	82.9165	5,856.45	85.4785	5,856.45	83.7426	5,856.45	82.0036	5,856.45	86.3075	5,856.45	67.4551	5,856.45	83.5578	5,856.45	68.6854
6,062.99	99.426	6,062.99	100.209	6,062.99	99.4159	6,062.99	100.229	6,062.99	100.179	6,062.99	100.055	6,062.99	100.339	6,062.99	99.6065	6,062.99	99.8683	6,062.99	97.839	6,062.99	98.4326	6,062.99	95.3623	6,062.99	96.4747	6,062.99	92.8427	6,062.99	93.8461	6,062.99	91.7129	6,062.99	93.4735	6,062.99	89.8245	6,062.99	91.0132	6,062.99	87.643	6,062.99	87.4422	6,062.99	86.5689	6,062.99	86.0055	6,062.99	86.5243	6,062.99	84.2349	6,062.99	86.1562	6,062.99	84.6122	6,062.99	85.8743	6,062.99	85.5424	6,062.99	85.1649	6,062.99	85.9301	6,062.99	82.4054	6,062.99	85.1922	6,062.99	77.5693	6,062.99	80.1785	6,062.99	73.0413
6,276.86	100.182	6,276.86	100.562	6,276.86	100.397	6,276.86	100.761	6,276.86	100.54	6,276.86	100.38	6,276.86	100.392	6,276.86	99.2348	6,276.86	99.682	6,276.86	97.0114	6,276.86	98.5831	6,276.86	94.9003	6,276.86	96.6562	6,276.86	93.3323	6,276.86	93.921	6,276.86	92.0246	6,276.86	90.3535	6,276.86	89.3972	6,276.86	88.1432	6,276.86	86.0325	6,276.86	87.6047	6,276.86	83.2003	6,276.86	84.7687	6,276.86	84.7968	6,276.86	84.7504	6,276.86	86.2233	6,276.86	86.4114	6,276.86	85.0062	6,276.86	85.2862	6,276.86	85.5759	6,276.86	83.8004	6,276.86	83.8041	6,276.86	84.4105	6,276.86	76.0189	6,276.86	82.1518	6,276.86	76.4096
6,498.05	100.459	6,498.05	100.554	6,498.05	100.372	6,498.05	100.24	6,498.05	100.619	6,498.05	99.7494	6,498.05	100.363	6,498.05	98.5762	6,498.05	99.3585	6,498.05	96.9703	6,498.05	98.0752	6,498.05	95.3203	6,498.05	95.9758	6,498.05	92.6943	6,498.05	93.2903	6,498.05	89.7333	6,498.05	91.9801	6,498.05	87.2248	6,498.05	90.0611	6,498.05	87.2138	6,498.05	86.5397	6,498.05	85.0841	6,498.05	85.588	6,498.05	79.9418	6,498.05	83.9881	6,498.05	81.4229	6,498.05	83.0958	6,498.05	84.4105	6,498.05	84.9749	6,498.05	84.1331	6,498.05	83.8045	6,498.05	81.9409	6,498.05	83.6285	6,498.05	70.153	6,498.05	81.8605	6,498.05	65.854
6,726.56	100.961	6,726.56	100.316	6,726.56	101.069	6,726.56	99.8171	6,726.56	100.712	6,726.56	99.485	6,726.56	100.013	6,726.56	98.427	6,726.56	99.1263	6,726.56	96.6976	6,726.56	97.9624	6,726.56	94.482	6,726.56	95.876	6,726.56	92.1794	6,726.56	93.4637	6,726.56	90.1037	6,726.56	91.9696	6,726.56	87.223	6,726.56	89.1959	6,726.56	83.5818	6,726.56	86.1608	6,726.56	83.5524	6,726.56	83.6066	6,726.56	84.0771	6,726.56	82.7359	6,726.56	83.1091	6,726.56	83.7387	6,726.56	83.8832	6,726.56	84.4414	6,726.56	83.8841	6,726.56	84.0673	6,726.56	81.4335	6,726.56	82.7945	6,726.56	72.9119	6,726.56	79.5894	6,726.56	71.1982
6,963.87	100.536	6,963.87	100.282	6,963.87	100.408	6,963.87	99.5065	6,963.87	100.205	6,963.87	98.8617	6,963.87	99.4709	6,963.87	97.8111	6,963.87	98.4846	6,963.87	96.1543	6,963.87	97.5992	6,963.87	94.0679	6,963.87	95.7216	6,963.87	91.5347	6,963.87	93.423	6,963.87	89.176	6,963.87	91.0004	6,963.87	86.1007	6,963.87	89.2617	6,963.87	85.1679	6,963.87	86.7228	6,963.87	83.6392	6,963.87	83.2944	6,963.87	83.3999	6,963.87	83.4666	6,963.87	83.2604	6,963.87	83.9705	6,963.87	83.2287	6,963.87	82.3559	6,963.87	83.5948	6,963.87	81.5485	6,963.87	80.5018	6,963.87	82.4156	6,963.87	66.2476	6,963.87	81.3339	6,963.87	72.3366
7,209.96	100.708	7,209.96	100.047	7,209.96	100.511	7,209.96	99.0392	7,209.96	100.004	7,209.96	98.5238	7,209.96	99.1861	7,209.96	97.4784	7,209.96	98.5196	7,209.96	96.0731	7,209.96	97.4096	7,209.96	94.0713	7,209.96	95.3221	7,209.96	91.7126	7,209.96	93.1685	7,209.96	89.0376	7,209.96	91.0973	7,209.96	86.0141	7,209.96	88.0796	7,209.96	83.5557	7,209.96	85.3643	7,209.96	82.1562	7,209.96	85.5759	7,209.96	83.7791	7,209.96	84.3601	7,209.96	83.4766	7,209.96	83.9163	7,209.96	81.5717	7,209.96	84.2252	7,209.96	82.0106	7,209.96	83.864	7,209.96	79.8677	7,209.96	83.5887	7,209.96	77.0057	7,209.96	80.0699	7,209.96	75.5633
7,464.84	100.465	7,464.84	99.7347	7,464.84	100.262	7,464.84	98.6855	7,464.84	99.6138	7,464.84	98.3286	7,464.84	98.7991	7,464.84	97.5293	7,464.84	98.4189	7,464.84	96.084	7,464.84	97.3587	7,464.84	93.3119	7,464.84	95.8417	7,464.84	91.2962	7,464.84	92.9169	7,464.84	88.3933	7,464.84	91.3553	7,464.84	86.2502	7,464.84	88.4164	7,464.84	85.1651	7,464.84	86.2411	7,464.84	83.5577	7,464.84	84.308	7,464.84	82.6267	7,464.84	84.0746	7,464.84	84.0599	7,464.84	83.9506	7,464.84	84.6131	7,464.84	83.2236	7,464.84	82.6691	7,464.84	82.9369	7,464.84	79.8038	7,464.84	82.9052	7,464.84	78.8911	7,464.84	81.1756	7,464.84	79.0547
7,727.05	100.485	7,727.05	99.3405	7,727.05	100.275	7,727.05	98.0692	7,727.05	99.1213	7,727.05	97.6497	7,727.05	98.4061	7,727.05	97.1446	7,727.05	98.3244	7,727.05	95.5775	7,727.05	97.5736	7,727.05	93.8848	7,727.05	96.0152	7,727.05	91.3176	7,727.05	93.6278	7,727.05	89.026	7,727.05	91.3917	7,727.05	86.7604	7,727.05	88.6073	7,727.05	83.6942	7,727.05	86.49	7,727.05	82.2	7,727.05	83.94	7,727.05	82.7679	7,727.05	83.4766	7,727.05	83.4215	7,727.05	83.4259	7,727.05	83.063	7,727.05	83.9231	7,727.05	81.9515	7,727.05	85.2905	7,727.05	80.443	7,727.05	83.3638	7,727.05	78.2954	7,727.05	81.3634	7,727.05	77.8782
7,999.51	100.527	7,999.51	99.1645	7,999.51	100.203	7,999.51	97.8032	7,999.51	98.4303	7,999.51	97.6611	7,999.51	97.8301	7,999.51	97.5174	7,999.51	98.1336	7,999.51	96.2436	7,999.51	97.7191	7,999.51	93.633	7,999.51	96.3025	7,999.51	90.812	7,999.51	93.4183	7,999.51	88.6728	7,999.51	91.3728	7,999.51	85.9799	7,999.51	88.8227	7,999.51	85.0023	7,999.51	86.8979	7,999.51	82.9155	7,999.51	83.54	7,999.51	80.7494	7,999.51	82.4427	7,999.51	81.3986	7,999.51	82.9683	7,999.51	83.2072	7,999.51	83.3243	7,999.51	82.2256	7,999.51	85.4025	7,999.51	80.1281	7,999.51	84.5434	7,999.51	78.0258	7,999.51	79.8528	7,999.51	76.7849
8,282.23	99.5862	8,282.23	98.0611	8,282.23	99.2446	8,282.23	96.3503	8,282.23	97.7327	8,282.23	96.6936	8,282.23	97.193	8,282.23	96.7055	8,282.23	97.6139	8,282.23	95.4562	8,282.23	97.7497	8,282.23	93.3928	8,282.23	95.9694	8,282.23	91.4047	8,282.23	93.3804	8,282.23	87.9986	8,282.23	91.5018	8,282.23	85.9223	8,282.23	88.8792	8,282.23	82.6216	8,282.23	86.1728	8,282.23	79.7217	8,282.23	83.8929	8,282.23	82.4362	8,282.23	82.7514	8,282.23	82.1758	8,282.23	82.2766	8,282.23	81.7268	8,282.23	82.1683	8,282.23	80.9262	8,282.23	82.9837	8,282.23	79.0941	8,282.23	82.1134	8,282.23	77.566	8,282.23	78.7513	8,282.23	76.7355
8,573.73	99.3122	8,573.73	97.7608	8,573.73	98.9515	8,573.73	96.0375	8,573.73	97.9745	8,573.73	96.546	8,573.73	97.2732	8,573.73	96.2497	8,573.73	97.3054	8,573.73	94.8099	8,573.73	97.0851	8,573.73	92.4767	8,573.73	95.4716	8,573.73	89.8288	8,573.73	92.5268	8,573.73	86.9468	8,573.73	90.4638	8,573.73	84.1574	8,573.73	87.9757	8,573.73	82.2292	8,573.73	86.0734	8,573.73	80.8085	8,573.73	81.7325	8,573.73	79.3791	8,573.73	80.6909	8,573.73	80.0769	8,573.73	81.5897	8,573.73	81.4169	8,573.73	80.5157	8,573.73	80.8641	8,573.73	82.1014	8,573.73	78.5094	8,573.73	80.3042	8,573.73	74.7932	8,573.73	76.5013	8,573.73	73.8991
8,876.95	99.5471	8,876.95	98.3565	8,876.95	99.5156	8,876.95	96.9095	8,876.95	98.8382	8,876.95	96.4347	8,876.95	97.6779	8,876.95	95.2335	8,876.95	97.1485	8,876.95	93.2867	8,876.95	96.3938	8,876.95	90.4386	8,876.95	94.2773	8,876.95	87.8467	8,876.95	91.7471	8,876.95	84.2883	8,876.95	90.0064	8,876.95	82.0596	8,876.95	86.5436	8,876.95	79.212	8,876.95	83.7841	8,876.95	77.1992	8,876.95	80.4093	8,876.95	76.12	8,876.95	80.0934	8,876.95	77.1516	8,876.95	81.0547	8,876.95	78.7774	8,876.95	79.1846	8,876.95	76.6274	8,876.95	80.3288	8,876.95	72.642	8,876.95	78.2515	8,876.95	73.3517	8,876.95	71.2621	8,876.95	74.1578
9,188.96	99.496	9,188.96	98.3912	9,188.96	99.4862	9,188.96	96.861	9,188.96	98.6719	9,188.96	95.8223	9,188.96	97.3402	9,188.96	94.1977	9,188.96	96.3088	9,188.96	91.5231	9,188.96	95.0233	9,188.96	88.2811	9,188.96	93.0072	9,188.96	85.4342	9,188.96	89.912	9,188.96	82.5832	9,188.96	87.6332	9,188.96	78.8399	9,188.96	83.9457	9,188.96	74.739	9,188.96	82.3768	9,188.96	75.0985	9,188.96	77.7578	9,188.96	74.5067	9,188.96	76.6077	9,188.96	73.4502	9,188.96	78.7713	9,188.96	74.7786	9,188.96	77.8412	9,188.96	73.2843	9,188.96	77.8732	9,188.96	66.6896	9,188.96	75.462	9,188.96	70.0856	9,188.96	65.6397	9,188.96	72.8618
9,514.16	99.1808	9,514.16	98.249	9,514.16	99.1244	9,514.16	96.6698	9,514.16	98.229	9,514.16	95.4082	9,514.16	96.7057	9,514.16	93.4344	9,514.16	95.3745	9,514.16	90.9714	9,514.16	93.7706	9,514.16	88.0554	9,514.16	91.2532	9,514.16	85.0013	9,514.16	88.3306	9,514.16	81.9688	9,514.16	85.6871	9,514.16	78.9287	9,514.16	81.4223	9,514.16	76.4986	9,514.16	79.4762	9,514.16	74.6733	9,514.16	76.9745	9,514.16	74.1233	9,514.16	76.6946	9,514.16	74.7165	9,514.16	76.7643	9,514.16	75.741	9,514.16	76.0796	9,514.16	72.5194	9,514.16	76.2076	9,514.16	63.4538	9,514.16	72.354	9,514.16	71.9884	9,514.16	61.9667	9,514.16	73.7848
9,849.61	99.0869	9,849.61	98.3335	9,849.61	98.8319	9,849.61	96.5598	9,849.61	98.0634	9,849.61	94.9991	9,849.61	96.3849	9,849.61	93.007	9,849.61	94.519	9,849.61	90.5357	9,849.61	92.5019	9,849.61	87.5482	9,849.61	89.8151	9,849.61	84.5876	9,849.61	86.5328	9,849.61	81.0348	9,849.61	83.2776	9,849.61	77.6352	9,849.61	79.2034	9,849.61	75.1763	9,849.61	77.7418	9,849.61	73.8609	9,849.61	73.7266	9,849.61	72.5239	9,849.61	73.3026	9,849.61	73.4152	9,849.61	74.5797	9,849.61	75.2257	9,849.61	73.6788	9,849.61	73.2887	9,849.61	74.8881	9,849.61	65.982	9,849.61	70.3905	9,849.61	71.7063	9,849.61	62.9567	9,849.61	73.252
10,196.8	99.3607	10,196.8	98.6394	10,196.8	99.0079	10,196.8	96.7865	10,196.8	98.0845	10,196.8	95.0047	10,196.8	96.1248	10,196.8	92.296	10,196.8	93.7571	10,196.8	89.6983	10,196.8	90.9542	10,196.8	86.2916	10,196.8	87.8431	10,196.8	83.032	10,196.8	84.0614	10,196.8	78.8235	10,196.8	79.9222	10,196.8	75.5745	10,196.8	76.0832	10,196.8	73.1531	10,196.8	73.3931	10,196.8	71.1624	10,196.8	71.2959	10,196.8	69.6027	10,196.8	70.4775	10,196.8	72.0911	10,196.8	69.8276	10,196.8	74.3599	10,196.8	72.8251	10,196.8	71.4704	10,196.8	74.7985	10,196.8	66.1822	10,196.8	71.1567	10,196.8	71.9385	10,196.8	65.2676	10,196.8	71.9872
10,555.7	99.6478	10,555.7	98.7993	10,555.7	99.2947	10,555.7	96.8726	10,555.7	98.0393	10,555.7	94.9019	10,555.7	95.6562	10,555.7	92.1491	10,555.7	92.9816	10,555.7	89.7274	10,555.7	90.0943	10,555.7	86.1032	10,555.7	86.8643	10,555.7	82.9543	10,555.7	82.2393	10,555.7	78.2655	10,555.7	79.6701	10,555.7	75.8644	10,555.7	75.0964	10,555.7	73.9652	10,555.7	72.1411	10,555.7	72.6435	10,555.7	72.5908	10,555.7	70.8099	10,555.7	70.8806	10,555.7	71.229	10,555.7	70.0449	10,555.7	74.178	10,555.7	72.3414	10,555.7	71.0227	10,555.7	73.7359	10,555.7	65.9367	10,555.7	71.5976	10,555.7	71.2706	10,555.7	67.3418	10,555.7	71.289
10,927.7	99.36	10,927.7	98.5167	10,927.7	99.1061	10,927.7	96.5693	10,927.7	97.8738	10,927.7	94.394	10,927.7	95.2881	10,927.7	91.8494	10,927.7	92.6061	10,927.7	89.6259	10,927.7	90.1502	10,927.7	86.1295	10,927.7	87.2633	10,927.7	83.4304	10,927.7	84.1602	10,927.7	79.3989	10,927.7	81.9877	10,927.7	77.057	10,927.7	77.8877	10,927.7	75.8312	10,927.7	75.833	10,927.7	73.3454	10,927.7	75.2407	10,927.7	72.7206	10,927.7	72.8685	10,927.7	73.9219	10,927.7	72.5804	10,927.7	74.7404	10,927.7	73.9612	10,927.7	71.8065	10,927.7	74.5642	10,927.7	66.2391	10,927.7	69.9621	10,927.7	70.7358	10,927.7	63.7453	10,927.7	70.9715
11,313	98.8171	11,313	97.9884	11,313	98.5973	11,313	95.6972	11,313	97.457	11,313	93.5535	11,313	94.6588	11,313	91.1125	11,313	92.1357	11,313	88.9458	11,313	89.9651	11,313	85.574	11,313	87.2001	11,313	83.4314	11,313	84.5282	11,313	80.3631	11,313	82.0075	11,313	77.2747	11,313	78.0664	11,313	75.6488	11,313	75.7169	11,313	72.7514	11,313	75.8233	11,313	72.2449	11,313	74.1743	11,313	73.8806	11,313	73.092	11,313	75.1731	11,313	73.4226	11,313	70.5057	11,313	74.7302	11,313	62.2163	11,313	68.3861	11,313	71.2616	11,313	61.9479	11,313	72.3153
11,712.9	98.4824	11,712.9	97.8556	11,712.9	98.0506	11,712.9	95.3251	11,712.9	96.9186	11,712.9	93.1851	11,712.9	93.9418	11,712.9	90.7709	11,712.9	91.3411	11,712.9	88.599	11,712.9	88.8111	11,712.9	85.9278	11,712.9	86.2998	11,712.9	84.1526	11,712.9	84.4532	11,712.9	80.9043	11,712.9	82.309	11,712.9	77.6841	11,712.9	79.5205	11,712.9	76.3896	11,712.9	75.3429	11,712.9	72.7823	11,712.9	75.9183	11,712.9	73.148	11,712.9	73.5702	11,712.9	74.2303	11,712.9	73.276	11,712.9	74.8955	11,712.9	74.3644	11,712.9	69.0939	11,712.9	75.7586	11,712.9	61.447	11,712.9	68.3062	11,712.9	71.6768	11,712.9	61.3034	11,712.9	72.855
12,126	98.2727	12,126	97.7197	12,126	97.6471	12,126	94.8397	12,126	96.449	12,126	92.6875	12,126	93.1697	12,126	90.276	12,126	90.7508	12,126	88.9545	12,126	88.3857	12,126	86.687	12,126	86.7124	12,126	85.0313	12,126	85.7354	12,126	81.301	12,126	83.9595	12,126	78.4843	12,126	81.2682	12,126	77.4034	12,126	75.8133	12,126	71.7267	12,126	77.2821	12,126	73.2816	12,126	73.3805	12,126	75.5754	12,126	73.665	12,126	74.7431	12,126	75.4805	12,126	70.326	12,126	76.1817	12,126	60.6567	12,126	71.0935	12,126	72.8268	12,126	58.8851	12,126	73.0525
12,553.7	97.5728	12,553.7	97.0102	12,553.7	97.0371	12,553.7	93.841	12,553.7	95.8374	12,553.7	91.6407	12,553.7	92.5837	12,553.7	89.1879	12,553.7	91.1377	12,553.7	88.2858	12,553.7	89.1998	12,553.7	86.79	12,553.7	87.9161	12,553.7	85.0587	12,553.7	87.6407	12,553.7	82.3899	12,553.7	86.2044	12,553.7	78.857	12,553.7	81.8938	12,553.7	76.9704	12,553.7	77.8859	12,553.7	73.9402	12,553.7	77.6028	12,553.7	74.777	12,553.7	73.0409	12,553.7	74.8876	12,553.7	74.8413	12,553.7	74.4286	12,553.7	77.178	12,553.7	71.9253	12,553.7	77.028	12,553.7	57.6713	12,553.7	73.1688	12,553.7	72.855	12,553.7	53.193	12,553.7	72.1122
12,996.1	96.1941	12,996.1	95.3443	12,996.1	96.2357	12,996.1	92.341	12,996.1	95.271	12,996.1	90.6893	12,996.1	92.6204	12,996.1	88.2291	12,996.1	91.5626	12,996.1	87.7241	12,996.1	89.8464	12,996.1	86.9868	12,996.1	88.7025	12,996.1	85.1681	12,996.1	87.9353	12,996.1	82.287	12,996.1	85.8581	12,996.1	78.2531	12,996.1	81.47	12,996.1	76.4178	12,996.1	77.5785	12,996.1	72.6191	12,996.1	75.537	12,996.1	72.6646	12,996.1	74.2675	12,996.1	75.8234	12,996.1	74.6979	12,996.1	72.9274	12,996.1	75.6051	12,996.1	72.5157	12,996.1	75.7136	12,996.1	52.5791	12,996.1	71.1159	12,996.1	69.6642	12,996.1	58.2906	12,996.1	70.4534
13,454.6	95.9549	13,454.6	95.0785	13,454.6	96.2184	13,454.6	92.6292	13,454.6	95.197	13,454.6	91.1535	13,454.6	92.7976	13,454.6	88.417	13,454.6	91.1302	13,454.6	87.6008	13,454.6	88.8511	13,454.6	86.3929	13,454.6	87.4226	13,454.6	83.7467	13,454.6	85.7472	13,454.6	80.9335	13,454.6	82.7217	13,454.6	76.2704	13,454.6	78.3515	13,454.6	74.1578	13,454.6	73.9734	13,454.6	69.759	13,454.6	74.3836	13,454.6	70.6361	13,454.6	72.284	13,454.6	73.1651	13,454.6	70.8022	13,454.6	70.2735	13,454.6	72.3445	13,454.6	71.4947	13,454.6	73.3807	13,454.6	51.6749	13,454.6	68.2745	13,454.6	63.5342	13,454.6	62.9592	13,454.6	68.7838
13,929.2	96.5328	13,929.2	95.5129	13,929.2	96.3312	13,929.2	92.9022	13,929.2	95.1765	13,929.2	91.0061	13,929.2	92.9333	13,929.2	87.6523	13,929.2	90.4112	13,929.2	86.4932	13,929.2	87.5673	13,929.2	84.2663	13,929.2	84.996	13,929.2	81.2629	13,929.2	82.5613	13,929.2	78.3461	13,929.2	79.3043	13,929.2	73.5156	13,929.2	76.2717	13,929.2	71.4581	13,929.2	68.87	13,929.2	66.8822	13,929.2	71.3954	13,929.2	65.7511	13,929.2	67.5772	13,929.2	70.8487	13,929.2	65.398	13,929.2	67.9095	13,929.2	72.3097	13,929.2	70.0189	13,929.2	70.891	13,929.2	44.8627	13,929.2	67.7731	13,929.2	58.5372	13,929.2	60.8802	13,929.2	66.2586
14,419.9	97.0992	14,419.9	95.9463	14,419.9	96.6379	14,419.9	93.1805	14,419.9	95.3994	14,419.9	90.8537	14,419.9	93.0201	14,419.9	87.2414	14,419.9	89.8121	14,419.9	85.7691	14,419.9	86.4833	14,419.9	83.4318	14,419.9	82.6183	14,419.9	79.5814	14,419.9	80.5441	14,419.9	76.9856	14,419.9	78.7396	14,419.9	72.5711	14,419.9	74.4788	14,419.9	71.2717	14,419.9	69.4026	14,419.9	68.8646	14,419.9	67.0779	14,419.9	65.7814	14,419.9	63.7258	14,419.9	70.9368	14,419.9	61.2766	14,419.9	67.5829	14,419.9	71.0173	14,419.9	68.5714	14,419.9	70.024	14,419.9	55.7819	14,419.9	68.4327	14,419.9	55.328	14,419.9	61.568	14,419.9	60.6536
14,928.2	97.8566	14,928.2	96.6287	14,928.2	97.4434	14,928.2	93.9807	14,928.2	96.1515	14,928.2	91.3658	14,928.2	93.5039	14,928.2	88.0628	14,928.2	90.2187	14,928.2	86.0447	14,928.2	86.9635	14,928.2	83.5122	14,928.2	82.7807	14,928.2	79.6042	14,928.2	81.3052	14,928.2	77.6404	14,928.2	80.3374	14,928.2	72.7263	14,928.2	74.0375	14,928.2	69.3628	14,928.2	72.7562	14,928.2	67.2635	14,928.2	62.8447	14,928.2	64.5412	14,928.2	63.7787	14,928.2	69.6908	14,928.2	59.8008	14,928.2	64.5058	14,928.2	68.4383	14,928.2	67.6128	14,928.2	69.4115	14,928.2	61.7745	14,928.2	68.2892	14,928.2	53.1923	14,928.2	62.8729	14,928.2	63.0336
15,455.6	99.0148	15,455.6	97.6503	15,455.6	98.7852	15,455.6	94.8967	15,455.6	97.4331	15,455.6	92.1453	15,455.6	94.5865	15,455.6	88.698	15,455.6	91.6052	15,455.6	85.9268	15,455.6	88.2045	15,455.6	83.6391	15,455.6	84.0519	15,455.6	80.0681	15,455.6	83.0851	15,455.6	77.6391	15,455.6	80.482	15,455.6	72.6057	15,455.6	75.5823	15,455.6	68.5351	15,455.6	73.2546	15,455.6	66.9177	15,455.6	66.4483	15,455.6	62.1017	15,455.6	66.9793	15,455.6	68.7699	15,455.6	60.3015	15,455.6	58.724	15,455.6	68.7714	15,455.6	67.7335	15,455.6	69.2118	15,455.6	61.9031	15,455.6	68.4728	15,455.6	55.4345	15,455.6	59.4162	15,455.6	64.2739
16,000.5	99.8157	16,000.5	98.4593	16,000.5	99.6692	16,000.5	95.6683	16,000.5	98.2903	16,000.5	92.9946	16,000.5	95.4723	16,000.5	89.0461	16,000.5	92.4005	16,000.5	86.2189	16,000.5	88.3868	16,000.5	83.4849	16,000.5	84.204	16,000.5	79.4145	16,000.5	82.5737	16,000.5	76.0481	16,000.5	79.3989	16,000.5	71.6603	16,000.5	74.6036	16,000.5	67.2289	16,000.5	71.8416	16,000.5	66.2698	16,000.5	63.5434	16,000.5	61.3809	16,000.5	64.0266	16,000.5	68.355	16,000.5	61.468	16,000.5	60.0656	16,000.5	68.3831	16,000.5	66.1983	16,000.5	68.7927	16,000.5	57.924	16,000.5	67.0316	16,000.5	52.9901	16,000.5	56.1849	16,000.5	59.1223
16,564.5	100.264	16,564.5	98.8689	16,564.5	99.9675	16,564.5	95.8786	16,564.5	98.4037	16,564.5	92.9136	16,564.5	95.3472	16,564.5	87.97	16,564.5	91.5556	16,564.5	84.4881	16,564.5	86.7743	16,564.5	80.4696	16,564.5	81.5955	16,564.5	75.1926	16,564.5	78.5353	16,564.5	71.4633	16,564.5	75.4898	16,564.5	67.0727	16,564.5	68.2329	16,564.5	64.4923	16,564.5	68.1039	16,564.5	63.9688	16,564.5	50.7846	16,564.5	59.6094	16,564.5	56.3643	16,564.5	67.3422	16,564.5	57.7913	16,564.5	59.9872	16,564.5	66.1971	16,564.5	60.5558	16,564.5	67.1226	16,564.5	59.2653	16,564.5	65.3452	16,564.5	58.9637	16,564.5	56.5814	16,564.5	53.7818
17,148.9	100.504	17,148.9	98.8523	17,148.9	100.099	17,148.9	95.46	17,148.9	98.1946	17,148.9	91.5782	17,148.9	94.5539	17,148.9	85.0939	17,148.9	89.7964	17,148.9	80.2789	17,148.9	83.8227	17,148.9	74.1772	17,148.9	76.1368	17,148.9	67.6559	17,148.9	72.126	17,148.9	55.482	17,148.9	68.3999	17,148.9	52.7942	17,148.9	59.95	17,148.9	58.1408	17,148.9	63.032	17,148.9	54.2531	17,148.9	53.8225	17,148.9	52.4136	17,148.9	50.0104	17,148.9	61.2636	17,148.9	44.491	17,148.9	55.3123	17,148.9	61.0641	17,148.9	55.5073	17,148.9	64.6365	17,148.9	60.5106	17,148.9	61.0119	17,148.9	58.5084	17,148.9	58.067	17,148.9	60.7738
17,752.4	100.376	17,752.4	98.5264	17,752.4	99.9783	17,752.4	94.6299	17,752.4	97.8699	17,752.4	89.911	17,752.4	93.7083	17,752.4	82.2438	17,752.4	88.144	17,752.4	76.7594	17,752.4	81.1344	17,752.4	65.4697	17,752.4	71.7086	17,752.4	56.7831	17,752.4	70.3334	17,752.4	65.7359	17,752.4	70.8453	17,752.4	58.8268	17,752.4	69.0477	17,752.4	57.102	17,752.4	66.4247	17,752.4	48.5896	17,752.4	58.8519	17,752.4	53.6865	17,752.4	57.9075	17,752.4	54.0957	17,752.4	55.3901	17,752.4	56.7006	17,752.4	62.7523	17,752.4	60.2844	17,752.4	64.7582	17,752.4	59.5488	17,752.4	58.1339	17,752.4	57.1101	17,752.4	60.7887	17,752.4	63.8616
18,379.4	99.805	18,379.4	97.8366	18,379.4	99.4433	18,379.4	93.8131	18,379.4	97.2805	18,379.4	89.1469	18,379.4	93.0384	18,379.4	81.5658	18,379.4	87.3639	18,379.4	76.2015	18,379.4	81.241	18,379.4	65.8316	18,379.4	73.5531	18,379.4	61.5022	18,379.4	74.3354	18,379.4	70.3143	18,379.4	74.8949	18,379.4	63.7648	18,379.4	72.1686	18,379.4	59.1856	18,379.4	70.1825	18,379.4	55.6213	18,379.4	58.9137	18,379.4	55.7173	18,379.4	61.0973	18,379.4	53.5247	18,379.4	60.8126	18,379.4	63.7695	18,379.4	65.9772	18,379.4	60.8154	18,379.4	64.1359	18,379.4	56.5551	18,379.4	55.265	18,379.4	59.1417	18,379.4	63.4433	18,379.4	64.2933
19,026.9	99.0398	19,026.9	97.0868	19,026.9	98.7339	19,026.9	93.2153	19,026.9	96.5766	19,026.9	88.6588	19,026.9	92.485	19,026.9	80.5995	19,026.9	86.6816	19,026.9	72.9734	19,026.9	80.7489	19,026.9	68.0866	19,026.9	72.241	19,026.9	60.6092	19,026.9	73.9849	19,026.9	70.4359	19,026.9	74.4366	19,026.9	63.8993	19,026.9	72.0961	19,026.9	60.5146	19,026.9	70.4823	19,026.9	55.4841	19,026.9	55.352	19,026.9	51.7829	19,026.9	60.8489	19,026.9	50.2575	19,026.9	60.4848	19,026.9	64.1627	19,026.9	66.039	19,026.9	60.0882	19,026.9	60.7121	19,026.9	46.9618	19,026.9	51.3819	19,026.9	60.6051	19,026.9	64.3849	19,026.9	64.0944
19,697.8	98.5384	19,697.8	96.6465	19,697.8	98.1321	19,697.8	92.6205	19,697.8	95.8136	19,697.8	87.3387	19,697.8	91.3977	19,697.8	76.5539	19,697.8	84.7001	19,697.8	65.0197	19,697.8	76.9399	19,697.8	72.3508	19,697.8	68.4915	19,697.8	64.6254	19,697.8	72.3213	19,697.8	72.1118	19,697.8	72.1742	19,697.8	65.6986	19,697.8	71.2251	19,697.8	63.3798	19,697.8	68.9329	19,697.8	58.6312	19,697.8	54.8234	19,697.8	52.6391	19,697.8	57.761	19,697.8	45.7846	19,697.8	57.9892	19,697.8	64.6166	19,697.8	62.5604	19,697.8	63.0861	19,697.8	55.1185	19,697.8	48.7948	19,697.8	54.0309	19,697.8	57.4532	19,697.8	61.9732	19,697.8	63.8691
19,999.5	98.1946	19,999.5	96.3588	19,999.5	97.7207	19,999.5	92.1289	19,999.5	95.3141	19,999.5	86.3526	19,999.5	90.6417	19,999.5	73.5146	19,999.5	83.2838	19,999.5	68.1755	19,999.5	73.3627	19,999.5	73.9362	19,999.5	68.8697	19,999.5	66.2485	19,999.5	71.809	19,999.5	72.3989	19,999.5	71.551	19,999.5	64.6328	19,999.5	71.3902	19,999.5	64.1205	19,999.5	68.1186	19,999.5	54.8648	19,999.5	56.5387	19,999.5	53.0756	19,999.5	58.6347	19,999.5	53.9471	19,999.5	56.0706	19,999.5	66.631	19,999.5	62.6537	19,999.5	66.7014	19,999.5	61.1379	19,999.5	34.5741	19,999.5	61.6711	19,999.5	44.8048	19,999.5	63.9338	19,999.5	61.3362
