"SPL Vertical"																																																																							
"On-Axis"		"10°"		"-10°"		"20°"		"-20°"		"30°"		"-30°"		"40°"		"-40°"		"50°"		"-50°"		"60°"		"-60°"		"70°"		"-70°"		"80°"		"-80°"		"90°"		"-90°"		"100°"		"-100°"		"110°"		"-110°"		"120°"		"-120°"		"130°"		"-130°"		"140°"		"-140°"		"150°"		"-150°"		"160°"		"-160°"		"170°"		"-170°"		"180°"	
"Frequency [Hz]"	"Sound Pessure Level [dB]  / [2.83V 1m] "	"Frequency [Hz]"	"Sound Pessure Level [dB]  / [2.83V 1m] "	"Frequency [Hz]"	"Sound Pessure Level [dB]  / [2.83V 1m] "	"Frequency [Hz]"	"Sound Pessure Level [dB]  / [2.83V 1m] "	"Frequency [Hz]"	"Sound Pessure Level [dB]  / [2.83V 1m] "	"Frequency [Hz]"	"Sound Pessure Level [dB]  / [2.83V 1m] "	"Frequency [Hz]"	"Sound Pessure Level [dB]  / [2.83V 1m] "	"Frequency [Hz]"	"Sound Pessure Level [dB]  / [2.83V 1m] "	"Frequency [Hz]"	"Sound Pessure Level [dB]  / [2.83V 1m] "	"Frequency [Hz]"	"Sound Pessure Level [dB]  / [2.83V 1m] "	"Frequency [Hz]"	"Sound Pessure Level [dB]  / [2.83V 1m] "	"Frequency [Hz]"	"Sound Pessure Level [dB]  / [2.83V 1m] "	"Frequency [Hz]"	"Sound Pessure Level [dB]  / [2.83V 1m] "	"Frequency [Hz]"	"Sound Pessure Level [dB]  / [2.83V 1m] "	"Frequency [Hz]"	"Sound Pessure Level [dB]  / [2.83V 1m] "	"Frequency [Hz]"	"Sound Pessure Level [dB]  / [2.83V 1m] "	"Frequency [Hz]"	"Sound Pessure Level [dB]  / [2.83V 1m] "	"Frequency [Hz]"	"Sound Pessure Level [dB]  / [2.83V 1m] "	"Frequency [Hz]"	"Sound Pessure Level [dB]  / [2.83V 1m] "	"Frequency [Hz]"	"Sound Pessure Level [dB]  / [2.83V 1m] "	"Frequency [Hz]"	"Sound Pessure Level [dB]  / [2.83V 1m] "	"Frequency [Hz]"	"Sound Pessure Level [dB]  / [2.83V 1m] "	"Frequency [Hz]"	"Sound Pessure Level [dB]  / [2.83V 1m] "	"Frequency [Hz]"	"Sound Pessure Level [dB]  / [2.83V 1m] "	"Frequency [Hz]"	"Sound Pessure Level [dB]  / [2.83V 1m] "	"Frequency [Hz]"	"Sound Pessure Level [dB]  / [2.83V 1m] "	"Frequency [Hz]"	"Sound Pessure Level [dB]  / [2.83V 1m] "	"Frequency [Hz]"	"Sound Pessure Level [dB]  / [2.83V 1m] "	"Frequency [Hz]"	"Sound Pessure Level [dB]  / [2.83V 1m] "	"Frequency [Hz]"	"Sound Pessure Level [dB]  / [2.83V 1m] "	"Frequency [Hz]"	"Sound Pessure Level [dB]  / [2.83V 1m] "	"Frequency [Hz]"	"Sound Pessure Level [dB]  / [2.83V 1m] "	"Frequency [Hz]"	"Sound Pessure Level [dB]  / [2.83V 1m] "	"Frequency [Hz]"	"Sound Pessure Level [dB]  / [2.83V 1m] "	"Frequency [Hz]"	"Sound Pessure Level [dB]  / [2.83V 1m] "	"Frequency [Hz]"	"Sound Pessure Level [dB]  / [2.83V 1m] "
20.5078	54.0252	20.5078	54.0915	20.5078	53.9819	20.5078	54.1779	20.5078	53.964	20.5078	54.2807	20.5078	53.9725	20.5078	54.3958	20.5078	54.0067	20.5078	54.5192	20.5078	54.0646	20.5078	54.6468	20.5078	54.1425	20.5078	54.7746	20.5078	54.2357	20.5078	54.8987	20.5078	54.3387	20.5078	55.0153	20.5078	54.4461	20.5078	55.1205	20.5078	54.5536	20.5078	55.211	20.5078	54.658	20.5078	55.2836	20.5078	54.7579	20.5078	55.3357	20.5078	54.8532	20.5078	55.3654	20.5078	54.9448	20.5078	55.3721	20.5078	55.033	20.5078	55.356	20.5078	55.1173	20.5078	55.3189	20.5078	55.1955	20.5078	55.2641
21.9727	52.2855	21.9727	52.2172	21.9727	52.3838	21.9727	52.1814	21.9727	52.5071	21.9727	52.1777	21.9727	52.6485	21.9727	52.2036	21.9727	52.7996	21.9727	52.2548	21.9727	52.9516	21.9727	52.3257	21.9727	53.0961	21.9727	52.4103	21.9727	53.2258	21.9727	52.5027	21.9727	53.3346	21.9727	52.5974	21.9727	53.4182	21.9727	52.6897	21.9727	53.4741	21.9727	52.7763	21.9727	53.5017	21.9727	52.8551	21.9727	53.5026	21.9727	52.9255	21.9727	53.4802	21.9727	52.9883	21.9727	53.4397	21.9727	53.0455	21.9727	53.3871	21.9727	53.0997	21.9727	53.3283	21.9727	53.1537	21.9727	53.2681	21.9727	53.2095
23.4375	53.4638	23.4375	53.2932	23.4375	53.63	23.4375	53.122	23.4375	53.7881	23.4375	52.9542	23.4375	53.9341	23.4375	52.7937	23.4375	54.0639	23.4375	52.6444	23.4375	54.1734	23.4375	52.5105	23.4375	54.2584	23.4375	52.3962	23.4375	54.3148	23.4375	52.3055	23.4375	54.3393	23.4375	52.242	23.4375	54.3292	23.4375	52.2088	23.4375	54.2834	23.4375	52.2079	23.4375	54.2022	23.4375	52.2404	23.4375	54.088	23.4375	52.3057	23.4375	53.9452	23.4375	52.4021	23.4375	53.7794	23.4375	52.5264	23.4375	53.5975	23.4375	52.6743	23.4375	53.4064	23.4375	52.8413	23.4375	53.2127	23.4375	53.0225
24.9023	51.4625	24.9023	51.3241	24.9023	51.6132	24.9023	51.2024	24.9023	51.7716	24.9023	51.1021	24.9023	51.9332	24.9023	51.0274	24.9023	52.0937	24.9023	50.9819	24.9023	52.2486	24.9023	50.9687	24.9023	52.3939	24.9023	50.9896	24.9023	52.5256	24.9023	51.0452	24.9023	52.6403	24.9023	51.1343	24.9023	52.7351	24.9023	51.2546	24.9023	52.8081	24.9023	51.4017	24.9023	52.8586	24.9023	51.5698	24.9023	52.8865	24.9023	51.7516	24.9023	52.8923	24.9023	51.9389	24.9023	52.8764	24.9023	52.1232	24.9023	52.8387	24.9023	52.2964	24.9023	52.7783	24.9023	52.4519	24.9023	52.6942	24.9023	52.5853
26.3672	53.8368	26.3672	53.8772	26.3672	53.8157	26.3672	53.9373	26.3672	53.8127	26.3672	54.0165	26.3672	53.8265	26.3672	54.1133	26.3672	53.8553	26.3672	54.2247	26.3672	53.8975	26.3672	54.3469	26.3672	53.9515	26.3672	54.4752	26.3672	54.0158	26.3672	54.6042	26.3672	54.089	26.3672	54.7284	26.3672	54.1699	26.3672	54.8424	26.3672	54.2572	26.3672	54.9412	26.3672	54.3499	26.3672	55.0206	26.3672	54.4465	26.3672	55.0774	26.3672	54.5458	26.3672	55.1097	26.3672	54.6459	26.3672	55.1168	26.3672	54.7445	26.3672	55.0994	26.3672	54.8388	26.3672	55.0595	26.3672	54.9253	26.3672	55.0002
27.832	51.8824	27.832	52.1286	27.832	51.6853	27.832	52.4172	27.832	51.5416	27.832	52.7398	27.832	51.4542	27.832	53.0863	27.832	51.4243	27.832	53.4458	27.832	51.4529	27.832	53.8069	27.832	51.5404	27.832	54.1588	27.832	51.6865	27.832	54.491	27.832	51.8899	27.832	54.7942	27.832	52.1472	27.832	55.0598	27.832	52.4521	27.832	55.2803	27.832	52.7953	27.832	55.4491	27.832	53.1648	27.832	55.561	27.832	53.5469	27.832	55.6118	27.832	53.9276	27.832	55.5991	27.832	54.2931	27.832	55.5224	27.832	54.6312	27.832	55.383	27.832	54.9312	27.832	55.1842
29.2969	47.5709	29.2969	48.557	29.2969	46.6162	29.2969	49.5338	29.2969	45.7476	29.2969	50.4733	29.2969	45.0318	29.2969	51.3573	29.2969	44.5397	29.2969	52.1745	29.2969	44.3333	29.2969	52.9181	29.2969	44.45	29.2969	53.5839	29.2969	44.8901	29.2969	54.1691	29.2969	45.6133	29.2969	54.671	29.2969	46.5497	29.2969	55.087	29.2969	47.6177	29.2969	55.4137	29.2969	48.7417	29.2969	55.6472	29.2969	49.861	29.2969	55.7826	29.2969	50.9315	29.2969	55.8149	29.2969	51.9234	29.2969	55.7389	29.2969	52.8175	29.2969	55.5496	29.2969	53.6018	29.2969	55.2432	29.2969	54.2694	29.2969	54.8168
30.7617	50.2668	30.7617	51.0677	30.7617	49.5515	30.7617	51.9063	30.7617	48.9762	30.7617	52.7458	30.7617	48.5923	30.7617	53.5596	30.7617	48.4362	30.7617	54.33	30.7617	48.5197	30.7617	55.0451	30.7617	48.8303	30.7617	55.6967	30.7617	49.3381	30.7617	56.2793	30.7617	50.0039	30.7617	56.7882	30.7617	50.7848	30.7617	57.2195	30.7617	51.6381	30.7617	57.569	30.7617	52.5239	30.7617	57.8328	30.7617	53.407	30.7617	58.0063	30.7617	54.2578	30.7617	58.0854	30.7617	55.053	30.7617	58.0658	30.7617	55.7746	30.7617	57.944	30.7617	56.4094	30.7617	57.7175	30.7617	56.9483	30.7617	57.3854
32.2266	46.2136	32.2266	47.5556	32.2266	45.1101	32.2266	48.9905	32.2266	44.344	32.2266	50.4023	32.2266	43.8816	32.2266	51.7236	32.2266	43.5684	32.2266	52.9223	32.2266	43.2238	32.2266	53.9868	32.2266	42.7159	32.2266	54.9146	32.2266	42.0087	32.2266	55.7071	32.2266	41.2626	32.2266	56.3663	32.2266	41.0189	32.2266	56.8933	32.2266	41.9736	32.2266	57.2875	32.2266	44.0067	32.2266	57.5464	32.2266	46.3765	32.2266	57.665	32.2266	48.6204	32.2266	57.6361	32.2266	50.5962	32.2266	57.45	32.2266	52.2867	32.2266	57.0951	32.2266	53.708	32.2266	56.5585	32.2266	54.8812	32.2266	55.8257
33.6914	40.2989	33.6914	42.2901	33.6914	40.9837	33.6914	45.3919	33.6914	42.7286	33.6914	48.222	33.6914	44.1039	33.6914	50.5712	33.6914	44.8365	33.6914	52.5058	33.6914	44.8985	33.6914	54.1083	33.6914	44.2151	33.6914	55.4409	33.6914	42.5422	33.6914	56.5472	33.6914	39.1707	33.6914	57.4564	33.6914	31.7088	33.6914	58.1879	33.6914	34.4946	33.6914	58.7539	33.6914	42.4991	33.6914	59.1603	33.6914	47.1034	33.6914	59.4088	33.6914	50.2886	33.6914	59.4966	33.6914	52.6805	33.6914	59.4172	33.6914	54.5439	33.6914	59.1607	33.6914	56.0139	33.6914	58.7134	33.6914	57.1687	33.6914	58.0574
35.1563	53.1905	35.1563	53.4675	35.1563	53.1951	35.1563	54.0982	35.1563	53.3309	35.1563	55.0306	35.1563	53.4487	35.1563	56.1345	35.1563	53.4377	35.1563	57.2816	35.1563	53.2241	35.1563	58.384	35.1563	52.7608	35.1563	59.3926	35.1563	52.0312	35.1563	60.2834	35.1563	51.0919	35.1563	61.0458	35.1563	50.2003	35.1563	61.6751	35.1563	49.9575	35.1563	62.1687	35.1563	50.899	35.1563	62.5241	35.1563	52.7134	35.1563	62.7372	35.1563	54.73	35.1563	62.8027	35.1563	56.5871	35.1563	62.7128	35.1563	58.1797	35.1563	62.4579	35.1563	59.4997	35.1563	62.0255	35.1563	60.5658	35.1563	61.4008
36.6211	63.3825	36.6211	63.494	36.6211	63.3366	36.6211	63.6881	36.6211	63.3325	36.6211	63.9702	36.6211	63.3454	36.6211	64.3323	36.6211	63.3545	36.6211	64.7559	36.6211	63.3466	36.6211	65.2159	36.6211	63.3187	36.6211	65.686	36.6211	63.279	36.6211	66.142	36.6211	63.2483	36.6211	66.563	36.6211	63.258	36.6211	66.9318	36.6211	63.3446	36.6211	67.2346	36.6211	63.54	36.6211	67.4604	36.6211	63.8587	36.6211	67.5999	36.6211	64.2908	36.6211	67.6464	36.6211	64.8044	36.6211	67.5947	36.6211	65.3559	36.6211	67.4422	36.6211	65.9016	36.6211	67.1893	36.6211	66.4053	36.6211	66.8404
38.0859	65.2401	38.0859	65.2355	38.0859	65.2499	38.0859	65.2584	38.0859	65.2434	38.0859	65.3283	38.0859	65.2013	38.0859	65.4587	38.0859	65.1088	38.0859	65.6538	38.0859	64.956	38.0859	65.9075	38.0859	64.7395	38.0859	66.205	38.0859	64.4647	38.0859	66.5252	38.0859	64.1493	38.0859	66.8441	38.0859	63.828	38.0859	67.1382	38.0859	63.5553	38.0859	67.3853	38.0859	63.4014	38.0859	67.5661	38.0859	63.4334	38.0859	67.6638	38.0859	63.6852	38.0859	67.6644	38.0859	64.1367	38.0859	67.557	38.0859	64.7228	38.0859	67.3341	38.0859	65.3623	38.0859	66.9929	38.0859	65.9841	38.0859	66.5378
39.5508	71.4623	39.5508	71.3799	39.5508	71.543	39.5508	71.3074	39.5508	71.6099	39.5508	71.2557	39.5508	71.6519	39.5508	71.2329	39.5508	71.6594	39.5508	71.244	39.5508	71.6252	39.5508	71.2899	39.5508	71.5454	39.5508	71.3672	39.5508	71.4201	39.5508	71.4684	39.5508	71.255	39.5508	71.583	39.5508	71.0623	39.5508	71.6979	39.5508	70.8616	39.5508	71.7994	39.5508	70.6791	39.5508	71.8739	39.5508	70.5448	39.5508	71.9091	39.5508	70.4856	39.5508	71.8952	39.5508	70.5173	39.5508	71.8258	39.5508	70.6382	39.5508	71.6995	39.5508	70.8296	39.5508	71.5206	39.5508	71.0614	39.5508	71.3011
41.0156	71.9677	41.0156	72.0727	41.0156	71.8828	41.0156	72.2049	41.0156	71.8109	41.0156	72.3691	41.0156	71.7456	41.0156	72.5678	41.0156	71.683	41.0156	72.7995	41.0156	71.6227	41.0156	73.0593	41.0156	71.5691	41.0156	73.3384	41.0156	71.5319	41.0156	73.6255	41.0156	71.526	41.0156	73.9077	41.0156	71.5694	41.0156	74.1711	41.0156	71.6798	41.0156	74.4024	41.0156	71.869	41.0156	74.5889	41.0156	72.1384	41.0156	74.7196	41.0156	72.4762	41.0156	74.7856	41.0156	72.86	41.0156	74.78	41.0156	73.2614	41.0156	74.6985	41.0156	73.6519	41.0156	74.5399	41.0156	74.0067	41.0156	74.307
42.4805	76.5923	42.4805	76.6276	42.4805	76.568	42.4805	76.6783	42.4805	76.5502	42.4805	76.7485	42.4805	76.5354	42.4805	76.8409	42.4805	76.5212	42.4805	76.9565	42.4805	76.5076	42.4805	77.0939	42.4805	76.4967	42.4805	77.2496	42.4805	76.4931	42.4805	77.4178	42.4805	76.5038	42.4805	77.5911	42.4805	76.5369	42.4805	77.7605	42.4805	76.6006	42.4805	77.9165	42.4805	76.7008	42.4805	78.0497	42.4805	76.8395	42.4805	78.1512	42.4805	77.0132	42.4805	78.2136	42.4805	77.2131	42.4805	78.2311	42.4805	77.4261	42.4805	78.2005	42.4805	77.6373	42.4805	78.1213	42.4805	77.8316	42.4805	77.9962
43.9453	78.4715	43.9453	78.4902	43.9453	78.4705	43.9453	78.5298	43.9453	78.4834	43.9453	78.5932	43.9453	78.5071	43.9453	78.6815	43.9453	78.5389	43.9453	78.7946	43.9453	78.5775	43.9453	78.9302	43.9453	78.6228	43.9453	79.0843	43.9453	78.6761	43.9453	79.251	43.9453	78.74	43.9453	79.4231	43.9453	78.8173	43.9453	79.5925	43.9453	78.911	43.9453	79.7505	43.9453	79.0228	43.9453	79.8889	43.9453	79.1525	43.9453	80	43.9453	79.2972	43.9453	80.0776	43.9453	79.4516	43.9453	80.1174	43.9453	79.608	43.9453	80.117	43.9453	79.7576	43.9453	80.0769	43.9453	79.891	43.9453	79.9999
45.4102	79.9319	45.4102	79.9583	45.4102	79.9163	45.4102	79.9962	45.4102	79.9105	45.4102	80.0458	45.4102	79.9135	45.4102	80.1069	45.4102	79.9243	45.4102	80.1784	45.4102	79.9425	45.4102	80.2585	45.4102	79.9679	45.4102	80.3447	45.4102	80.0011	45.4102	80.4341	45.4102	80.0428	45.4102	80.523	45.4102	80.0938	45.4102	80.6075	45.4102	80.1545	45.4102	80.684	45.4102	80.2246	45.4102	80.7486	45.4102	80.3028	45.4102	80.7983	45.4102	80.3867	45.4102	80.8306	45.4102	80.4732	45.4102	80.8438	45.4102	80.5585	45.4102	80.8375	45.4102	80.6387	45.4102	80.8119	45.4102	80.7099	45.4102	80.7686
46.875	82.1165	46.875	82.1395	46.875	82.1007	46.875	82.1706	46.875	82.0911	46.875	82.2105	46.875	82.0866	46.875	82.2595	46.875	82.0866	46.875	82.3171	46.875	82.0907	46.875	82.3822	46.875	82.099	46.875	82.453	46.875	82.112	46.875	82.5268	46.875	82.1308	46.875	82.6005	46.875	82.1565	46.875	82.6704	46.875	82.1907	46.875	82.7326	46.875	82.2341	46.875	82.7833	46.875	82.2876	46.875	82.8192	46.875	82.3507	46.875	82.8374	46.875	82.4219	46.875	82.8363	46.875	82.4987	46.875	82.8156	46.875	82.5772	46.875	82.7763	46.875	82.6529	46.875	82.7208
48.3398	84.0379	48.3398	84.0546	48.3398	84.0287	48.3398	84.0795	48.3398	84.0262	48.3398	84.1131	48.3398	84.0294	48.3398	84.1553	48.3398	84.0376	48.3398	84.2056	48.3398	84.0502	48.3398	84.263	48.3398	84.0667	48.3398	84.3258	48.3398	84.0873	48.3398	84.3918	48.3398	84.1123	48.3398	84.4584	48.3398	84.1422	48.3398	84.5224	48.3398	84.1779	48.3398	84.5807	48.3398	84.22	48.3398	84.6301	48.3398	84.2688	48.3398	84.6675	48.3398	84.3241	48.3398	84.6905	48.3398	84.3845	48.3398	84.6975	48.3398	84.4479	48.3398	84.6878	48.3398	84.5112	48.3398	84.6621	48.3398	84.5705	48.3398	84.622
51.2695	86.5401	51.2695	86.5506	51.2695	86.535	51.2695	86.5668	51.2695	86.5348	51.2695	86.589	51.2695	86.5391	51.2695	86.6171	51.2695	86.5475	51.2695	86.651	51.2695	86.5594	51.2695	86.6899	51.2695	86.5748	51.2695	86.7332	51.2695	86.5935	51.2695	86.7794	51.2695	86.6156	51.2695	86.827	51.2695	86.6413	51.2695	86.874	51.2695	86.671	51.2695	86.918	51.2695	86.7046	51.2695	86.9569	51.2695	86.7422	51.2695	86.9882	51.2695	86.7832	51.2695	87.01	51.2695	86.8266	51.2695	87.0208	51.2695	86.8707	51.2695	87.0199	51.2695	86.9133	51.2695	87.0073	51.2695	86.952	51.2695	86.9841
52.7344	87.6014	52.7344	87.6098	52.7344	87.5991	52.7344	87.6247	52.7344	87.6025	52.7344	87.646	52.7344	87.6114	52.7344	87.6737	52.7344	87.6252	52.7344	87.7075	52.7344	87.6435	52.7344	87.7467	52.7344	87.6659	52.7344	87.7906	52.7344	87.6921	52.7344	87.8378	52.7344	87.7218	52.7344	87.8867	52.7344	87.7547	52.7344	87.9357	52.7344	87.7907	52.7344	87.9824	52.7344	87.8293	52.7344	88.0247	52.7344	87.8702	52.7344	88.0604	52.7344	87.9123	52.7344	88.0876	52.7344	87.9547	52.7344	88.1047	52.7344	87.9956	52.7344	88.1109	52.7344	88.0333	52.7344	88.1059	52.7344	88.0656	52.7344	88.0904
54.1992	88.5266	54.1992	88.5301	54.1992	88.5288	54.1992	88.5398	54.1992	88.5365	54.1992	88.5556	54.1992	88.5492	54.1992	88.5776	54.1992	88.5665	54.1992	88.6055	54.1992	88.5879	54.1992	88.639	54.1992	88.613	54.1992	88.6774	54.1992	88.6412	54.1992	88.7195	54.1992	88.6722	54.1992	88.7642	54.1992	88.7056	54.1992	88.8097	54.1992	88.7409	54.1992	88.8542	54.1992	88.7775	54.1992	88.8958	54.1992	88.8149	54.1992	88.9324	54.1992	88.8521	54.1992	88.9621	54.1992	88.8882	54.1992	88.9835	54.1992	88.9216	54.1992	88.9956	54.1992	88.951	54.1992	88.9978	54.1992	88.9744	54.1992	88.9905
55.6641	89.426	55.6641	89.428	55.6641	89.4294	55.6641	89.4357	55.6641	89.438	55.6641	89.449	55.6641	89.4515	55.6641	89.4679	55.6641	89.4695	55.6641	89.4921	55.6641	89.4915	55.6641	89.5212	55.6641	89.5169	55.6641	89.5544	55.6641	89.5451	55.6641	89.591	55.6641	89.5756	55.6641	89.6297	55.6641	89.6078	55.6641	89.6693	55.6641	89.6409	55.6641	89.7083	55.6641	89.6742	55.6641	89.7449	55.6641	89.7072	55.6641	89.7777	55.6641	89.7388	55.6641	89.8052	55.6641	89.7683	55.6641	89.8261	55.6641	89.7945	55.6641	89.8395	55.6641	89.8164	55.6641	89.845	55.6641	89.8328	55.6641	89.8426
58.5938	90.852	58.5938	90.8494	58.5938	90.8591	58.5938	90.8513	58.5938	90.8705	58.5938	90.8576	58.5938	90.886	58.5938	90.8683	58.5938	90.9052	58.5938	90.8832	58.5938	90.9277	58.5938	90.9018	58.5938	90.9528	58.5938	90.9239	58.5938	90.9799	58.5938	90.9489	58.5938	91.0081	58.5938	90.9761	58.5938	91.0366	58.5938	91.0047	58.5938	91.0643	58.5938	91.0338	58.5938	91.0904	58.5938	91.0623	58.5938	91.1141	58.5938	91.0894	58.5938	91.1346	58.5938	91.114	58.5938	91.1514	58.5938	91.1351	58.5938	91.1638	58.5938	91.1522	58.5938	91.1716	58.5938	91.1646	58.5938	91.1744	58.5938	91.1721
60.0586	91.4305	60.0586	91.4257	60.0586	91.4388	60.0586	91.4245	60.0586	91.4506	60.0586	91.4268	60.0586	91.4656	60.0586	91.4326	60.0586	91.4835	60.0586	91.4418	60.0586	91.504	60.0586	91.4542	60.0586	91.5264	60.0586	91.4696	60.0586	91.5501	60.0586	91.4877	60.0586	91.5744	60.0586	91.508	60.0586	91.5983	60.0586	91.5301	60.0586	91.621	60.0586	91.5533	60.0586	91.6416	60.0586	91.5769	60.0586	91.6594	60.0586	91.6	60.0586	91.6738	60.0586	91.6219	60.0586	91.6842	60.0586	91.6419	60.0586	91.6905	60.0586	91.6592	60.0586	91.6925	60.0586	91.6733	60.0586	91.6902	60.0586	91.6837
62.9883	92.2177	62.9883	92.2082	62.9883	92.2303	62.9883	92.2018	62.9883	92.2459	62.9883	92.1987	62.9883	92.2642	62.9883	92.1987	62.9883	92.2849	62.9883	92.2021	62.9883	92.3077	62.9883	92.2087	62.9883	92.3321	62.9883	92.2187	62.9883	92.3571	62.9883	92.2318	62.9883	92.3821	62.9883	92.2481	62.9883	92.4061	62.9883	92.2671	62.9883	92.4279	62.9883	92.2884	62.9883	92.4467	62.9883	92.3116	62.9883	92.4615	62.9883	92.336	62.9883	92.4717	62.9883	92.3608	62.9883	92.4768	62.9883	92.3852	62.9883	92.4767	62.9883	92.4083	62.9883	92.4715	62.9883	92.4292	62.9883	92.4615	62.9883	92.4472
64.4531	92.5562	64.4531	92.5446	64.4531	92.5706	64.4531	92.5356	64.4531	92.5874	64.4531	92.5294	64.4531	92.6068	64.4531	92.5259	64.4531	92.6283	64.4531	92.5253	64.4531	92.6517	64.4531	92.5277	64.4531	92.6763	64.4531	92.533	64.4531	92.7014	64.4531	92.5415	64.4531	92.7261	64.4531	92.5532	64.4531	92.7493	64.4531	92.568	64.4531	92.7699	64.4531	92.5858	64.4531	92.7867	64.4531	92.6063	64.4531	92.7986	64.4531	92.6291	64.4531	92.8051	64.4531	92.6537	64.4531	92.8056	64.4531	92.6793	64.4531	92.8001	64.4531	92.7051	64.4531	92.7891	64.4531	92.73	64.4531	92.7731	64.4531	92.7531
67.3828	93.1256	67.3828	93.1074	67.3828	93.1456	67.3828	93.0911	67.3828	93.1672	67.3828	93.0769	67.3828	93.19	67.3828	93.065	67.3828	93.2139	67.3828	93.0556	67.3828	93.2381	67.3828	93.0489	67.3828	93.2622	67.3828	93.0453	67.3828	93.2852	67.3828	93.045	67.3828	93.3063	67.3828	93.0485	67.3828	93.3243	67.3828	93.0559	67.3828	93.3383	67.3828	93.0674	67.3828	93.3472	67.3828	93.0833	67.3828	93.3501	67.3828	93.1032	67.3828	93.3467	67.3828	93.1269	67.3828	93.3367	67.3828	93.1538	67.3828	93.3205	67.3828	93.183	67.3828	93.2989	67.3828	93.2135	67.3828	93.2729	67.3828	93.244
68.8477	93.3306	68.8477	93.3105	68.8477	93.3526	68.8477	93.2928	68.8477	93.3764	68.8477	93.2774	68.8477	93.4018	68.8477	93.2648	68.8477	93.4282	68.8477	93.255	68.8477	93.4552	68.8477	93.2485	68.8477	93.482	68.8477	93.2456	68.8477	93.5079	68.8477	93.2465	68.8477	93.5317	68.8477	93.2517	68.8477	93.5523	68.8477	93.2614	68.8477	93.5686	68.8477	93.2757	68.8477	93.5794	68.8477	93.2946	68.8477	93.5838	68.8477	93.3178	68.8477	93.5813	68.8477	93.345	68.8477	93.5717	68.8477	93.3753	68.8477	93.5552	68.8477	93.4078	68.8477	93.5327	68.8477	93.4413	68.8477	93.5052	68.8477	93.4742
71.7773	93.7303	71.7773	93.7099	71.7773	93.7518	71.7773	93.6905	71.7773	93.7742	71.7773	93.6725	71.7773	93.7973	71.7773	93.656	71.7773	93.8212	71.7773	93.6415	71.7773	93.8455	71.7773	93.6296	71.7773	93.8698	71.7773	93.6206	71.7773	93.8934	71.7773	93.6154	71.7773	93.9156	71.7773	93.6146	71.7773	93.9351	71.7773	93.6187	71.7773	93.9508	71.7773	93.6284	71.7773	93.9611	71.7773	93.6438	71.7773	93.9648	71.7773	93.6652	71.7773	93.961	71.7773	93.6921	71.7773	93.9492	71.7773	93.7238	71.7773	93.9296	71.7773	93.7592	71.7773	93.903	71.7773	93.7968	71.7773	93.8707	71.7773	93.8346
74.707	94.1185	74.707	94.0921	74.707	94.1452	74.707	94.0664	74.707	94.1719	74.707	94.0418	74.707	94.1983	74.707	94.0188	74.707	94.2241	74.707	93.998	74.707	94.2488	74.707	93.9799	74.707	94.2722	74.707	93.9655	74.707	94.2935	74.707	93.9553	74.707	94.312	74.707	93.9503	74.707	94.327	74.707	93.951	74.707	94.3372	74.707	93.9582	74.707	94.3415	74.707	93.9722	74.707	94.339	74.707	93.993	74.707	94.3288	74.707	94.0203	74.707	94.3107	74.707	94.0535	74.707	94.2849	74.707	94.0913	74.707	94.2525	74.707	94.1321	74.707	94.2149	74.707	94.174
77.6367	94.3569	77.6367	94.3252	77.6367	94.3876	77.6367	94.2931	77.6367	94.4167	77.6367	94.2613	77.6367	94.4439	77.6367	94.2307	77.6367	94.4686	77.6367	94.2021	77.6367	94.4907	77.6367	94.1767	77.6367	94.5099	77.6367	94.1555	77.6367	94.5258	77.6367	94.1394	77.6367	94.5381	77.6367	94.1296	77.6367	94.5462	77.6367	94.1269	77.6367	94.5496	77.6367	94.132	77.6367	94.5475	77.6367	94.1451	77.6367	94.5392	77.6367	94.1662	77.6367	94.5242	77.6367	94.1948	77.6367	94.5023	77.6367	94.2298	77.6367	94.4736	77.6367	94.2698	77.6367	94.4389	77.6367	94.3127	77.6367	94.3993	77.6367	94.3566
79.1016	94.5686	79.1016	94.5376	79.1016	94.5973	79.1016	94.505	79.1016	94.6237	79.1016	94.4713	79.1016	94.6476	79.1016	94.4373	79.1016	94.6689	79.1016	94.404	79.1016	94.6876	79.1016	94.3726	79.1016	94.7035	79.1016	94.3443	79.1016	94.7165	79.1016	94.3205	79.1016	94.7261	79.1016	94.3026	79.1016	94.7316	79.1016	94.2918	79.1016	94.7322	79.1016	94.2892	79.1016	94.727	79.1016	94.2955	79.1016	94.7149	79.1016	94.3111	79.1016	94.6954	79.1016	94.3358	79.1016	94.6683	79.1016	94.3687	79.1016	94.6339	79.1016	94.4085	79.1016	94.5933	79.1016	94.4533	79.1016	94.5482	79.1016	94.5007
82.0313	95.0419	82.0313	95.0114	82.0313	95.0689	82.0313	94.9777	82.0313	95.0923	82.0313	94.941	82.0313	95.1123	82.0313	94.9022	82.0313	95.129	82.0313	94.8621	82.0313	95.1425	82.0313	94.8219	82.0313	95.1529	82.0313	94.7829	82.0313	95.16	82.0313	94.747	82.0313	95.1634	82.0313	94.7159	82.0313	95.1626	82.0313	94.6915	82.0313	95.1565	82.0313	94.6757	82.0313	95.1441	82.0313	94.6701	82.0313	95.1245	82.0313	94.6757	82.0313	95.0968	82.0313	94.6931	82.0313	95.061	82.0313	94.7219	82.0313	95.0175	82.0313	94.7608	82.0313	94.9679	82.0313	94.8077	82.0313	94.9144	82.0313	94.86
84.9609	95.3237	84.9609	95.2904	84.9609	95.3532	84.9609	95.2536	84.9609	95.3787	84.9609	95.2137	84.9609	95.4002	84.9609	95.1715	84.9609	95.4178	84.9609	95.1279	84.9609	95.4315	84.9609	95.0841	84.9609	95.4414	84.9609	95.0416	84.9609	95.4473	84.9609	95.0021	84.9609	95.4489	84.9609	94.9676	84.9609	95.4457	84.9609	94.9402	84.9609	95.4368	84.9609	94.9218	84.9609	95.4212	84.9609	94.9143	84.9609	95.398	84.9609	94.9187	84.9609	95.3665	84.9609	94.9358	84.9609	95.3266	84.9609	94.9651	84.9609	95.279	84.9609	95.0055	84.9609	95.2254	84.9609	95.0547	84.9609	95.168	84.9609	95.11
87.8906	95.6009	87.8906	95.563	87.8906	95.6359	87.8906	95.5229	87.8906	95.6676	87.8906	95.4811	87.8906	95.6958	87.8906	95.4388	87.8906	95.7204	87.8906	95.3971	87.8906	95.7415	87.8906	95.3574	87.8906	95.759	87.8906	95.3213	87.8906	95.7728	87.8906	95.2905	87.8906	95.7826	87.8906	95.2667	87.8906	95.7879	87.8906	95.2517	87.8906	95.7877	87.8906	95.2469	87.8906	95.7808	87.8906	95.2534	87.8906	95.7662	87.8906	95.2718	87.8906	95.7429	87.8906	95.3017	87.8906	95.7103	87.8906	95.3422	87.8906	95.6688	87.8906	95.3915	87.8906	95.6194	87.8906	95.4469	87.8906	95.5641	87.8906	95.5055
90.8203	96.0062	90.8203	95.9691	90.8203	96.0385	90.8203	95.9274	90.8203	96.0658	90.8203	95.8821	90.8203	96.0882	90.8203	95.8341	90.8203	96.1063	90.8203	95.785	90.8203	96.1204	90.8203	95.7365	90.8203	96.1313	90.8203	95.691	90.8203	96.1393	90.8203	95.6507	90.8203	96.1446	90.8203	95.6183	90.8203	96.1471	90.8203	95.5963	90.8203	96.1459	90.8203	95.5869	90.8203	96.1399	90.8203	95.5915	90.8203	96.1276	90.8203	95.6109	90.8203	96.1075	90.8203	95.6446	90.8203	96.0782	90.8203	95.6908	90.8203	96.0392	90.8203	95.7467	90.8203	95.9908	90.8203	95.8087	90.8203	95.9344	90.8203	95.8726
95.2148	96.8354	95.2148	96.7992	95.2148	96.8627	95.2148	96.7539	95.2148	96.8812	95.2148	96.6996	95.2148	96.8913	95.2148	96.637	95.2148	96.8934	95.2148	96.5668	95.2148	96.8879	95.2148	96.4903	95.2148	96.875	95.2148	96.4094	95.2148	96.8551	95.2148	96.3267	95.2148	96.8279	95.2148	96.2453	95.2148	96.793	95.2148	96.1688	95.2148	96.7499	95.2148	96.1014	95.2148	96.6978	95.2148	96.0473	95.2148	96.6363	95.2148	96.0106	95.2148	96.5653	95.2148	95.9943	95.2148	96.4858	95.2148	96.0004	95.2148	96.4001	95.2148	96.029	95.2148	96.3115	95.2148	96.0785	95.2148	96.2248	95.2148	96.1453
98.1445	97.0047	98.1445	96.9691	98.1445	97.0367	98.1445	96.9303	98.1445	97.0648	98.1445	96.8891	98.1445	97.0891	98.1445	96.8464	98.1445	97.1098	98.1445	96.8033	98.1445	97.1271	98.1445	96.7611	98.1445	97.1414	98.1445	96.7214	98.1445	97.1528	98.1445	96.6858	98.1445	97.1609	98.1445	96.6559	98.1445	97.1649	98.1445	96.6335	98.1445	97.1636	98.1445	96.6203	98.1445	97.1551	98.1445	96.6178	98.1445	97.1379	98.1445	96.6271	98.1445	97.1105	98.1445	96.6488	98.1445	97.0724	98.1445	96.6828	98.1445	97.0243	98.1445	96.7281	98.1445	96.9679	98.1445	96.7826	98.1445	96.9063	98.1445	96.8432
101.074	97.3337	101.074	97.2948	101.074	97.3673	101.074	97.2513	101.074	97.3954	101.074	97.2042	101.074	97.4179	101.074	97.1547	101.074	97.4353	101.074	97.1044	101.074	97.4481	101.074	97.055	101.074	97.457	101.074	97.0086	101.074	97.4626	101.074	96.9671	101.074	97.4651	101.074	96.9327	101.074	97.4641	101.074	96.9075	101.074	97.4589	101.074	96.8934	101.074	97.4479	101.074	96.8918	101.074	97.4295	101.074	96.9036	101.074	97.4022	101.074	96.9291	101.074	97.3651	101.074	96.9674	101.074	97.3183	101.074	97.0169	101.074	97.263	101.074	97.0748	101.074	97.2017	101.074	97.1376
105.469	97.8059	105.469	97.7614	105.469	97.8432	105.469	97.7105	105.469	97.8729	105.469	97.6543	105.469	97.8952	105.469	97.5945	105.469	97.9105	105.469	97.5329	105.469	97.9196	105.469	97.4718	105.469	97.9234	105.469	97.4137	105.469	97.9228	105.469	97.3612	105.469	97.9185	105.469	97.3172	105.469	97.9105	105.469	97.2843	105.469	97.8981	105.469	97.2649	105.469	97.8803	105.469	97.2606	105.469	97.8556	105.469	97.2725	105.469	97.8224	105.469	97.3004	105.469	97.7798	105.469	97.3429	105.469	97.7277	105.469	97.3978	105.469	97.6672	105.469	97.4617	105.469	97.6004	105.469	97.5306
108.398	98.17	108.398	98.127	108.398	98.2036	108.398	98.0753	108.398	98.2278	108.398	98.0161	108.398	98.2428	108.398	97.9508	108.398	98.2494	108.398	97.8813	108.398	98.2486	108.398	97.8101	108.398	98.2417	108.398	97.7398	108.398	98.2301	108.398	97.6733	108.398	98.2145	108.398	97.6139	108.398	98.1953	108.398	97.5649	108.398	98.1721	108.398	97.5293	108.398	98.144	108.398	97.5098	108.398	98.1093	108.398	97.508	108.398	98.0667	108.398	97.5247	108.398	98.0153	108.398	97.559	108.398	97.955	108.398	97.609	108.398	97.8873	108.398	97.6711	108.398	97.8148	108.398	97.7413
112.793	98.5997	112.793	98.5538	112.793	98.6381	112.793	98.5014	112.793	98.6685	112.793	98.4436	112.793	98.6912	112.793	98.382	112.793	98.7065	112.793	98.3187	112.793	98.7155	112.793	98.2558	112.793	98.7192	112.793	98.1956	112.793	98.7188	112.793	98.1407	112.793	98.7149	112.793	98.0938	112.793	98.7076	112.793	98.0574	112.793	98.696	112.793	98.0341	112.793	98.6787	112.793	98.0258	112.793	98.6535	112.793	98.0342	112.793	98.6187	112.793	98.0596	112.793	98.573	112.793	98.1014	112.793	98.516	112.793	98.1577	112.793	98.4494	112.793	98.2252	112.793	98.3758	112.793	98.2995
117.188	99.0759	117.188	99.0282	117.188	99.1152	117.188	98.9734	117.188	99.1457	117.188	98.9133	117.188	99.1673	117.188	98.8497	117.188	99.1806	117.188	98.7852	117.188	99.1869	117.188	98.7222	117.188	99.1879	117.188	98.6635	117.188	99.1852	117.188	98.612	117.188	99.18	117.188	98.5702	117.188	99.173	117.188	98.5408	117.188	99.1639	117.188	98.5257	117.188	99.1513	117.188	98.5265	117.188	99.1329	117.188	98.5439	117.188	99.1065	117.188	98.5775	117.188	99.07	117.188	98.6257	117.188	99.0226	117.188	98.686	117.188	98.9648	117.188	98.7545	117.188	98.8984	117.188	98.8269
120.117	99.403	120.117	99.3594	120.117	99.4358	120.117	99.3059	120.117	99.4576	120.117	99.2441	120.117	99.4689	120.117	99.176	120.117	99.4711	120.117	99.1043	120.117	99.466	120.117	99.0321	120.117	99.4557	120.117	98.9627	120.117	99.4423	120.117	98.8996	120.117	99.4276	120.117	98.8462	120.117	99.4125	120.117	98.8058	120.117	99.3967	120.117	98.7812	120.117	99.379	120.117	98.7742	120.117	99.3573	120.117	98.7856	120.117	99.329	120.117	98.8148	120.117	99.2922	120.117	98.86	120.117	99.2455	120.117	98.918	120.117	99.1891	120.117	98.9845	120.117	99.1246	120.117	99.055
124.512	99.6616	124.512	99.6198	124.512	99.6905	124.512	99.5658	124.512	99.7068	124.512	99.5007	124.512	99.7116	124.512	99.4267	124.512	99.7065	124.512	99.3462	124.512	99.6937	124.512	99.2627	124.512	99.6755	124.512	99.1799	124.512	99.6543	124.512	99.1019	124.512	99.6318	124.512	99.033	124.512	99.6087	124.512	98.9771	124.512	99.5849	124.512	98.9379	124.512	99.5589	124.512	98.918	124.512	99.5285	124.512	98.9188	124.512	99.4913	124.512	98.9402	124.512	99.4454	124.512	98.9805	124.512	99.3898	124.512	99.0366	124.512	99.325	124.512	99.1042	124.512	99.2533	124.512	99.1781
128.906	99.6355	128.906	99.5908	128.906	99.6685	128.906	99.5348	128.906	99.6898	128.906	99.4686	128.906	99.7	128.906	99.394	128.906	99.7007	128.906	99.3132	128.906	99.6934	128.906	99.2293	128.906	99.6805	128.906	99.1457	128.906	99.6639	128.906	99.0664	128.906	99.6452	128.906	98.9956	128.906	99.6252	128.906	98.9377	128.906	99.6035	128.906	98.8966	128.906	99.5784	128.906	98.8754	128.906	99.5475	128.906	98.8761	128.906	99.5082	128.906	98.8992	128.906	99.4584	128.906	98.9431	128.906	99.3973	128.906	99.0048	128.906	99.3254	128.906	99.0796	128.906	99.2455	128.906	99.1618
133.301	99.8841	133.301	99.8329	133.301	99.9243	133.301	99.7717	133.301	99.953	133.301	99.7022	133.301	99.9706	133.301	99.6265	133.301	99.9781	133.301	99.5471	133.301	99.9771	133.301	99.4672	133.301	99.97	133.301	99.3899	133.301	99.9588	133.301	99.319	133.301	99.9455	133.301	99.2582	133.301	99.9309	133.301	99.2114	133.301	99.9146	133.301	99.1818	133.301	99.8951	133.301	99.1719	133.301	99.8696	133.301	99.1833	133.301	99.8353	133.301	99.2157	133.301	99.7898	133.301	99.2675	133.301	99.7321	133.301	99.3353	133.301	99.6625	133.301	99.4144	133.301	99.5835	133.301	99.499
139.16	100.045	139.16	99.9892	139.16	100.086	139.16	99.9215	139.16	100.114	139.16	99.8435	139.16	100.128	139.16	99.758	139.16	100.129	139.16	99.668	139.16	100.121	139.16	99.5773	139.16	100.105	139.16	99.4897	139.16	100.086	139.16	99.4096	139.16	100.065	139.16	99.3411	139.16	100.043	139.16	99.2884	139.16	100.022	139.16	99.2549	139.16	99.9993	139.16	99.2434	139.16	99.9721	139.16	99.2552	139.16	99.9371	139.16	99.29	139.16	99.8912	139.16	99.3455	139.16	99.8327	139.16	99.418	139.16	99.7614	139.16	99.502	139.16	99.6796	139.16	99.5913
143.555	99.9717	143.555	99.9127	143.555	100.016	143.555	99.8408	143.555	100.046	143.555	99.7583	143.555	100.062	143.555	99.6683	143.555	100.065	143.555	99.5742	143.555	100.057	143.555	99.48	143.555	100.042	143.555	99.3902	143.555	100.023	143.555	99.3093	143.555	100.004	143.555	99.2418	143.555	99.9847	143.555	99.1919	143.555	99.9663	143.555	99.1631	143.555	99.9468	143.555	99.1577	143.555	99.9231	143.555	99.1766	143.555	99.8914	143.555	99.2189	143.555	99.8483	143.555	99.2821	143.555	99.7913	143.555	99.3615	143.555	99.7202	143.555	99.4515	143.555	99.6369	143.555	99.5455
147.949	99.9723	147.949	99.9089	147.949	100.02	147.949	99.8314	147.949	100.051	147.949	99.742	147.949	100.067	147.949	99.644	147.949	100.068	147.949	99.5411	147.949	100.057	147.949	99.4376	147.949	100.038	147.949	99.3385	147.949	100.014	147.949	99.2488	147.949	99.9887	147.949	99.1738	147.949	99.9639	147.949	99.118	147.949	99.9401	147.949	99.0857	147.949	99.9159	147.949	99.0791	147.949	99.8883	147.949	99.0994	147.949	99.8536	147.949	99.1451	147.949	99.8078	147.949	99.2131	147.949	99.7485	147.949	99.2981	147.949	99.6748	147.949	99.3936	147.949	99.5882	147.949	99.4926
153.809	99.9337	153.809	99.8707	153.809	99.9785	153.809	99.7909	153.809	100.005	153.809	99.697	153.809	100.013	153.809	99.5922	153.809	100.005	153.809	99.4806	153.809	99.9841	153.809	99.3669	153.809	99.9549	153.809	99.2564	153.809	99.9215	153.809	99.1548	153.809	99.8878	153.809	99.068	153.809	99.8562	153.809	99.0015	153.809	99.8274	153.809	98.9598	153.809	99.7998	153.809	98.9462	153.809	99.7698	153.809	98.9616	153.809	99.7332	153.809	99.0051	153.809	99.6858	153.809	99.073	153.809	99.6246	153.809	99.1596	153.809	99.5485	153.809	99.258	153.809	99.4591	153.809	99.3602
159.668	99.9454	159.668	99.8835	159.668	99.9885	159.668	99.8047	159.668	100.012	159.668	99.7118	159.668	100.016	159.668	99.6083	159.668	100.004	159.668	99.4984	159.668	99.977	159.668	99.3867	159.668	99.9403	159.668	99.2783	159.668	99.8983	159.668	99.1783	159.668	99.8551	159.668	99.0921	159.668	99.8138	159.668	99.0244	159.668	99.7754	159.668	98.9793	159.668	99.7391	159.668	98.9597	159.668	99.702	159.668	98.9665	159.668	99.6603	159.668	98.9991	159.668	99.6103	159.668	99.0544	159.668	99.5494	159.668	99.1279	159.668	99.4767	159.668	99.2133	159.668	99.3937	159.668	99.3041
165.527	99.8483	165.527	99.7861	165.527	99.8912	165.527	99.7064	165.527	99.9144	165.527	99.6119	165.527	99.9187	165.527	99.5062	165.527	99.9066	165.527	99.3938	165.527	99.8817	165.527	99.28	165.527	99.8488	165.527	99.1704	165.527	99.8129	165.527	99.0713	165.527	99.7785	165.527	98.9886	165.527	99.7487	165.527	98.9279	165.527	99.7241	165.527	98.8934	165.527	99.7029	165.527	98.8877	165.527	99.6814	165.527	98.911	165.527	99.6544	165.527	98.9613	165.527	99.617	165.527	99.0341	165.527	99.5653	165.527	99.1234	165.527	99.4977	165.527	99.2217	165.527	99.4152	165.527	99.3213
171.387	99.7461	171.387	99.6859	171.387	99.7856	171.387	99.6065	171.387	99.8039	171.387	99.5106	171.387	99.8022	171.387	99.4018	171.387	99.7831	171.387	99.2845	171.387	99.7507	171.387	99.1641	171.387	99.71	171.387	99.0464	171.387	99.6667	171.387	98.938	171.387	99.6256	171.387	98.8455	171.387	99.59	171.387	98.7752	171.387	99.561	171.387	98.7323	171.387	99.5368	171.387	98.7201	171.387	99.5136	171.387	98.7394	171.387	99.4861	171.387	98.7881	171.387	99.4491	171.387	98.8615	171.387	99.3983	171.387	98.9526	171.387	99.3316	171.387	99.0531	171.387	99.2492	171.387	99.1545
177.246	99.5991	177.246	99.5373	177.246	99.6393	177.246	99.4557	177.246	99.6574	177.246	99.3574	177.246	99.6543	177.246	99.2461	177.246	99.6331	177.246	99.1266	177.246	99.5982	177.246	99.0042	177.246	99.5555	177.246	98.8848	177.246	99.5111	177.246	98.775	177.246	99.4705	177.246	98.6815	177.246	99.4372	177.246	98.6106	177.246	99.4121	177.246	98.5675	177.246	99.3927	177.246	98.5559	177.246	99.3742	177.246	98.5766	177.246	99.3505	177.246	98.6277	177.246	99.3156	177.246	98.7046	177.246	99.265	177.246	98.7999	177.246	99.1964	177.246	98.9053	177.246	99.1107	177.246	99.0116
183.105	99.4106	183.105	99.3442	183.105	99.4525	183.105	99.2556	183.105	99.4693	183.105	99.148	183.105	99.4619	183.105	99.0258	183.105	99.4337	183.105	98.8941	183.105	99.3896	183.105	98.7586	183.105	99.3363	183.105	98.6259	183.105	99.2813	183.105	98.503	183.105	99.2311	183.105	98.3972	183.105	99.1904	183.105	98.3157	183.105	99.1606	183.105	98.2647	183.105	99.1393	183.105	98.2483	183.105	99.1209	183.105	98.268	183.105	99.0982	183.105	98.3218	183.105	99.0637	183.105	98.4045	183.105	99.0117	183.105	98.5083	183.105	98.9394	183.105	98.6234	183.105	98.8472	183.105	98.7395
188.965	99.319	188.965	99.2558	188.965	99.356	188.965	99.1686	188.965	99.3663	188.965	99.061	188.965	99.3511	188.965	98.9376	188.965	99.314	188.965	98.8035	188.965	99.2606	188.965	98.6651	188.965	99.198	188.965	98.5289	188.965	99.1342	188.965	98.4022	188.965	99.0763	188.965	98.2925	188.965	99.0296	188.965	98.207	188.965	98.9957	188.965	98.152	188.965	98.9725	188.965	98.1318	188.965	98.9546	188.965	98.1479	188.965	98.9345	188.965	98.1985	188.965	98.9045	188.965	98.2783	188.965	98.8582	188.965	98.3791	188.965	98.7919	188.965	98.4908	188.965	98.7055	188.965	98.6028
196.289	99.2082	196.289	99.1497	196.289	99.2384	196.289	99.065	196.289	99.2402	196.289	98.9575	196.289	99.2152	196.289	98.8318	196.289	99.1676	196.289	98.6934	196.289	99.1034	196.289	98.5488	196.289	99.0308	196.289	98.4054	196.289	98.9585	196.289	98.271	196.289	98.8944	196.289	98.1539	196.289	98.8441	196.289	98.0621	196.289	98.8092	196.289	98.0022	196.289	98.7871	196.289	97.9787	196.289	98.7717	196.289	97.9926	196.289	98.7547	196.289	98.0418	196.289	98.7278	196.289	98.1203	196.289	98.6845	196.289	98.2194	196.289	98.6212	196.289	98.3289	196.289	98.5379	196.289	98.4381
203.613	99.0197	203.613	98.9554	203.613	99.0537	203.613	98.8635	203.613	99.0568	203.613	98.7481	203.613	99.0304	203.613	98.6145	203.613	98.9788	203.613	98.4689	203.613	98.9089	203.613	98.3187	203.613	98.8297	203.613	98.1718	203.613	98.7516	203.613	98.0366	203.613	98.6844	203.613	97.9218	203.613	98.6351	203.613	97.8353	203.613	98.6062	203.613	97.7838	203.613	98.5949	203.613	97.7713	203.613	98.5935	203.613	97.7983	203.613	98.5919	203.613	97.8619	203.613	98.5795	203.613	97.955	203.613	98.5477	203.613	98.0679	203.613	98.4913	203.613	98.1889	203.613	98.4096	203.613	98.3063
210.938	98.8725	210.938	98.804	210.938	98.9083	210.938	98.7057	210.938	98.9104	210.938	98.5822	210.938	98.8803	210.938	98.4389	210.938	98.8221	210.938	98.2826	210.938	98.7428	210.938	98.1206	210.938	98.652	210.938	97.9615	210.938	98.5607	210.938	97.8144	210.938	98.4797	210.938	97.6886	210.938	98.4171	210.938	97.5932	210.938	98.3766	210.938	97.5355	210.938	98.3561	210.938	97.52	210.938	98.3486	210.938	97.5473	210.938	98.3441	210.938	97.6134	210.938	98.3314	210.938	97.7101	210.938	98.3013	210.938	97.8263	210.938	98.2476	210.938	97.9493	210.938	98.1685	210.938	98.0668
218.262	98.7481	218.262	98.6911	218.262	98.7702	218.262	98.6011	218.262	98.7576	218.262	98.4819	218.262	98.7127	218.262	98.3389	218.262	98.6407	218.262	98.179	218.262	98.5491	218.262	98.0107	218.262	98.4481	218.262	97.8436	218.262	98.3492	218.262	97.6882	218.262	98.2633	218.262	97.555	218.262	98.1989	218.262	97.4535	218.262	98.1598	218.262	97.3912	218.262	98.1437	218.262	97.3721	218.262	98.1434	218.262	97.3963	218.262	98.1474	218.262	97.4595	218.262	98.1438	218.262	97.5536	218.262	98.1219	218.262	97.6672	218.262	98.075	218.262	97.7878	218.262	98.0008	218.262	97.9026
225.586	98.6157	225.586	98.5656	225.586	98.6318	225.586	98.4834	225.586	98.6141	225.586	98.3725	225.586	98.5649	225.586	98.2374	225.586	98.4894	225.586	98.0842	225.586	98.3956	225.586	97.9207	225.586	98.2943	225.586	97.7559	225.586	98.1973	225.586	97.6004	225.586	98.1162	225.586	97.4654	225.586	98.0589	225.586	97.3615	225.586	98.0282	225.586	97.2973	225.586	98.0206	225.586	97.2776	225.586	98.0276	225.586	97.3025	225.586	98.0378	225.586	97.3675	225.586	98.0392	225.586	97.4635	225.586	98.0219	225.586	97.5786	225.586	97.979	225.586	97.6993	225.586	97.9085	225.586	97.8129
232.91	98.4975	232.91	98.4413	232.91	98.5168	232.91	98.3504	232.91	98.4984	232.91	98.2283	232.91	98.444	232.91	98.0799	232.91	98.3584	232.91	97.9112	232.91	98.2499	232.91	97.7302	232.91	98.1305	232.91	97.5463	232.91	98.0145	232.91	97.3713	232.91	97.9161	232.91	97.2178	232.91	97.8459	232.91	97.0983	232.91	97.8077	232.91	97.0234	232.91	97.7981	232.91	96.9993	232.91	97.807	232.91	97.0265	232.91	97.8208	232.91	97.0993	232.91	97.8257	232.91	97.2069	232.91	97.8104	232.91	97.3349	232.91	97.7672	232.91	97.4678	232.91	97.6933	232.91	97.5911
241.699	98.3619	241.699	98.2947	241.699	98.3898	241.699	98.1918	241.699	98.3764	241.699	98.0578	241.699	98.3221	241.699	97.8981	241.699	98.2308	241.699	97.7189	241.699	98.1109	241.699	97.5279	241.699	97.9752	241.699	97.3346	241.699	97.8401	241.699	97.1506	241.699	97.7224	241.699	96.9889	241.699	97.6361	241.699	96.8628	241.699	97.5876	241.699	96.7836	241.699	97.5743	241.699	96.7583	241.699	97.5852	241.699	96.7875	241.699	97.6043	241.699	96.8651	241.699	97.6152	241.699	96.9793	241.699	97.6043	241.699	97.1144	241.699	97.563	241.699	97.254	241.699	97.4882	241.699	97.3826
250.488	98.2178	250.488	98.1431	250.488	98.2506	250.488	98.0303	250.488	98.2392	250.488	97.8841	250.488	98.184	250.488	97.7097	250.488	98.089	250.488	97.5136	250.488	97.9626	250.488	97.3039	250.488	97.8178	250.488	97.0912	250.488	97.6716	250.488	96.8884	250.488	97.5415	250.488	96.7105	250.488	97.4428	250.488	96.5725	250.488	97.3835	250.488	96.4869	250.488	97.3625	250.488	96.4609	250.488	97.3695	250.488	96.4945	250.488	97.3876	250.488	96.5804	250.488	97.3986	250.488	96.7053	250.488	97.3866	250.488	96.8525	250.488	97.3414	250.488	97.0042	250.488	97.2596	250.488	97.1443
259.277	98.2484	259.277	98.183	259.277	98.272	259.277	98.0807	259.277	98.2504	259.277	97.9467	259.277	98.1827	259.277	97.7857	259.277	98.0729	259.277	97.6023	259.277	97.9303	259.277	97.4018	259.277	97.7699	259.277	97.1915	259.277	97.611	259.277	96.9817	259.277	97.4734	259.277	96.7866	259.277	97.3726	259.277	96.623	259.277	97.3154	259.277	96.5079	259.277	97.2986	259.277	96.4541	259.277	97.3103	259.277	96.4668	259.277	97.3339	259.277	96.5413	259.277	97.3516	259.277	96.6639	259.277	97.3472	259.277	96.8147	259.277	97.3091	259.277	96.9722	259.277	97.2316	259.277	97.1163
268.066	98.0228	268.066	97.9277	268.066	98.0709	268.066	97.7932	268.066	98.066	268.066	97.6272	268.066	98.0058	268.066	97.437	268.066	97.8929	268.066	97.2295	268.066	97.7373	268.066	97.0111	268.066	97.5565	268.066	96.7894	268.066	97.374	268.066	96.5736	268.066	97.2157	268.066	96.3759	268.066	97.1026	268.066	96.2111	268.066	97.0443	268.066	96.0951	268.066	97.0356	268.066	96.0416	268.066	97.0595	268.066	96.0581	268.066	97.0929	268.066	96.1424	268.066	97.1132	268.066	96.2817	268.066	97.1026	268.066	96.4554	268.066	97.0499	268.066	96.6394	268.066	96.9513	268.066	96.8107
276.855	97.9618	276.855	97.8597	276.855	98.0118	276.855	97.7135	276.855	98.0038	276.855	97.5321	276.855	97.9351	276.855	97.324	276.855	97.8075	276.855	97.0978	276.855	97.6289	276.855	96.8618	276.855	97.4146	276.855	96.626	276.855	97.1874	276.855	96.4022	276.855	96.9758	276.855	96.2045	276.855	96.8083	276.855	96.0472	276.855	96.7043	276.855	95.9428	276.855	96.6664	276.855	95.8989	276.855	96.68	276.855	95.9168	276.855	96.7188	276.855	95.9909	276.855	96.7551	276.855	96.1094	276.855	96.7662	276.855	96.2556	276.855	96.738	276.855	96.4099	276.855	96.6654	276.855	96.5522
287.109	98.1886	287.109	98.1162	287.109	98.2003	287.109	97.9885	287.109	98.1499	287.109	97.8139	287.109	98.0403	287.109	97.6027	287.109	97.8788	287.109	97.3659	287.109	97.6767	287.109	97.1138	287.109	97.4496	287.109	96.8574	287.109	97.2173	287.109	96.6083	287.109	97.0024	287.109	96.3808	287.109	96.8277	287.109	96.1911	287.109	96.7099	287.109	96.055	287.109	96.654	287.109	95.9836	287.109	96.6497	287.109	95.98	287.109	96.6746	287.109	96.0368	287.109	96.7019	287.109	96.1386	287.109	96.7091	287.109	96.2659	287.109	96.6826	287.109	96.399	287.109	96.6186	287.109	96.521
297.363	97.9834	297.363	97.9305	297.363	97.9813	297.363	97.8228	297.363	97.9264	297.363	97.6635	297.363	97.8232	297.363	97.459	297.363	97.6787	297.363	97.2192	297.363	97.5034	297.363	96.9567	297.363	97.3115	297.363	96.6863	297.363	97.1201	297.363	96.4241	297.363	96.9476	297.363	96.1869	297.363	96.8106	297.363	95.9911	297.363	96.7205	297.363	95.8514	297.363	96.68	297.363	95.7782	297.363	96.6807	297.363	95.7751	297.363	96.7038	297.363	95.8381	297.363	96.7246	297.363	95.9551	297.363	96.7192	297.363	96.1088	297.363	96.6715	297.363	96.2778	297.363	96.5765	297.363	96.4404
307.617	97.8443	307.617	97.7463	307.617	97.89	307.617	97.6046	307.617	97.8753	307.617	97.4263	307.617	97.7948	307.617	97.2175	307.617	97.6495	307.617	96.9843	307.617	97.4492	307.617	96.7348	307.617	97.2146	307.617	96.4806	307.617	96.9754	307.617	96.238	307.617	96.7654	307.617	96.0271	307.617	96.6134	307.617	95.8693	307.617	96.5347	307.617	95.7833	307.617	96.5278	307.617	95.7792	307.617	96.5769	307.617	95.8551	307.617	96.6577	307.617	95.9961	307.617	96.7428	307.617	96.1782	307.617	96.806	307.617	96.3731	307.617	96.8265	307.617	96.554	307.617	96.7916	307.617	96.6985
319.336	97.715	319.336	97.614	319.336	97.7574	319.336	97.4615	319.336	97.7361	319.336	97.2654	319.336	97.649	319.336	97.034	319.336	97.4993	319.336	96.7758	319.336	97.2963	319.336	96.5015	319.336	97.0575	319.336	96.2243	319.336	96.8087	319.336	95.9614	319.336	96.5809	319.336	95.7336	319.336	96.4041	319.336	95.5619	319.336	96.2986	319.336	95.4645	319.336	96.2682	319.336	95.4513	319.336	96.2994	319.336	95.5205	319.336	96.3671	319.336	95.6585	319.336	96.4424	319.336	95.8414	319.336	96.4984	319.336	96.0406	319.336	96.5139	319.336	96.2274	319.336	96.475	319.336	96.3775
329.59	97.7329	329.59	97.6338	329.59	97.7687	329.59	97.4815	329.59	97.7329	329.59	97.2857	329.59	97.6216	329.59	97.0541	329.59	97.4382	329.59	96.7925	329.59	97.1957	329.59	96.5064	329.59	96.9188	329.59	96.2043	329.59	96.6427	329.59	95.9006	329.59	96.4079	329.59	95.6178	329.59	96.2497	329.59	95.3845	329.59	96.1858	329.59	95.2295	329.59	96.2093	329.59	95.1732	329.59	96.2922	329.59	95.2204	329.59	96.3959	329.59	95.3585	329.59	96.4824	329.59	95.5619	329.59	96.5225	329.59	95.7985	329.59	96.4984	329.59	96.0358	329.59	96.4043	329.59	96.2452
341.309	97.7434	341.309	97.6275	341.309	97.786	341.309	97.4478	341.309	97.748	341.309	97.2161	341.309	97.6263	341.309	96.9445	341.309	97.4235	341.309	96.645	341.309	97.1513	341.309	96.3292	341.309	96.8326	341.309	96.0088	341.309	96.5039	341.309	95.6977	341.309	96.2124	341.309	95.4146	341.309	96.0054	341.309	95.1841	341.309	95.914	341.309	95.0336	341.309	95.9393	341.309	94.9866	341.309	96.0512	341.309	95.0527	341.309	96.2018	341.309	95.222	341.309	96.3422	341.309	95.465	341.309	96.4334	341.309	95.741	341.309	96.4504	341.309	96.008	341.309	96.3822	341.309	96.2302
353.027	97.7085	353.027	97.5952	353.027	97.7419	353.027	97.4131	353.027	97.6861	353.027	97.1737	353.027	97.5365	353.027	96.8874	353.027	97.295	353.027	96.5635	353.027	96.9724	353.027	96.2114	353.027	96.5918	353.027	95.844	353.027	96.1909	353.027	95.4803	353.027	95.8207	353.027	95.1471	353.027	95.5375	353.027	94.8765	353.027	95.3849	353.027	94.699	353.027	95.3749	353.027	94.6355	353.027	95.4813	353.027	94.6895	353.027	95.6508	353.027	94.8458	353.027	95.8234	353.027	95.0742	353.027	95.9483	353.027	95.3361	353.027	95.9928	353.027	95.5914	353.027	95.9433	353.027	95.8035
366.211	97.9131	366.211	97.787	366.211	97.953	366.211	97.5856	366.211	97.8986	366.211	97.3222	366.211	97.7452	366.211	97.0106	366.211	97.4931	366.211	96.665	366.211	97.1501	366.211	96.2984	366.211	96.7347	366.211	95.9239	366.211	96.2809	366.211	95.5565	366.211	95.8406	366.211	95.2166	366.211	95.4792	366.211	94.931	366.211	95.2577	366.211	94.7297	366.211	95.2056	366.211	94.6372	366.211	95.302	366.211	94.6631	366.211	95.4851	366.211	94.7966	366.211	95.6804	366.211	95.0086	366.211	95.8266	366.211	95.2597	366.211	95.8866	366.211	95.5077	366.211	95.8471	366.211	95.7139
379.395	97.9975	379.395	97.8717	379.395	98.0428	379.395	97.6761	379.395	97.9975	379.395	97.4211	379.395	97.8542	379.395	97.1158	379.395	97.6109	379.395	96.7688	379.395	97.2743	379.395	96.3901	379.395	96.8638	379.395	95.9934	379.395	96.4155	379.395	95.5996	379.395	95.9827	379.395	95.238	379.395	95.6294	379.395	94.9449	379.395	95.4118	379.395	94.7573	379.395	95.3558	379.395	94.7024	379.395	95.4443	379.395	94.7856	379.395	95.6254	379.395	94.9854	379.395	95.8339	379.395	95.2586	379.395	96.0106	379.395	95.5526	379.395	96.1126	379.395	95.8175	379.395	96.1157	379.395	96.0138
392.578	97.923	392.578	97.7514	392.578	98.0089	392.578	97.5086	392.578	97.9963	392.578	97.2094	392.578	97.8756	392.578	96.8666	392.578	97.6423	392.578	96.4892	392.578	97.2996	392.578	96.0828	392.578	96.8636	392.578	95.6534	392.578	96.3689	392.578	95.2146	392.578	95.8726	392.578	94.7945	392.578	95.4516	392.578	94.4378	392.578	95.1822	392.578	94.1977	392.578	95.1061	392.578	94.1178	392.578	95.2057	392.578	94.2106	392.578	95.4132	392.578	94.4505	392.578	95.6443	392.578	94.7833	392.578	95.8275	392.578	95.145	392.578	95.9155	392.578	95.4773	392.578	95.8853	392.578	95.7342
405.762	97.9031	405.762	97.7473	405.762	97.9681	405.762	97.51	405.762	97.9345	405.762	97.202	405.762	97.7954	405.762	96.8372	405.762	97.5463	405.762	96.4311	405.762	97.1884	405.762	95.9988	405.762	96.7329	405.762	95.5541	405.762	96.2063	405.762	95.1106	405.762	95.6583	405.762	94.6877	405.762	95.1657	405.762	94.3169	405.762	94.8238	405.762	94.0425	405.762	94.7105	405.762	93.9123	405.762	94.8353	405.762	93.9577	405.762	95.1226	405.762	94.1743	405.762	95.4525	405.762	94.5188	405.762	95.7163	405.762	94.9228	405.762	95.8458	405.762	95.3135	405.762	95.814	405.762	95.6267
420.41	98.226	420.41	98.0501	420.41	98.306	420.41	97.7939	420.41	98.2763	420.41	97.4716	420.41	98.127	420.41	97.0941	420.41	97.8538	420.41	96.6693	420.41	97.4602	420.41	96.2045	420.41	96.9592	420.41	95.7109	420.41	96.378	420.41	95.2098	420.41	95.762	420.41	94.737	420.41	95.1777	420.41	94.3437	420.41	94.7085	420.41	94.0869	420.41	94.4357	420.41	94.009	420.41	94.4039	420.41	94.1159	420.41	94.5895	420.41	94.3701	420.41	94.9035	420.41	94.7068	420.41	95.2317	420.41	95.0546	420.41	95.4782	420.41	95.3491	420.41	95.5861	420.41	95.5383
435.059	98.1567	435.059	98.0061	435.059	98.2166	435.059	97.7741	435.059	98.1769	435.059	97.47	435.059	98.0294	435.059	97.1026	435.059	97.7672	435.059	96.6794	435.059	97.3877	435.059	96.2061	435.059	96.8974	435.059	95.6891	435.059	96.3187	435.059	95.142	435.059	95.6993	435.059	94.5949	435.059	95.1176	435.059	94.1036	435.059	94.6743	435.059	93.7476	435.059	94.4558	435.059	93.6046	435.059	94.4862	435.059	93.7067	435.059	94.7097	435.059	94.0153	435.059	95.0234	435.059	94.4402	435.059	95.3237	435.059	94.8811	435.059	95.5317	435.059	95.2548	435.059	95.5987	435.059	95.5044
451.172	98.4098	451.172	98.2807	451.172	98.4513	451.172	98.0674	451.172	98.3982	451.172	97.7715	451.172	98.2409	451.172	97.3928	451.172	97.9678	451.172	96.9298	451.172	97.5693	451.172	96.3801	451.172	97.0423	451.172	95.7428	451.172	96.3981	451.172	95.0243	451.172	95.6726	451.172	94.25	451.172	94.939	451.172	93.4824	451.172	94.313	451.172	92.8357	451.172	93.9245	451.172	92.4584	451.172	93.846	451.172	92.4561	451.172	94.0336	451.172	92.8034	451.172	94.3558	451.172	93.3558	451.172	94.6728	451.172	93.9444	451.172	94.8834	451.172	94.4437	451.172	94.9285	451.172	94.7818
465.82	98.2613	465.82	98.1345	465.82	98.3173	465.82	97.9476	465.82	98.2909	465.82	97.7106	465.82	98.1707	465.82	97.4285	465.82	97.9447	465.82	97.0983	465.82	97.6027	465.82	96.7071	465.82	97.1379	465.82	96.2354	465.82	96.5511	465.82	95.6656	465.82	95.8572	465.82	94.994	465.82	95.0972	465.82	94.2472	465.82	94.3558	465.82	93.5015	465.82	93.768	465.82	92.8924	465.82	93.4757	465.82	92.5796	465.82	93.5252	465.82	92.6457	465.82	93.8124	465.82	93.0205	465.82	94.1578	465.82	93.5314	465.82	94.4104	465.82	94.0105	465.82	94.4836	465.82	94.3464
483.398	98.0623	483.398	97.906	483.398	98.1498	483.398	97.6942	483.398	98.1535	483.398	97.4379	483.398	98.0582	483.398	97.1449	483.398	97.8501	483.398	96.8166	483.398	97.5192	483.398	96.4447	483.398	97.0619	483.398	96.0113	483.398	96.4851	483.398	95.4966	483.398	95.8134	483.398	94.8922	483.398	95.0989	483.398	94.2172	483.398	94.4288	483.398	93.5342	483.398	93.9184	483.398	92.9556	483.398	93.6688	483.398	92.62	483.398	93.7009	483.398	92.6186	483.398	93.9273	483.398	92.9209	483.398	94.2012	483.398	93.3892	483.398	94.3888	483.398	93.864	483.398	94.4067	483.398	94.2255
499.512	98.2451	499.512	98.0874	499.512	98.3453	499.512	97.8824	499.512	98.3748	499.512	97.637	499.512	98.3198	499.512	97.3545	499.512	98.1665	499.512	97.035	499.512	97.9011	499.512	96.6732	499.512	97.5098	499.512	96.2559	499.512	96.9806	499.512	95.7611	499.512	96.3099	499.512	95.1672	499.512	95.5193	499.512	94.4714	499.512	94.683	499.512	93.7181	499.512	93.9542	499.512	93.0288	499.512	93.5301	499.512	92.5908	499.512	93.5106	499.512	92.5522	499.512	93.791	499.512	92.8859	499.512	94.1531	499.512	93.4106	499.512	94.4142	499.512	93.9291	499.512	94.4757	499.512	94.3074
517.09	98.0601	517.09	97.9339	517.09	98.1363	517.09	97.7699	517.09	98.1526	517.09	97.5799	517.09	98.1011	517.09	97.3701	517.09	97.9731	517.09	97.1363	517.09	97.7578	517.09	96.8627	517.09	97.4432	517.09	96.5245	517.09	97.0177	517.09	96.0925	517.09	96.4746	517.09	95.5398	517.09	95.8183	517.09	94.8506	517.09	95.0787	517.09	94.0371	517.09	94.3355	517.09	93.1694	517.09	93.7305	517.09	92.4091	517.09	93.4142	517.09	91.9847	517.09	93.4175	517.09	92.0351	517.09	93.5984	517.09	92.4603	517.09	93.7521	517.09	93.0121	517.09	93.7303	517.09	93.4746
536.133	97.4479	536.133	97.3345	536.133	97.4933	536.133	97.161	536.133	97.4734	536.133	96.9467	536.133	97.3957	536.133	96.7157	536.133	97.2665	536.133	96.4849	536.133	97.0867	536.133	96.2527	536.133	96.8508	536.133	95.9969	536.133	96.5471	536.133	95.6824	536.133	96.161	536.133	95.2754	536.133	95.681	536.133	94.7578	536.133	95.1135	536.133	94.1425	536.133	94.5059	536.133	93.4889	536.133	93.9651	536.133	92.9136	536.133	93.6285	536.133	92.5681	536.133	93.5614	536.133	92.5538	536.133	93.6782	536.133	92.8311	536.133	93.8051	536.133	93.2383	536.133	93.7982	536.133	93.599
555.176	97.4584	555.176	97.3385	555.176	97.4861	555.176	97.1331	555.176	97.4271	555.176	96.8614	555.176	97.2964	555.176	96.5505	555.176	97.1119	555.176	96.2276	555.176	96.8862	555.176	95.9096	555.176	96.619	555.176	95.5949	555.176	96.2942	555.176	95.2623	555.176	95.8856	555.176	94.8793	555.176	95.3737	555.176	94.4168	555.176	94.7719	555.176	93.868	555.176	94.1493	555.176	93.269	555.176	93.6232	555.176	92.7164	555.176	93.2968	555.176	92.3519	555.176	93.1829	555.176	92.2815	555.176	93.2029	555.176	92.4779	555.176	93.2474	555.176	92.793	555.176	93.2221	555.176	93.0696
574.219	97.117	574.219	96.8955	574.219	97.274	574.219	96.6413	574.219	97.3397	574.219	96.3849	574.219	97.299	574.219	96.1482	574.219	97.1525	574.219	95.9383	574.219	96.919	574.219	95.7449	574.219	96.6302	574.219	95.5406	574.219	96.314	574.219	95.2863	574.219	95.9721	574.219	94.9411	574.219	95.57	574.219	94.4763	574.219	95.06	574.219	93.8917	574.219	94.4371	574.219	93.2355	574.219	93.804	574.219	92.6207	574.219	93.3668	574.219	92.2085	574.219	93.2645	574.219	92.123	574.219	93.3901	574.219	92.3519	574.219	93.5012	574.219	92.7551	574.219	93.434	574.219	93.1612
594.727	96.7524	594.727	96.5186	594.727	96.887	594.727	96.2108	594.727	96.9169	594.727	95.87	594.727	96.851	594.727	95.5393	594.727	96.705	594.727	95.2476	594.727	96.497	594.727	95.0024	594.727	96.2465	594.727	94.7934	594.727	95.9708	594.727	94.5954	594.727	95.6757	594.727	94.3668	594.727	95.3461	594.727	94.0545	594.727	94.9488	594.727	93.6172	594.727	94.4571	594.727	93.0636	594.727	93.8956	594.727	92.4913	594.727	93.3769	594.727	92.0858	594.727	93.0672	594.727	92.0173	594.727	93.0347	594.727	92.2827	594.727	93.1492	594.727	92.6977	594.727	93.1974	594.727	93.046
615.234	97.1397	615.234	96.9022	615.234	97.2357	615.234	96.5508	615.234	97.1885	615.234	96.1432	615.234	97.0137	615.234	95.7547	615.234	96.7385	615.234	95.4426	615.234	96.3992	615.234	95.2094	615.234	96.0367	615.234	95.0034	615.234	95.6851	615.234	94.7555	615.234	95.3541	615.234	94.4148	615.234	95.0191	615.234	93.9602	615.234	94.6381	615.234	93.4	615.234	94.1911	615.234	92.7796	615.234	93.7235	615.234	92.2027	615.234	93.3532	615.234	91.8308	615.234	93.1945	615.234	91.8017	615.234	93.2322	615.234	92.1032	615.234	93.3096	615.234	92.5685	615.234	93.2574	615.234	92.9983
637.207	97.2317	637.207	97.0091	637.207	97.3194	637.207	96.6663	637.207	97.2737	637.207	96.2431	637.207	97.1066	637.207	95.808	637.207	96.8406	637.207	95.4396	637.207	96.5081	637.207	95.1818	637.207	96.1463	637.207	95.0086	637.207	95.7834	637.207	94.838	637.207	95.4189	637.207	94.5756	637.207	95.0159	637.207	94.1465	637.207	94.524	637.207	93.5121	637.207	93.935	637.207	92.6965	637.207	93.3349	637.207	91.8406	637.207	92.891	637.207	91.2321	637.207	92.7252	637.207	91.1504	637.207	92.7902	637.207	91.5661	637.207	92.9101	637.207	92.1666	637.207	92.9035	637.207	92.6578
659.18	97.0466	659.18	96.8501	659.18	97.1036	659.18	96.5058	659.18	97.0432	659.18	96.0432	659.18	96.8873	659.18	95.5454	659.18	96.6597	659.18	95.1326	659.18	96.3989	659.18	94.9008	659.18	96.1594	659.18	94.8543	659.18	95.984	659.18	94.8987	659.18	95.8591	659.18	94.8945	659.18	95.6968	659.18	94.7083	659.18	95.3717	659.18	94.2422	659.18	94.7881	659.18	93.463	659.18	93.9543	659.18	92.458	659.18	93.0586	659.18	91.5192	659.18	92.4513	659.18	91.0932	659.18	92.3447	659.18	91.3546	659.18	92.5354	659.18	91.9581	659.18	92.6504	659.18	92.4626
682.617	97.3145	682.617	96.976	682.617	97.4588	682.617	96.5071	682.617	97.3848	682.617	95.9884	682.617	97.1199	682.617	95.4946	682.617	96.7478	682.617	95.0934	682.617	96.4028	682.617	94.8584	682.617	96.231	682.617	94.8489	682.617	96.2999	682.617	95.043	682.617	96.5209	682.617	95.3053	682.617	96.6869	682.617	95.4444	682.617	96.581	682.617	95.2892	682.617	96.0601	682.617	94.7248	682.617	95.1076	682.617	93.7107	682.617	93.893	682.617	92.3423	682.617	92.7815	682.617	90.9828	682.617	92.084	682.617	90.24	682.617	91.7178	682.617	90.3511	682.617	91.3729	682.617	90.8784
707.52	98.4912	707.52	97.9447	707.52	98.6536	707.52	97.0163	707.52	98.4295	707.52	95.7562	707.52	97.8133	707.52	94.3818	707.52	96.817	707.52	93.3805	707.52	95.5258	707.52	93.1899	707.52	94.2571	707.52	93.6253	707.52	93.7279	707.52	94.2102	707.52	94.4197	707.52	94.7183	707.52	95.7293	707.52	95.1352	707.52	96.8605	707.52	95.444	707.52	97.4661	707.52	95.5464	707.52	97.4808	707.52	95.3355	707.52	96.9663	707.52	94.7948	707.52	96.0735	707.52	94.0482	707.52	95.0386	707.52	93.3558	707.52	94.119	707.52	92.9965	707.52	93.4546	707.52	93.0608
732.422	99.8577	732.422	99.4982	732.422	99.9931	732.422	98.9002	732.422	99.9048	732.422	98.0284	732.422	99.5776	732.422	96.8299	732.422	98.9699	732.422	95.2805	732.422	98.0093	732.422	93.5366	732.422	96.6215	732.422	92.1901	732.422	94.8504	732.422	91.9804	732.422	93.2269	732.422	92.6851	732.422	92.9478	732.422	93.5514	732.422	94.1094	732.422	94.2482	732.422	95.4625	732.422	94.7716	732.422	96.3593	732.422	95.183	732.422	96.7634	732.422	95.5117	732.422	96.8428	732.422	95.7698	732.422	96.7788	732.422	95.9832	732.422	96.671	732.422	96.1818	732.422	96.5372	732.422	96.3715
757.324	98.9834	757.324	98.7291	757.324	99.0563	757.324	98.2688	757.324	98.9804	757.324	97.6002	757.324	98.7655	757.324	96.7375	757.324	98.3778	757.324	95.6997	757.324	97.7465	757.324	94.5316	757.324	96.8021	757.324	93.3867	757.324	95.5449	757.324	92.6011	757.324	94.1755	757.324	92.4783	757.324	93.2446	757.324	92.8763	757.324	93.2932	757.324	93.3715	757.324	94.0487	757.324	93.6951	757.324	94.8608	757.324	93.8267	757.324	95.4349	757.324	93.9083	757.324	95.7814	757.324	94.1146	757.324	95.9727	757.324	94.5106	757.324	96.0117	757.324	95.0187	757.324	95.8573	757.324	95.5054
785.156	98.2835	785.156	97.9501	785.156	98.4878	785.156	97.5002	785.156	98.5445	785.156	96.9486	785.156	98.4284	785.156	96.3158	785.156	98.1096	785.156	95.6224	785.156	97.554	785.156	94.879	785.156	96.7252	785.156	94.0972	785.156	95.6104	785.156	93.3439	785.156	94.3157	785.156	92.7991	785.156	93.23	785.156	92.6577	785.156	92.8974	785.156	92.8669	785.156	93.292	785.156	93.1227	785.156	93.8542	785.156	93.1827	785.156	94.2589	785.156	93.0641	785.156	94.5245	785.156	93.0164	785.156	94.7457	785.156	93.2932	785.156	94.8932	785.156	93.8684	785.156	94.8304	785.156	94.465
811.523	97.7584	811.523	97.6025	811.523	97.8056	811.523	97.3405	811.523	97.7469	811.523	96.9627	811.523	97.5891	811.523	96.4458	811.523	97.3154	811.523	95.7738	811.523	96.8629	811.523	94.9625	811.523	96.143	811.523	94.0654	811.523	95.1054	811.523	93.173	811.523	93.839	811.523	92.4229	811.523	92.6959	811.523	91.9792	811.523	92.2003	811.523	91.9068	811.523	92.4539	811.523	92.0773	811.523	93.0014	811.523	92.3087	811.523	93.4711	811.523	92.5427	811.523	93.8019	811.523	92.8393	811.523	94.0601	811.523	93.2469	811.523	94.2477	811.523	93.7082	811.523	94.2795	811.523	94.0904
840.82	97.5886	840.82	97.4637	840.82	97.6208	840.82	97.2366	840.82	97.5749	840.82	96.9126	840.82	97.444	840.82	96.494	840.82	97.1858	840.82	95.9638	840.82	96.7342	840.82	95.3036	840.82	96.0203	840.82	94.5334	840.82	94.9968	840.82	93.7273	840.82	93.6977	840.82	92.9836	840.82	92.378	840.82	92.376	840.82	91.5696	840.82	91.9271	840.82	91.5853	840.82	91.6158	840.82	92.1188	840.82	91.4302	840.82	92.7688	840.82	91.4321	840.82	93.3232	840.82	91.7223	840.82	93.6706	840.82	92.2829	840.82	93.7863	840.82	92.919	840.82	93.7024	840.82	93.4192
870.117	97.177	870.117	96.9892	870.117	97.2673	870.117	96.7249	870.117	97.2366	870.117	96.3929	870.117	97.0786	870.117	96.0008	870.117	96.801	870.117	95.556	870.117	96.3937	870.117	95.0463	870.117	95.799	870.117	94.4486	870.117	94.9233	870.117	93.7827	870.117	93.7148	870.117	93.1492	870.117	92.3465	870.117	92.66	870.117	91.3952	870.117	92.3003	870.117	91.3212	870.117	91.9347	870.117	91.7262	870.117	91.5054	870.117	92.16	870.117	91.1855	870.117	92.6774	870.117	91.2658	870.117	93.3213	870.117	91.8192	870.117	93.7981	870.117	92.6216	870.117	93.8246	870.117	93.3755
900.879	97.5833	900.879	97.4212	900.879	97.554	900.879	97.0986	900.879	97.3542	900.879	96.6778	900.879	97.0364	900.879	96.2039	900.879	96.6426	900.879	95.6744	900.879	96.1717	900.879	95.0602	900.879	95.5783	900.879	94.3509	900.879	94.798	900.879	93.5755	900.879	93.7854	900.879	92.8024	900.879	92.5769	900.879	92.1349	900.879	91.4084	900.879	91.6484	900.879	90.7551	900.879	91.2835	900.879	90.9121	900.879	90.8991	900.879	91.6089	900.879	90.5251	900.879	92.4547	900.879	90.5104	900.879	93.2265	900.879	91.1714	900.879	93.7284	900.879	92.2612	900.879	93.7641	900.879	93.2423
933.105	97.8601	933.105	97.7264	933.105	97.7187	933.105	97.3383	933.105	97.3485	933.105	96.7463	933.105	96.8634	933.105	96.0182	933.105	96.3728	933.105	95.2588	933.105	95.889	933.105	94.592	933.105	95.3142	933.105	94.0739	933.105	94.5287	933.105	93.6568	933.105	93.5221	933.105	93.2637	933.105	92.5057	933.105	92.841	933.105	91.8024	933.105	92.3395	933.105	91.4135	933.105	91.7204	933.105	91.0984	933.105	91.0535	933.105	91.0075	933.105	90.6288	933.105	91.5182	933.105	90.8155	933.105	92.4257	933.105	91.6186	933.105	93.1994	933.105	92.6075	933.105	93.5351	933.105	93.3261
965.332	98.3336	965.332	98.2145	965.332	98.1336	965.332	97.7873	965.332	97.6812	965.332	97.121	965.332	97.0885	965.332	96.305	965.332	96.4471	965.332	95.4451	965.332	95.7792	965.332	94.6589	965.332	95.0401	965.332	93.9841	965.332	94.1543	965.332	93.3113	965.332	93.058	965.332	92.519	965.332	91.7782	965.332	91.6835	965.332	90.5893	965.332	91.077	965.332	89.9748	965.332	90.7823	965.332	90.0246	965.332	90.5196	965.332	90.3757	965.332	90.0966	965.332	90.9211	965.332	89.7761	965.332	91.7121	965.332	90.1411	965.332	92.4438	965.332	91.1865	965.332	92.6698	965.332	92.2037
1,000.49	98.6098	1,000.49	98.44	1,000.49	98.4421	1,000.49	97.939	1,000.49	97.999	1,000.49	97.188	1,000.49	97.3746	1,000.49	96.3095	1,000.49	96.6585	1,000.49	95.4295	1,000.49	95.9096	1,000.49	94.6675	1,000.49	95.1333	1,000.49	94.0857	1,000.49	94.2703	1,000.49	93.6049	1,000.49	93.2349	1,000.49	93.065	1,000.49	92.051	1,000.49	92.3713	1,000.49	91.0216	1,000.49	91.5405	1,000.49	90.4696	1,000.49	90.6258	1,000.49	90.1578	1,000.49	89.6397	1,000.49	89.7658	1,000.49	88.7167	1,000.49	89.7358	1,000.49	88.3721	1,000.49	90.6341	1,000.49	89.0915	1,000.49	91.7714	1,000.49	90.5077	1,000.49	92.2404	1,000.49	91.7584
1,035.64	99.2771	1,035.64	99.1735	1,035.64	99.0419	1,035.64	98.665	1,035.64	98.6124	1,035.64	97.7956	1,035.64	98.13	1,035.64	96.7096	1,035.64	97.6379	1,035.64	95.5694	1,035.64	97.077	1,035.64	94.4858	1,035.64	96.3742	1,035.64	93.6382	1,035.64	95.5054	1,035.64	93.318	1,035.64	94.4968	1,035.64	93.5001	1,035.64	93.4353	1,035.64	93.6811	1,035.64	92.4687	1,035.64	93.3522	1,035.64	91.651	1,035.64	92.2974	1,035.64	90.8268	1,035.64	90.625	1,035.64	89.9684	1,035.64	88.7397	1,035.64	89.6218	1,035.64	87.5997	1,035.64	90.2211	1,035.64	88.4199	1,035.64	91.137	1,035.64	90.1934	1,035.64	91.6527	1,035.64	91.3929
1,072.27	98.2822	1,072.27	98.2746	1,072.27	98.0442	1,072.27	97.9072	1,072.27	97.6426	1,072.27	97.1033	1,072.27	97.1084	1,072.27	95.8754	1,072.27	96.4563	1,072.27	94.3869	1,072.27	95.6953	1,072.27	93.0949	1,072.27	94.8226	1,072.27	92.5599	1,072.27	93.863	1,072.27	92.5859	1,072.27	92.9413	1,072.27	92.4218	1,072.27	92.2647	1,072.27	91.8175	1,072.27	91.9586	1,072.27	91.3394	1,072.27	91.9528	1,072.27	91.4697	1,072.27	91.9732	1,072.27	91.6702	1,072.27	91.6586	1,072.27	91.3019	1,072.27	90.9722	1,072.27	90.2372	1,072.27	90.5378	1,072.27	89.2261	1,072.27	90.7329	1,072.27	89.4943	1,072.27	90.8915	1,072.27	90.4302
1,108.89	97.4171	1,108.89	97.518	1,108.89	97.1269	1,108.89	97.3409	1,108.89	96.7033	1,108.89	96.7616	1,108.89	96.1868	1,108.89	95.6493	1,108.89	95.5994	1,108.89	93.9237	1,108.89	94.9153	1,108.89	91.7397	1,108.89	94.0269	1,108.89	89.9379	1,108.89	92.7401	1,108.89	89.5675	1,108.89	90.8507	1,108.89	90.0248	1,108.89	88.6418	1,108.89	90.3608	1,108.89	88.0651	1,108.89	90.6013	1,108.89	89.8187	1,108.89	91.1046	1,108.89	91.5326	1,108.89	91.6894	1,108.89	92.2089	1,108.89	91.8338	1,108.89	91.9321	1,108.89	91.2998	1,108.89	91.3224	1,108.89	90.4215	1,108.89	90.9636	1,108.89	90.0403	1,108.89	90.7359	1,108.89	90.3526
1,148.44	97.0517	1,148.44	97.0748	1,148.44	96.8681	1,148.44	96.9202	1,148.44	96.4538	1,148.44	96.4252	1,148.44	95.8094	1,148.44	95.4643	1,148.44	95.0383	1,148.44	94.0834	1,148.44	94.2772	1,148.44	92.4158	1,148.44	93.5867	1,148.44	90.6641	1,148.44	92.8709	1,148.44	89.3682	1,148.44	91.9008	1,148.44	89.0581	1,148.44	90.4166	1,148.44	89.1808	1,148.44	88.3914	1,148.44	89.0697	1,148.44	86.9922	1,148.44	89.1162	1,148.44	88.0569	1,148.44	89.8056	1,148.44	89.9123	1,148.44	90.5536	1,148.44	91.0661	1,148.44	90.7695	1,148.44	91.6816	1,148.44	90.5958	1,148.44	91.9792	1,148.44	90.6547	1,148.44	91.8022	1,148.44	91.2034
1,189.45	97.5444	1,189.45	97.5309	1,189.45	97.2698	1,189.45	97.2049	1,189.45	96.7272	1,189.45	96.5386	1,189.45	95.938	1,189.45	95.5157	1,189.45	94.9455	1,189.45	94.1986	1,189.45	93.8062	1,189.45	92.7146	1,189.45	92.6361	1,189.45	91.2374	1,189.45	91.6469	1,189.45	90.2927	1,189.45	90.8242	1,189.45	90.4083	1,189.45	89.7717	1,189.45	90.771	1,189.45	88.5391	1,189.45	90.2997	1,189.45	88.2194	1,189.45	88.863	1,189.45	88.6662	1,189.45	87.4867	1,189.45	88.6584	1,189.45	87.5449	1,189.45	88.9667	1,189.45	88.6021	1,189.45	90.3086	1,189.45	89.6249	1,189.45	91.261	1,189.45	90.3891	1,189.45	91.3555	1,189.45	90.9793
1,230.47	97.8464	1,230.47	97.6015	1,230.47	97.5741	1,230.47	96.9054	1,230.47	96.8246	1,230.47	95.9174	1,230.47	95.813	1,230.47	94.88	1,230.47	94.8622	1,230.47	93.984	1,230.47	94.0587	1,230.47	93.1257	1,230.47	93.0973	1,230.47	91.9225	1,230.47	91.6766	1,230.47	90.3832	1,230.47	89.9744	1,230.47	89.7932	1,230.47	88.6322	1,230.47	90.5751	1,230.47	87.789	1,230.47	91.0328	1,230.47	87.3808	1,230.47	90.4816	1,230.47	87.9668	1,230.47	89.3705	1,230.47	88.7749	1,230.47	88.6183	1,230.47	89.0063	1,230.47	88.7595	1,230.47	89.5092	1,230.47	89.3751	1,230.47	90.4566	1,230.47	89.9913	1,230.47	90.8388	1,230.47	90.5403
1,274.41	97.9957	1,274.41	97.7805	1,274.41	97.6496	1,274.41	97.0464	1,274.41	96.8619	1,274.41	96.03	1,274.41	95.8155	1,274.41	95.0239	1,274.41	94.6841	1,274.41	94.0896	1,274.41	93.6234	1,274.41	93.0334	1,274.41	92.6096	1,274.41	91.6929	1,274.41	91.3483	1,274.41	90.1161	1,274.41	89.6792	1,274.41	88.8139	1,274.41	88.2746	1,274.41	88.8178	1,274.41	87.9153	1,274.41	89.726	1,274.41	87.9866	1,274.41	90.0737	1,274.41	88.2462	1,274.41	89.4027	1,274.41	88.6059	1,274.41	88.0751	1,274.41	88.5135	1,274.41	87.3264	1,274.41	88.7746	1,274.41	88.3837	1,274.41	90.0494	1,274.41	89.9694	1,274.41	90.981	1,274.41	90.9282
1,319.82	97.7757	1,319.82	97.7982	1,319.82	97.4764	1,319.82	97.3901	1,319.82	96.8538	1,319.82	96.4914	1,319.82	95.7135	1,319.82	95.3462	1,319.82	94.1471	1,319.82	94.3045	1,319.82	92.7094	1,319.82	93.31	1,319.82	91.7945	1,319.82	91.9882	1,319.82	90.9614	1,319.82	90.319	1,319.82	89.4198	1,319.82	88.8675	1,319.82	86.8841	1,319.82	88.1884	1,319.82	84.9721	1,319.82	88.4443	1,319.82	85.983	1,319.82	89.1519	1,319.82	87.4191	1,319.82	89.4953	1,319.82	87.7609	1,319.82	89.0314	1,319.82	87.7383	1,319.82	87.8905	1,319.82	88.7111	1,319.82	87.9129	1,319.82	90.0502	1,319.82	89.6682	1,319.82	90.8897	1,319.82	90.8715
1,366.7	97.3922	1,366.7	97.6051	1,366.7	97.0491	1,366.7	97.4277	1,366.7	96.5306	1,366.7	96.568	1,366.7	95.6332	1,366.7	95.1148	1,366.7	94.2997	1,366.7	93.7172	1,366.7	92.7859	1,366.7	92.8681	1,366.7	91.5716	1,366.7	92.0234	1,366.7	90.6688	1,366.7	90.63	1,366.7	89.3275	1,366.7	89.1712	1,366.7	86.9908	1,366.7	88.256	1,366.7	84.4846	1,366.7	87.4984	1,366.7	84.4198	1,366.7	87.1694	1,366.7	86.4208	1,366.7	87.7921	1,366.7	88.0756	1,366.7	88.5071	1,366.7	88.7455	1,366.7	88.2292	1,366.7	89.0563	1,366.7	87.5165	1,366.7	89.5489	1,366.7	88.2381	1,366.7	89.8621	1,366.7	89.464
1,413.57	97.0992	1,413.57	97.3036	1,413.57	96.6801	1,413.57	97.0698	1,413.57	96.021	1,413.57	96.1577	1,413.57	95.0783	1,413.57	94.6916	1,413.57	94.0195	1,413.57	93.2417	1,413.57	93.0712	1,413.57	92.3275	1,413.57	92.1806	1,413.57	91.3622	1,413.57	91.0141	1,413.57	89.2613	1,413.57	89.2663	1,413.57	86.0445	1,413.57	86.8459	1,413.57	84.1334	1,413.57	84.0195	1,413.57	84.8705	1,413.57	83.2174	1,413.57	86.1518	1,413.57	85.9075	1,413.57	87.2355	1,413.57	87.5855	1,413.57	87.9818	1,413.57	87.5777	1,413.57	88.1126	1,413.57	88.2472	1,413.57	87.7501	1,413.57	89.3454	1,413.57	87.8626	1,413.57	89.3136	1,413.57	88.6026
1,463.38	96.8154	1,463.38	96.87	1,463.38	96.4059	1,463.38	96.6585	1,463.38	95.5796	1,463.38	96.0784	1,463.38	94.4524	1,463.38	94.9842	1,463.38	93.2379	1,463.38	93.3927	1,463.38	92.1289	1,463.38	91.604	1,463.38	91.146	1,463.38	89.8607	1,463.38	90.0138	1,463.38	87.9809	1,463.38	88.3403	1,463.38	85.9808	1,463.38	86.032	1,463.38	84.3451	1,463.38	84.0442	1,463.38	83.9039	1,463.38	84.2226	1,463.38	84.6689	1,463.38	85.4293	1,463.38	85.7758	1,463.38	86.0508	1,463.38	86.5232	1,463.38	85.8217	1,463.38	86.5295	1,463.38	86.5584	1,463.38	86.1478	1,463.38	88.0516	1,463.38	86.272	1,463.38	88.2297	1,463.38	87.2478
1,516.11	97.0685	1,516.11	96.8185	1,516.11	96.5812	1,516.11	96.1664	1,516.11	95.3796	1,516.11	95.41	1,516.11	93.7725	1,516.11	94.3341	1,516.11	92.2226	1,516.11	92.6429	1,516.11	90.9947	1,516.11	90.6544	1,516.11	90.2363	1,516.11	88.6093	1,516.11	89.9389	1,516.11	86.3519	1,516.11	89.3412	1,516.11	84.8458	1,516.11	87.4121	1,516.11	84.333	1,516.11	83.9238	1,516.11	83.5797	1,516.11	81.6286	1,516.11	83.3679	1,516.11	82.1609	1,516.11	84.7109	1,516.11	83.2908	1,516.11	85.7444	1,516.11	83.5302	1,516.11	85.6304	1,516.11	84.7621	1,516.11	85.6074	1,516.11	87.2176	1,516.11	86.3237	1,516.11	87.8963	1,516.11	87.221
1,568.85	97.489	1,568.85	97.1191	1,568.85	96.8121	1,568.85	95.8463	1,568.85	95.8291	1,568.85	94.9612	1,568.85	94.7183	1,568.85	94.6193	1,568.85	93.0595	1,568.85	93.1429	1,568.85	91.0397	1,568.85	90.0916	1,568.85	89.6173	1,568.85	87.4323	1,568.85	89.2048	1,568.85	86.563	1,568.85	88.6888	1,568.85	86.6384	1,568.85	86.6169	1,568.85	87.6173	1,568.85	82.6817	1,568.85	87.5141	1,568.85	80.2685	1,568.85	85.5519	1,568.85	81.7933	1,568.85	84.6216	1,568.85	84.198	1,568.85	85.8993	1,568.85	85.4154	1,568.85	85.5035	1,568.85	84.7026	1,568.85	84.0927	1,568.85	86.3111	1,568.85	85.5939	1,568.85	88.3589	1,568.85	87.9457
1,624.51	97.5212	1,624.51	97.5754	1,624.51	97.1194	1,624.51	96.8473	1,624.51	96.515	1,624.51	95.6791	1,624.51	95.1479	1,624.51	94.9286	1,624.51	93.1085	1,624.51	93.8356	1,624.51	91.2705	1,624.51	91.2963	1,624.51	90.0744	1,624.51	88.8151	1,624.51	89.1152	1,624.51	87.5661	1,624.51	87.8357	1,624.51	85.3606	1,624.51	86.2181	1,624.51	84.8855	1,624.51	84.2731	1,624.51	86.721	1,624.51	81.9781	1,624.51	87.2652	1,624.51	82.2106	1,624.51	86.9522	1,624.51	83.2547	1,624.51	86.5188	1,624.51	84.039	1,624.51	85.1364	1,624.51	84.7877	1,624.51	83.0685	1,624.51	86.1353	1,624.51	84.3316	1,624.51	87.9818	1,624.51	87.4623
1,681.64	97.1334	1,681.64	97.3393	1,681.64	97.0352	1,681.64	97.2415	1,681.64	96.5048	1,681.64	96.1468	1,681.64	94.8029	1,681.64	94.5699	1,681.64	92.3871	1,681.64	93.6138	1,681.64	90.7436	1,681.64	92.3844	1,681.64	89.8442	1,681.64	90.5124	1,681.64	88.5221	1,681.64	88.7798	1,681.64	86.5948	1,681.64	86.4104	1,681.64	85.3624	1,681.64	82.6059	1,681.64	85.3919	1,681.64	84.1433	1,681.64	83.3803	1,681.64	86.453	1,681.64	80.4407	1,681.64	87.0535	1,681.64	82.0924	1,681.64	86.4115	1,681.64	82.4255	1,681.64	85.2152	1,681.64	85.5163	1,681.64	84.0381	1,681.64	87.0045	1,681.64	84.6232	1,681.64	87.5299	1,681.64	87.2847
1,741.7	97.035	1,741.7	97.1573	1,741.7	96.7363	1,741.7	97.4604	1,741.7	95.5804	1,741.7	96.773	1,741.7	93.7657	1,741.7	94.2416	1,741.7	92.043	1,741.7	91.5033	1,741.7	90.1711	1,741.7	90.5198	1,741.7	87.672	1,741.7	89.7147	1,741.7	86.0071	1,741.7	88.5023	1,741.7	85.8936	1,741.7	85.7193	1,741.7	84.5755	1,741.7	78.4286	1,741.7	82.047	1,741.7	80.2753	1,741.7	82.316	1,741.7	83.2397	1,741.7	80.6521	1,741.7	83.2717	1,741.7	80.913	1,741.7	83.4954	1,741.7	82.3982	1,741.7	84.6639	1,741.7	83.986	1,741.7	84.3771	1,741.7	86.7397	1,741.7	82.8346	1,741.7	86.3904	1,741.7	84.6695
1,803.22	97.4574	1,803.22	97.6557	1,803.22	96.6502	1,803.22	97.4078	1,803.22	95.1361	1,803.22	96.5917	1,803.22	92.849	1,803.22	94.7107	1,803.22	90.4723	1,803.22	92.4633	1,803.22	88.3635	1,803.22	90.8732	1,803.22	86.5723	1,803.22	88.7291	1,803.22	85.3507	1,803.22	86.4824	1,803.22	83.9685	1,803.22	85.151	1,803.22	82.264	1,803.22	80.7742	1,803.22	79.2765	1,803.22	66.5955	1,803.22	76.4666	1,803.22	74.6626	1,803.22	77.796	1,803.22	79.3492	1,803.22	75.571	1,803.22	80.7919	1,803.22	78.1793	1,803.22	82.9291	1,803.22	82.86	1,803.22	84.3137	1,803.22	85.6499	1,803.22	83.4964	1,803.22	86.1539	1,803.22	84.3465
1,866.21	97.7261	1,866.21	97.9322	1,866.21	96.6456	1,866.21	97.2018	1,866.21	94.7163	1,866.21	96.0709	1,866.21	91.7992	1,866.21	94.3128	1,866.21	88.6878	1,866.21	91.7239	1,866.21	85.8625	1,866.21	89.5961	1,866.21	83.364	1,866.21	87.2198	1,866.21	82.7499	1,866.21	83.4749	1,866.21	84.1144	1,866.21	82.759	1,866.21	83.8038	1,866.21	81.8794	1,866.21	80.5241	1,866.21	77.72	1,866.21	77.0105	1,866.21	69.759	1,866.21	76.9118	1,866.21	70.7259	1,866.21	74.4768	1,866.21	75.444	1,866.21	77.732	1,866.21	81.2161	1,866.21	83.6448	1,866.21	84.5963	1,866.21	86.1711	1,866.21	84.8042	1,866.21	86.2329	1,866.21	84.9854
1,932.13	97.1695	1,932.13	97.5656	1,932.13	96.3281	1,932.13	97.2363	1,932.13	94.337	1,932.13	95.8017	1,932.13	91.1896	1,932.13	93.6449	1,932.13	87.1929	1,932.13	91.105	1,932.13	81.3549	1,932.13	88.2717	1,932.13	76.8198	1,932.13	84.7847	1,932.13	78.5548	1,932.13	79.7645	1,932.13	82.0471	1,932.13	76.3333	1,932.13	83.0457	1,932.13	76.4993	1,932.13	80.1354	1,932.13	77.0129	1,932.13	75.0586	1,932.13	76.7687	1,932.13	76.7211	1,932.13	77.7669	1,932.13	72.8298	1,932.13	78.9963	1,932.13	74.0258	1,932.13	80.6318	1,932.13	81.7469	1,932.13	82.3113	1,932.13	84.5544	1,932.13	83.1436	1,932.13	85.0844	1,932.13	84.0271
1,999.51	96.7568	1,999.51	97.2184	1,999.51	95.8654	1,999.51	97.0982	1,999.51	93.9142	1,999.51	95.5895	1,999.51	90.7523	1,999.51	92.9289	1,999.51	85.9704	1,999.51	89.8949	1,999.51	78.0586	1,999.51	86.3793	1,999.51	71.5487	1,999.51	82.2075	1,999.51	77.2939	1,999.51	76.6042	1,999.51	80.925	1,999.51	68.4691	1,999.51	82.212	1,999.51	70.8439	1,999.51	80.7107	1,999.51	74.0899	1,999.51	76.176	1,999.51	69.5162	1,999.51	73.8113	1,999.51	72.6754	1,999.51	69.3423	1,999.51	77.427	1,999.51	73.8106	1,999.51	79.7242	1,999.51	81.1889	1,999.51	80.8555	1,999.51	83.5419	1,999.51	82.2802	1,999.51	83.8629	1,999.51	83.1708
2,069.82	97.6321	2,069.82	97.8438	2,069.82	96.2993	2,069.82	96.95	2,069.82	93.7286	2,069.82	94.8895	2,069.82	89.7374	2,069.82	92.0995	2,069.82	84.2659	2,069.82	89.2004	2,069.82	77.3912	2,069.82	85.1756	2,069.82	67.6768	2,069.82	81.2794	2,069.82	70.1432	2,069.82	80.0903	2,069.82	78.6034	2,069.82	75.245	2,069.82	80.9055	2,069.82	64.9872	2,069.82	80.9006	2,069.82	76.054	2,069.82	79.5809	2,069.82	76.6453	2,069.82	75.9006	2,069.82	68.2087	2,069.82	73.9227	2,069.82	77.1545	2,069.82	74.3875	2,069.82	79.6485	2,069.82	80.2044	2,069.82	78.5428	2,069.82	83.342	2,069.82	81.8401	2,069.82	84.7114	2,069.82	84.4238
2,143.07	97.826	2,143.07	98.075	2,143.07	96.4936	2,143.07	97.1176	2,143.07	93.6652	2,143.07	95.0581	2,143.07	89.2428	2,143.07	92.6314	2,143.07	84.6822	2,143.07	89.9059	2,143.07	82.0499	2,143.07	85.4644	2,143.07	79.752	2,143.07	80.2264	2,143.07	78.4476	2,143.07	79.1871	2,143.07	81.3562	2,143.07	79.3884	2,143.07	82.4847	2,143.07	75.2307	2,143.07	81.6673	2,143.07	66.4643	2,143.07	82.119	2,143.07	74.4887	2,143.07	81.7983	2,143.07	72.3033	2,143.07	79.2156	2,143.07	78.6487	2,143.07	76.2732	2,143.07	81.0668	2,143.07	79.3453	2,143.07	77.6307	2,143.07	83.3749	2,143.07	77.9872	2,143.07	84.9537	2,143.07	83.9571
2,219.24	96.7998	2,219.24	97.8197	2,219.24	95.6311	2,219.24	97.4207	2,219.24	93.5604	2,219.24	94.878	2,219.24	89.6052	2,219.24	91.8379	2,219.24	85.8238	2,219.24	89.3066	2,219.24	85.2913	2,219.24	86.0443	2,219.24	84.0359	2,219.24	83.7551	2,219.24	81.5301	2,219.24	83.2496	2,219.24	81.9549	2,219.24	81.3302	2,219.24	85.2087	2,219.24	79.4009	2,219.24	84.4289	2,219.24	77.2827	2,219.24	83.2835	2,219.24	77.3602	2,219.24	84.0672	2,219.24	78.7098	2,219.24	81.6939	2,219.24	71.6683	2,219.24	76.57	2,219.24	77.1599	2,219.24	80.9324	2,219.24	79.7691	2,219.24	83.1016	2,219.24	80.2608	2,219.24	83.8433	2,219.24	83.8754
2,296.88	96.38	2,296.88	97.0508	2,296.88	95.5045	2,296.88	96.7257	2,296.88	94.0278	2,296.88	95.1483	2,296.88	90.9834	2,296.88	93.227	2,296.88	87.7252	2,296.88	89.3576	2,296.88	86.1734	2,296.88	82.4884	2,296.88	86.5513	2,296.88	79.087	2,296.88	87.127	2,296.88	76.5417	2,296.88	84.5046	2,296.88	78.3354	2,296.88	83.4842	2,296.88	83.1421	2,296.88	85.7594	2,296.88	83.158	2,296.88	84.1455	2,296.88	81.8397	2,296.88	81.772	2,296.88	83.4281	2,296.88	79.9835	2,296.88	78.0543	2,296.88	79.8193	2,296.88	76.4388	2,296.88	81.5881	2,296.88	81.763	2,296.88	82.1097	2,296.88	74.6058	2,296.88	83.7446	2,296.88	79.6631
2,378.91	97.4963	2,378.91	98.0681	2,378.91	95.4445	2,378.91	96.7411	2,378.91	93.3261	2,378.91	94.8654	2,378.91	90.4074	2,378.91	92.0866	2,378.91	89.2113	2,378.91	85.784	2,378.91	90.5323	2,378.91	82.3269	2,378.91	89.5334	2,378.91	84.9441	2,378.91	88.1857	2,378.91	84.2477	2,378.91	88.8264	2,378.91	82.5436	2,378.91	87.0499	2,378.91	85.0219	2,378.91	85.5989	2,378.91	84.9597	2,378.91	85.5989	2,378.91	83.1959	2,378.91	84.132	2,378.91	85.9741	2,378.91	81.9851	2,378.91	84.623	2,378.91	78.0686	2,378.91	75.6522	2,378.91	78.0124	2,378.91	80.9533	2,378.91	79.6573	2,378.91	83.649	2,378.91	84.1313	2,378.91	83.5634
2,462.4	97.3456	2,462.4	98.028	2,462.4	95.3981	2,462.4	97.3149	2,462.4	93.1393	2,462.4	94.5102	2,462.4	92.1936	2,462.4	90.2537	2,462.4	91.3906	2,462.4	90.3603	2,462.4	90.4197	2,462.4	88.6082	2,462.4	89.9546	2,462.4	83.7676	2,462.4	89.1662	2,462.4	84.6588	2,462.4	87.5051	2,462.4	84.3881	2,462.4	84.482	2,462.4	82.8531	2,462.4	82.99	2,462.4	83.5677	2,462.4	84.8311	2,462.4	81.6691	2,462.4	84.0784	2,462.4	78.2886	2,462.4	82.4383	2,462.4	79.5399	2,462.4	79.6589	2,462.4	78.9007	2,462.4	75.7709	2,462.4	81.8227	2,462.4	82.5016	2,462.4	83.0408	2,462.4	84.8518	2,462.4	82.778
2,548.83	97.0757	2,548.83	97.894	2,548.83	95.8818	2,548.83	96.9325	2,548.83	94.0332	2,548.83	93.7366	2,548.83	92.3963	2,548.83	92.6498	2,548.83	92.0185	2,548.83	91.7153	2,548.83	90.9351	2,548.83	88.4267	2,548.83	89.7752	2,548.83	86.8161	2,548.83	89.7479	2,548.83	84.8456	2,548.83	89.7028	2,548.83	82.5701	2,548.83	88.4529	2,548.83	82.6397	2,548.83	84.9112	2,548.83	83.7598	2,548.83	81.9888	2,548.83	82.3783	2,548.83	83.8521	2,548.83	79.766	2,548.83	85.141	2,548.83	78.4784	2,548.83	84.3947	2,548.83	79.8184	2,548.83	81.1274	2,548.83	82.194	2,548.83	82.8334	2,548.83	81.507	2,548.83	84.4168	2,548.83	81.9353
2,639.65	97.4313	2,639.65	97.6239	2,639.65	95.6467	2,639.65	96.0124	2,639.65	94.936	2,639.65	94.886	2,639.65	94.7452	2,639.65	93.5702	2,639.65	93.7572	2,639.65	90.2451	2,639.65	92.1635	2,639.65	87.7232	2,639.65	90.4349	2,639.65	87.1204	2,639.65	89.9655	2,639.65	87.5176	2,639.65	89.831	2,639.65	87.1534	2,639.65	87.3906	2,639.65	83.0647	2,639.65	84.5906	2,639.65	78.6498	2,639.65	83.4094	2,639.65	79.8134	2,639.65	83.2315	2,639.65	81.0842	2,639.65	85.5218	2,639.65	80.4535	2,639.65	85.658	2,639.65	78.7325	2,639.65	80.6417	2,639.65	81.4783	2,639.65	82.5316	2,639.65	82.353	2,639.65	85.2971	2,639.65	83.0198
2,731.93	97.9784	2,731.93	97.4989	2,731.93	96.213	2,731.93	96.1123	2,731.93	94.0187	2,731.93	95.0419	2,731.93	94.7514	2,731.93	92.4652	2,731.93	95.3644	2,731.93	89.3879	2,731.93	94.0653	2,731.93	89.0556	2,731.93	91.2146	2,731.93	88.8212	2,731.93	88.266	2,731.93	86.0595	2,731.93	87.6937	2,731.93	80.8055	2,731.93	87.4123	2,731.93	81.5863	2,731.93	86.7309	2,731.93	83.396	2,731.93	84.6941	2,731.93	80.9813	2,731.93	85.2628	2,731.93	79.8025	2,731.93	87.3943	2,731.93	80.9429	2,731.93	85.2904	2,731.93	77.6535	2,731.93	77.687	2,731.93	80.4775	2,731.93	84.0481	2,731.93	82.2271	2,731.93	85.9659	2,731.93	82.7163
2,828.61	97.3859	2,828.61	97.401	2,828.61	96.4958	2,828.61	96.4683	2,828.61	94.7522	2,828.61	94.0172	2,828.61	94.6022	2,828.61	91.1309	2,828.61	95.3528	2,828.61	89.8431	2,828.61	94.6108	2,828.61	88.7617	2,828.61	92.4951	2,828.61	87.1192	2,828.61	89.0417	2,828.61	84.3368	2,828.61	87.4006	2,828.61	84.9814	2,828.61	87.8292	2,828.61	85.1604	2,828.61	88.4697	2,828.61	83.292	2,828.61	87.8965	2,828.61	82.5024	2,828.61	84.6955	2,828.61	80.3119	2,828.61	87.27	2,828.61	80.9221	2,828.61	87.552	2,828.61	80.3578	2,828.61	82.3027	2,828.61	77.7054	2,828.61	85.7545	2,828.61	82.7284	2,828.61	86.1601	2,828.61	83.182
2,928.22	97.6088	2,928.22	97.393	2,928.22	96.5338	2,928.22	95.7114	2,928.22	95.3486	2,928.22	93.7383	2,928.22	95.0622	2,928.22	91.9549	2,928.22	95.5099	2,928.22	90.5173	2,928.22	95.4287	2,928.22	89.1927	2,928.22	93.9594	2,928.22	85.1975	2,928.22	90.3498	2,928.22	86.8321	2,928.22	86.5814	2,928.22	88.2632	2,928.22	87.5707	2,928.22	85.0018	2,928.22	87.4396	2,928.22	82.2076	2,928.22	85.6184	2,928.22	82.3576	2,928.22	85.7931	2,928.22	79.7548	2,928.22	86.2543	2,928.22	78.8506	2,928.22	87.0824	2,928.22	81.083	2,928.22	81.2539	2,928.22	79.5294	2,928.22	84.2855	2,928.22	78.4364	2,928.22	85.0262	2,928.22	81.7876
3,030.76	97.8133	3,030.76	97.1021	3,030.76	96.6682	3,030.76	95.6699	3,030.76	95.84	3,030.76	94.6504	3,030.76	96.4852	3,030.76	92.6861	3,030.76	96.724	3,030.76	91.0728	3,030.76	96.1394	3,030.76	87.9139	3,030.76	94.3181	3,030.76	89.2154	3,030.76	90.4648	3,030.76	89.9071	3,030.76	89.1452	3,030.76	86.2776	3,030.76	90.5623	3,030.76	84.3256	3,030.76	88.8747	3,030.76	84.6735	3,030.76	85.3548	3,030.76	84.401	3,030.76	85.1502	3,030.76	82.3085	3,030.76	87.6716	3,030.76	79.1716	3,030.76	86.5661	3,030.76	80.8694	3,030.76	80.6746	3,030.76	79.335	3,030.76	85.095	3,030.76	78.7201	3,030.76	84.4724	3,030.76	80.0065
3,137.7	98.4643	3,137.7	97.5197	3,137.7	97.6339	3,137.7	96.5669	3,137.7	95.6262	3,137.7	94.6524	3,137.7	96.5721	3,137.7	93.1254	3,137.7	97.6667	3,137.7	91.1516	3,137.7	97.3062	3,137.7	90.591	3,137.7	95.4814	3,137.7	91.9574	3,137.7	91.0487	3,137.7	87.872	3,137.7	88.3617	3,137.7	86.048	3,137.7	91.7947	3,137.7	87.6645	3,137.7	91.5791	3,137.7	85.3025	3,137.7	89.1624	3,137.7	83.8089	3,137.7	86.2471	3,137.7	83.1909	3,137.7	88.1908	3,137.7	82.6308	3,137.7	87.2428	3,137.7	81.2162	3,137.7	79.8911	3,137.7	81.4208	3,137.7	84.6618	3,137.7	80.2833	3,137.7	83.7545	3,137.7	78.6691
3,249.02	98.4398	3,249.02	98.2089	3,249.02	98.17	3,249.02	97.0509	3,249.02	96.5765	3,249.02	95.1611	3,249.02	96.2915	3,249.02	93.7239	3,249.02	97.6134	3,249.02	92.0569	3,249.02	97.7726	3,249.02	92.9261	3,249.02	96.5509	3,249.02	90.5951	3,249.02	93.1314	3,249.02	88.183	3,249.02	87.6736	3,249.02	89.9171	3,249.02	92.5184	3,249.02	87.5993	3,249.02	94.0518	3,249.02	85.8253	3,249.02	91.4747	3,249.02	84.8052	3,249.02	88.4749	3,249.02	82.8894	3,249.02	87.2224	3,249.02	82.78	3,249.02	87.0972	3,249.02	82.1688	3,249.02	79.8605	3,249.02	81.4952	3,249.02	86.1654	3,249.02	81.6127	3,249.02	85.3903	3,249.02	80.0726
3,363.28	98.8952	3,363.28	98.3209	3,363.28	97.9638	3,363.28	97.0072	3,363.28	97.0161	3,363.28	95.6604	3,363.28	97.1752	3,363.28	93.9124	3,363.28	97.3152	3,363.28	94.6312	3,363.28	97.5434	3,363.28	93.2381	3,363.28	97.5472	3,363.28	90.0317	3,363.28	95.9899	3,363.28	91.7418	3,363.28	91.081	3,363.28	90.1079	3,363.28	91.9469	3,363.28	85.6583	3,363.28	93.685	3,363.28	87.1274	3,363.28	90.3647	3,363.28	86.3655	3,363.28	88.8812	3,363.28	83.9078	3,363.28	87.3827	3,363.28	83.1198	3,363.28	86.9698	3,363.28	83.3196	3,363.28	83.1128	3,363.28	82.218	3,363.28	87.0211	3,363.28	82.1829	3,363.28	83.9402	3,363.28	80.4543
3,481.93	99.3614	3,481.93	98.4944	3,481.93	99.0252	3,481.93	97.5388	3,481.93	96.6713	3,481.93	95.2856	3,481.93	96.8428	3,481.93	95.1178	3,481.93	98.1958	3,481.93	95.5915	3,481.93	97.807	3,481.93	93.166	3,481.93	97.2595	3,481.93	92.585	3,481.93	96.4569	3,481.93	90.7791	3,481.93	92.5115	3,481.93	86.3597	3,481.93	88.9322	3,481.93	86.4139	3,481.93	91.0214	3,481.93	85.9215	3,481.93	88.7384	3,481.93	84.9275	3,481.93	87.6131	3,481.93	84.8808	3,481.93	87.1677	3,481.93	83.7478	3,481.93	85.7195	3,481.93	83.7953	3,481.93	81.7999	3,481.93	82.0774	3,481.93	86.182	3,481.93	81.6291	3,481.93	83.4273	3,481.93	80.946
3,604.98	99.32	3,604.98	98.4204	3,604.98	99.9881	3,604.98	97.579	3,604.98	98.0121	3,604.98	95.5347	3,604.98	96.8803	3,604.98	96.0636	3,604.98	98.3237	3,604.98	94.7717	3,604.98	98.3733	3,604.98	94.8153	3,604.98	97.453	3,604.98	93.3938	3,604.98	95.7529	3,604.98	86.8229	3,604.98	92.0975	3,604.98	89.3868	3,604.98	84.6434	3,604.98	88.9312	3,604.98	77.9039	3,604.98	84.9061	3,604.98	85.4512	3,604.98	85.6461	3,604.98	88.456	3,604.98	85.8254	3,604.98	87.4376	3,604.98	83.3837	3,604.98	85.0733	3,604.98	82.6072	3,604.98	82.5865	3,604.98	81.58	3,604.98	85.2728	3,604.98	81.6111	3,604.98	82.3368	3,604.98	81.7144
3,732.42	99.38	3,732.42	99.2757	3,732.42	99.3731	3,732.42	97.2508	3,732.42	98.4688	3,732.42	96.2552	3,732.42	98.0044	3,732.42	97.0496	3,732.42	98.7033	3,732.42	95.9218	3,732.42	98.7736	3,732.42	95.2735	3,732.42	97.8522	3,732.42	91.9852	3,732.42	94.9147	3,732.42	91.5719	3,732.42	86.4665	3,732.42	91.0087	3,732.42	78.566	3,732.42	87.8251	3,732.42	85.8064	3,732.42	86.8602	3,732.42	89.7943	3,732.42	85.6155	3,732.42	89.8672	3,732.42	85.7841	3,732.42	87.8693	3,732.42	83.2426	3,732.42	86.8238	3,732.42	83.3782	3,732.42	79.9177	3,732.42	83.3152	3,732.42	84.1642	3,732.42	80.7184	3,732.42	83.8093	3,732.42	81.1243
3,864.26	99.7952	3,864.26	99.4915	3,864.26	99.3426	3,864.26	97.3748	3,864.26	98.2207	3,864.26	97.4964	3,864.26	97.288	3,864.26	97.1128	3,864.26	98.512	3,864.26	96.0133	3,864.26	99.0014	3,864.26	94.8744	3,864.26	97.1979	3,864.26	93.5371	3,864.26	93.9904	3,864.26	93.2985	3,864.26	85.6743	3,864.26	89.3155	3,864.26	77.0564	3,864.26	88.734	3,864.26	88.391	3,864.26	86.9829	3,864.26	90.6115	3,864.26	83.7464	3,864.26	90.6257	3,864.26	86.1781	3,864.26	86.8253	3,864.26	82.7924	3,864.26	85.8097	3,864.26	82.4959	3,864.26	83.1103	3,864.26	83.485	3,864.26	85.223	3,864.26	82.9601	3,864.26	82.5188	3,864.26	82.1534
4,000.49	100.334	4,000.49	99.1075	4,000.49	99.8348	4,000.49	97.9513	4,000.49	98.1215	4,000.49	98.3096	4,000.49	96.877	4,000.49	97.3391	4,000.49	97.8849	4,000.49	96.2176	4,000.49	98.7298	4,000.49	95.7569	4,000.49	96.6831	4,000.49	95.4652	4,000.49	92.1354	4,000.49	91.5879	4,000.49	85.1057	4,000.49	88.7527	4,000.49	81.6686	4,000.49	89.9662	4,000.49	88.6281	4,000.49	86.5043	4,000.49	89.8575	4,000.49	85.4368	4,000.49	87.3139	4,000.49	86.2185	4,000.49	85.4372	4,000.49	82.9758	4,000.49	84.7359	4,000.49	80.0667	4,000.49	84.9867	4,000.49	82.6327	4,000.49	88.2581	4,000.49	84.0331	4,000.49	82.2623	4,000.49	82.4168
4,141.11	100.519	4,141.11	98.6678	4,141.11	100.197	4,141.11	98.3968	4,141.11	97.4163	4,141.11	98.8202	4,141.11	96.4361	4,141.11	97.3332	4,141.11	98.1666	4,141.11	95.8897	4,141.11	98.5272	4,141.11	95.3858	4,141.11	96.5138	4,141.11	93.0231	4,141.11	93.0534	4,141.11	91.7178	4,141.11	87.5535	4,141.11	91.1839	4,141.11	83.9291	4,141.11	88.8746	4,141.11	87.4776	4,141.11	87.7328	4,141.11	89.4559	4,141.11	84.662	4,141.11	88.349	4,141.11	84.1113	4,141.11	87.7585	4,141.11	84.0378	4,141.11	84.4951	4,141.11	77.9316	4,141.11	83.3031	4,141.11	81.9754	4,141.11	88.6513	4,141.11	83.0582	4,141.11	82.014	4,141.11	82.7932
4,287.6	100.3	4,287.6	98.7085	4,287.6	100.521	4,287.6	99.2697	4,287.6	98.4697	4,287.6	98.7671	4,287.6	95.254	4,287.6	96.3017	4,287.6	96.817	4,287.6	97.1425	4,287.6	97.2265	4,287.6	95.967	4,287.6	96.2921	4,287.6	93.0795	4,287.6	93.7809	4,287.6	92.1673	4,287.6	90.3274	4,287.6	86.2768	4,287.6	87.186	4,287.6	86.0589	4,287.6	84.1158	4,287.6	86.8236	4,287.6	86.1311	4,287.6	85.1324	4,287.6	87.5298	4,287.6	84.3818	4,287.6	87.5211	4,287.6	84.0819	4,287.6	82.0655	4,287.6	82.2376	4,287.6	83.9096	4,287.6	81.7241	4,287.6	87.0251	4,287.6	80.8662	4,287.6	80.9133	4,287.6	80.8162
4,438.48	99.7763	4,438.48	99.7039	4,438.48	101.285	4,438.48	100.544	4,438.48	100.231	4,438.48	98.6747	4,438.48	95.8973	4,438.48	97.68	4,438.48	95.7996	4,438.48	96.9764	4,438.48	97.5377	4,438.48	93.7287	4,438.48	97.64	4,438.48	93.2072	4,438.48	91.7927	4,438.48	89.6449	4,438.48	90.0813	4,438.48	89.9583	4,438.48	88.8822	4,438.48	88.9584	4,438.48	87.6758	4,438.48	87.0783	4,438.48	88.8242	4,438.48	87.3499	4,438.48	83.9488	4,438.48	85.0994	4,438.48	88.535	4,438.48	84.8897	4,438.48	81.0418	4,438.48	80.1205	4,438.48	87.2152	4,438.48	80.6228	4,438.48	87.2986	4,438.48	82.6612	4,438.48	78.3129	4,438.48	79.5348
4,595.21	99.8637	4,595.21	100.245	4,595.21	101.137	4,595.21	100.343	4,595.21	99.8841	4,595.21	98.5527	4,595.21	97.177	4,595.21	97.7252	4,595.21	95.9246	4,595.21	96.2277	4,595.21	97.2057	4,595.21	95.0003	4,595.21	97.0089	4,595.21	92.3758	4,595.21	93.076	4,595.21	91.8066	4,595.21	93.8193	4,595.21	91.8698	4,595.21	85.4256	4,595.21	89.6572	4,595.21	84.6857	4,595.21	87.525	4,595.21	91.0724	4,595.21	84.539	4,595.21	86.6946	4,595.21	86.0885	4,595.21	87.4641	4,595.21	85.4048	4,595.21	82.9367	4,595.21	81.6756	4,595.21	85.4847	4,595.21	81.3416	4,595.21	86.307	4,595.21	84.5524	4,595.21	80.9709	4,595.21	82.4754
4,756.35	100.617	4,756.35	101.026	4,756.35	100.338	4,756.35	100.222	4,756.35	99.7259	4,756.35	99.0378	4,756.35	97.3561	4,756.35	98.7223	4,756.35	94.2797	4,756.35	96.1443	4,756.35	95.3658	4,756.35	94.2519	4,756.35	94.83	4,756.35	95.7674	4,756.35	94.7487	4,756.35	93.9672	4,756.35	95.1493	4,756.35	91.0549	4,756.35	88.0425	4,756.35	90.863	4,756.35	77.9111	4,756.35	89.8376	4,756.35	88.9192	4,756.35	87.9134	4,756.35	86.3906	4,756.35	86.6371	4,756.35	84.1481	4,756.35	85.5606	4,756.35	81.9989	4,756.35	84.4969	4,756.35	86.0144	4,756.35	82.4403	4,756.35	84.7325	4,756.35	82.6371	4,756.35	80.5236	4,756.35	83.5037
4,924.8	100.152	4,924.8	100.642	4,924.8	100.862	4,924.8	100.432	4,924.8	100.225	4,924.8	100.13	4,924.8	96.8048	4,924.8	99.1228	4,924.8	94.0688	4,924.8	96.2148	4,924.8	94.6394	4,924.8	97.345	4,924.8	94.1098	4,924.8	95.5221	4,924.8	95.6939	4,924.8	93.028	4,924.8	94.547	4,924.8	92.3111	4,924.8	89.0241	4,924.8	90.0184	4,924.8	82.8298	4,924.8	88.1291	4,924.8	87.1493	4,924.8	85.8798	4,924.8	81.8832	4,924.8	85.9205	4,924.8	80.6561	4,924.8	84.66	4,924.8	82.3297	4,924.8	84.3224	4,924.8	86.1299	4,924.8	84.9008	4,924.8	86.635	4,924.8	80.0093	4,924.8	79.9484	4,924.8	78.4766
5,097.66	100.467	5,097.66	100.593	5,097.66	100.914	5,097.66	99.8762	5,097.66	100.18	5,097.66	100.11	5,097.66	97.9296	5,097.66	98.7578	5,097.66	96.0049	5,097.66	97.6168	5,097.66	95.8447	5,097.66	97.8648	5,097.66	96.31	5,097.66	96.1951	5,097.66	97.008	5,097.66	95.5625	5,097.66	95.8854	5,097.66	91.6157	5,097.66	86.5877	5,097.66	89.4519	5,097.66	82.2918	5,097.66	87.6481	5,097.66	87.8151	5,097.66	85.733	5,097.66	87.0452	5,097.66	85.4273	5,097.66	72.0687	5,097.66	82.8012	5,097.66	80.8032	5,097.66	80.9393	5,097.66	85.7026	5,097.66	82.461	5,097.66	85.8748	5,097.66	80.1629	5,097.66	82.6667	5,097.66	81.5324
5,277.83	99.828	5,277.83	100.256	5,277.83	100.094	5,277.83	100.474	5,277.83	99.9979	5,277.83	100.516	5,277.83	98.8065	5,277.83	98.7466	5,277.83	98.1308	5,277.83	98.3688	5,277.83	98.1967	5,277.83	98.1091	5,277.83	96.8701	5,277.83	95.3497	5,277.83	96.6023	5,277.83	91.3268	5,277.83	95.6644	5,277.83	88.7802	5,277.83	87.2748	5,277.83	88.4449	5,277.83	81.3844	5,277.83	85.1405	5,277.83	77.4119	5,277.83	85.7105	5,277.83	83.0895	5,277.83	82.5409	5,277.83	77.4567	5,277.83	82.9236	5,277.83	76.3525	5,277.83	80.5213	5,277.83	84.3072	5,277.83	75.4689	5,277.83	85.3534	5,277.83	80.6875	5,277.83	82.2437	5,277.83	80.009
5,463.87	99.3834	5,463.87	100.091	5,463.87	100.121	5,463.87	100.816	5,463.87	99.7716	5,463.87	100.352	5,463.87	98.2417	5,463.87	98.6529	5,463.87	98.4823	5,463.87	99.4816	5,463.87	99.9196	5,463.87	97.1251	5,463.87	98.3903	5,463.87	91.9041	5,463.87	96.2022	5,463.87	92.1101	5,463.87	93.1761	5,463.87	89.5317	5,463.87	87.4305	5,463.87	88.1057	5,463.87	81.7292	5,463.87	85.8438	5,463.87	76.0599	5,463.87	84.7124	5,463.87	76.5645	5,463.87	83.3517	5,463.87	72.3666	5,463.87	83.0733	5,463.87	71.961	5,463.87	76.8738	5,463.87	85.2704	5,463.87	78.5028	5,463.87	82.8634	5,463.87	79.0359	5,463.87	73.9557	5,463.87	77.4564
5,657.23	100.047	5,657.23	100.63	5,657.23	100.316	5,657.23	100.792	5,657.23	100.006	5,657.23	99.5513	5,657.23	96.9742	5,657.23	99.0583	5,657.23	96.8318	5,657.23	99.28	5,657.23	99.5391	5,657.23	95.0313	5,657.23	98.6439	5,657.23	92.7921	5,657.23	96.1535	5,657.23	89.8978	5,657.23	89.9129	5,657.23	88.7076	5,657.23	89.831	5,657.23	87.9903	5,657.23	82.0759	5,657.23	86.7983	5,657.23	81.0733	5,657.23	86.7658	5,657.23	77.7389	5,657.23	82.7781	5,657.23	82.2586	5,657.23	85.1894	5,657.23	79.7369	5,657.23	79.3667	5,657.23	86.571	5,657.23	78.7377	5,657.23	80.9949	5,657.23	81.593	5,657.23	76.5008	5,657.23	74.1848
5,856.45	99.022	5,856.45	100.847	5,856.45	99.4145	5,856.45	100.618	5,856.45	100.1	5,856.45	99.9091	5,856.45	97.7416	5,856.45	99.9257	5,856.45	95.7076	5,856.45	97.8791	5,856.45	97.7224	5,856.45	94.1901	5,856.45	99.1141	5,856.45	93.0845	5,856.45	95.9947	5,856.45	91.1732	5,856.45	88.5394	5,856.45	90.0501	5,856.45	87.8504	5,856.45	85.5799	5,856.45	83.532	5,856.45	85.4624	5,856.45	83.1824	5,856.45	85.3444	5,856.45	83.2899	5,856.45	84.9892	5,856.45	82.5527	5,856.45	84.0087	5,856.45	77.8249	5,856.45	80.4748	5,856.45	83.9208	5,856.45	76.4411	5,856.45	83.8605	5,856.45	79.729	5,856.45	79.7111	5,856.45	68.6854
6,062.99	99.426	6,062.99	101.144	6,062.99	98.8262	6,062.99	100.142	6,062.99	100.38	6,062.99	99.3521	6,062.99	99.4786	6,062.99	98.6718	6,062.99	94.5786	6,062.99	96.4567	6,062.99	96.3225	6,062.99	95.2386	6,062.99	98.4368	6,062.99	94.1125	6,062.99	97.0269	6,062.99	89.9566	6,062.99	90.7732	6,062.99	88.0059	6,062.99	88.5379	6,062.99	86.0767	6,062.99	87.7153	6,062.99	85.6033	6,062.99	76.9515	6,062.99	83.216	6,062.99	82.2719	6,062.99	84.0216	6,062.99	78.6575	6,062.99	83.5407	6,062.99	73.557	6,062.99	77.6769	6,062.99	80.0616	6,062.99	79.3493	6,062.99	82.296	6,062.99	79.2401	6,062.99	68.4927	6,062.99	73.0413
6,276.86	100.182	6,276.86	100.975	6,276.86	98.5159	6,276.86	99.6672	6,276.86	100.056	6,276.86	99.7535	6,276.86	99.1724	6,276.86	98.1421	6,276.86	95.6767	6,276.86	95.7354	6,276.86	95.668	6,276.86	95.1599	6,276.86	97.5255	6,276.86	93.3276	6,276.86	96.621	6,276.86	90.8488	6,276.86	89.3585	6,276.86	87.1194	6,276.86	90.0785	6,276.86	84.197	6,276.86	88.5546	6,276.86	84.502	6,276.86	61.953	6,276.86	82.168	6,276.86	76.613	6,276.86	82.3733	6,276.86	77.2739	6,276.86	81.9814	6,276.86	74.3784	6,276.86	79.0592	6,276.86	79.0792	6,276.86	76.9261	6,276.86	80.097	6,276.86	78.1373	6,276.86	71.033	6,276.86	76.4096
6,498.05	100.459	6,498.05	100.619	6,498.05	98.5871	6,498.05	99.5049	6,498.05	98.7178	6,498.05	99.2115	6,498.05	98.1805	6,498.05	96.6241	6,498.05	95.2718	6,498.05	95.6733	6,498.05	92.8519	6,498.05	95.1189	6,498.05	95.4478	6,498.05	91.4169	6,498.05	93.343	6,498.05	87.2916	6,498.05	88.0269	6,498.05	87.1026	6,498.05	87.7797	6,498.05	84.8769	6,498.05	84.2345	6,498.05	82.302	6,498.05	75.1688	6,498.05	81.2011	6,498.05	58.8223	6,498.05	81.3729	6,498.05	75.8377	6,498.05	81.4248	6,498.05	76.7954	6,498.05	80.1348	6,498.05	81.9029	6,498.05	75.4074	6,498.05	80.55	6,498.05	74.294	6,498.05	66.2442	6,498.05	65.854
6,726.56	100.961	6,726.56	100.537	6,726.56	98.9263	6,726.56	99.3908	6,726.56	98.6264	6,726.56	99.3581	6,726.56	98.1709	6,726.56	96.5903	6,726.56	94.8492	6,726.56	96.0136	6,726.56	92.4465	6,726.56	93.3817	6,726.56	93.801	6,726.56	89.9922	6,726.56	87.9271	6,726.56	88.5418	6,726.56	88.948	6,726.56	85.7034	6,726.56	86.5097	6,726.56	83.4953	6,726.56	80.6819	6,726.56	81.7966	6,726.56	79.3369	6,726.56	82.5695	6,726.56	73.6606	6,726.56	81.4164	6,726.56	77.4342	6,726.56	77.5593	6,726.56	75.8001	6,726.56	78.0541	6,726.56	79.9206	6,726.56	75.2331	6,726.56	78.6778	6,726.56	74.5937	6,726.56	61.6837	6,726.56	71.1982
6,963.87	100.536	6,963.87	100.105	6,963.87	99.4749	6,963.87	99.9596	6,963.87	98.5749	6,963.87	99.1707	6,963.87	97.4412	6,963.87	96.4134	6,963.87	95.3557	6,963.87	95.324	6,963.87	93.4954	6,963.87	91.4983	6,963.87	92.7098	6,963.87	89.2551	6,963.87	84.7903	6,963.87	85.4269	6,963.87	90.0188	6,963.87	86.5787	6,963.87	82.2479	6,963.87	82.6706	6,963.87	74.0525	6,963.87	81.7317	6,963.87	75.8997	6,963.87	81.4089	6,963.87	67.1714	6,963.87	81.9867	6,963.87	79.1737	6,963.87	79.2801	6,963.87	72.4219	6,963.87	79.8399	6,963.87	76.6697	6,963.87	78.1739	6,963.87	78.2121	6,963.87	74.7017	6,963.87	64.9279	6,963.87	72.3366
7,209.96	100.708	7,209.96	100.336	7,209.96	99.733	7,209.96	100.438	7,209.96	98.3864	7,209.96	99.5369	7,209.96	97.4117	7,209.96	97.1196	7,209.96	94.6368	7,209.96	94.8493	7,209.96	93.0731	7,209.96	91.0961	7,209.96	91.1127	7,209.96	90.5071	7,209.96	91.4079	7,209.96	84.9076	7,209.96	92.6307	7,209.96	83.5735	7,209.96	77.7459	7,209.96	82.1967	7,209.96	72.9527	7,209.96	81.8536	7,209.96	74.6575	7,209.96	80.1017	7,209.96	70.0138	7,209.96	82.0141	7,209.96	78.0165	7,209.96	79.3405	7,209.96	57.1163	7,209.96	80.169	7,209.96	75.7073	7,209.96	78.8839	7,209.96	75.6814	7,209.96	75.9452	7,209.96	63.9237	7,209.96	75.5633
7,464.84	100.465	7,464.84	100.613	7,464.84	99.9599	7,464.84	100.889	7,464.84	99.0747	7,464.84	99.6016	7,464.84	97.3641	7,464.84	97.3115	7,464.84	92.991	7,464.84	94.8207	7,464.84	91.5165	7,464.84	92.8751	7,464.84	87.958	7,464.84	89.5836	7,464.84	95.2598	7,464.84	87.6755	7,464.84	93.1817	7,464.84	86.786	7,464.84	81.8529	7,464.84	83.2934	7,464.84	78.8103	7,464.84	83.6838	7,464.84	78.2645	7,464.84	80.1552	7,464.84	78.655	7,464.84	82.6616	7,464.84	67.3226	7,464.84	81.2917	7,464.84	73.1543	7,464.84	81.3735	7,464.84	78.6906	7,464.84	78.9413	7,464.84	76.6668	7,464.84	74.7853	7,464.84	68.8493	7,464.84	79.0547
7,727.05	100.485	7,727.05	100.88	7,727.05	99.4571	7,727.05	101.078	7,727.05	98.9576	7,727.05	100.017	7,727.05	97.4689	7,727.05	97.5056	7,727.05	93.2251	7,727.05	95.3854	7,727.05	88.7338	7,727.05	92.8181	7,727.05	89.6122	7,727.05	89.9081	7,727.05	94.9881	7,727.05	88.6193	7,727.05	91.5802	7,727.05	86.4951	7,727.05	82.9636	7,727.05	83.6137	7,727.05	81.1055	7,727.05	82.3313	7,727.05	81.6912	7,727.05	80.411	7,727.05	74.1666	7,727.05	81.6684	7,727.05	67.9308	7,727.05	80.6328	7,727.05	65.4462	7,727.05	82.0178	7,727.05	75.2917	7,727.05	79.3075	7,727.05	75.278	7,727.05	76.068	7,727.05	73.0968	7,727.05	77.8782
7,999.51	100.527	7,999.51	100.853	7,999.51	99.083	7,999.51	100.509	7,999.51	98.632	7,999.51	98.9182	7,999.51	97.8119	7,999.51	97.0164	7,999.51	94.567	7,999.51	94.874	7,999.51	89.6698	7,999.51	91.8951	7,999.51	89.6682	7,999.51	90.1274	7,999.51	94.0574	7,999.51	87.9541	7,999.51	90.1079	7,999.51	83.5945	7,999.51	82.6429	7,999.51	82.431	7,999.51	81.4161	7,999.51	80.311	7,999.51	79.0051	7,999.51	79.0744	7,999.51	77.8958	7,999.51	80.3306	7,999.51	69.1672	7,999.51	79.4384	7,999.51	76.3142	7,999.51	80.8578	7,999.51	75.7305	7,999.51	78.4714	7,999.51	72.2796	7,999.51	75.9934	7,999.51	63.5924	7,999.51	76.7849
8,282.23	99.5862	8,282.23	99.7934	8,282.23	98.4872	8,282.23	98.9425	8,282.23	97.937	8,282.23	97.4675	8,282.23	96.7693	8,282.23	95.8567	8,282.23	94.5545	8,282.23	92.7249	8,282.23	90.6246	8,282.23	91.3855	8,282.23	90.3297	8,282.23	88.4547	8,282.23	92.0244	8,282.23	86.2546	8,282.23	85.7584	8,282.23	81.9528	8,282.23	83.699	8,282.23	80.614	8,282.23	84.1644	8,282.23	78.577	8,282.23	83.7374	8,282.23	79.702	8,282.23	74.7506	8,282.23	77.7405	8,282.23	70.4722	8,282.23	78.4971	8,282.23	71.1752	8,282.23	80.4034	8,282.23	75.7298	8,282.23	76.3841	8,282.23	69.7098	8,282.23	76.4214	8,282.23	70.4682	8,282.23	76.7355
8,573.73	99.3122	8,573.73	99.0418	8,573.73	98.4501	8,573.73	97.7339	8,573.73	98.0728	8,573.73	97.0445	8,573.73	96.6972	8,573.73	94.3861	8,573.73	94.1757	8,573.73	91.7106	8,573.73	89.9207	8,573.73	90.3317	8,573.73	90.3554	8,573.73	86.1327	8,573.73	88.0311	8,573.73	84.4157	8,573.73	81.1331	8,573.73	82.689	8,573.73	82.4284	8,573.73	81.151	8,573.73	79.858	8,573.73	78.1343	8,573.73	79.779	8,573.73	78.3307	8,573.73	67.1079	8,573.73	77.6431	8,573.73	70.0618	8,573.73	78.0271	8,573.73	71.5436	8,573.73	78.0411	8,573.73	74.374	8,573.73	74.7221	8,573.73	64.8451	8,573.73	75.6521	8,573.73	67.9312	8,573.73	73.8991
8,876.95	99.5471	8,876.95	99.0683	8,876.95	98.9422	8,876.95	97.9225	8,876.95	98.4758	8,876.95	96.6915	8,876.95	97.0174	8,876.95	93.0537	8,876.95	93.8233	8,876.95	91.9078	8,876.95	89.8005	8,876.95	88.5427	8,876.95	89.0373	8,876.95	86.122	8,876.95	84.1544	8,876.95	83.3168	8,876.95	84.6425	8,876.95	80.1937	8,876.95	80.9939	8,876.95	77.5879	8,876.95	75.514	8,876.95	74.544	8,876.95	76.7904	8,876.95	73.2216	8,876.95	65.1431	8,876.95	75.3758	8,876.95	67.051	8,876.95	72.239	8,876.95	60.0747	8,876.95	72.8839	8,876.95	72.7847	8,876.95	73.6253	8,876.95	67.0535	8,876.95	71.1538	8,876.95	67.2279	8,876.95	74.1578
9,188.96	99.496	9,188.96	98.9718	9,188.96	98.705	9,188.96	98.0065	9,188.96	97.8894	9,188.96	96.2349	9,188.96	96.3813	9,188.96	92.918	9,188.96	92.6818	9,188.96	90.7331	9,188.96	88.8379	9,188.96	86.4626	9,188.96	85.3277	9,188.96	84.3521	9,188.96	82.7468	9,188.96	79.0555	9,188.96	84.7147	9,188.96	74.0938	9,188.96	79.4288	9,188.96	72.05	9,188.96	74.6576	9,188.96	70.2261	9,188.96	67.8904	9,188.96	67.6676	9,188.96	63.4354	9,188.96	67.1101	9,188.96	58.9438	9,188.96	68.1848	9,188.96	62.9486	9,188.96	71.9005	9,188.96	68.0215	9,188.96	71.1223	9,188.96	65.8011	9,188.96	68.1506	9,188.96	64.2805	9,188.96	72.8618
9,514.16	99.1808	9,514.16	98.881	9,514.16	98.2171	9,514.16	97.9913	9,514.16	97.2302	9,514.16	96.1111	9,514.16	95.3019	9,514.16	93.0721	9,514.16	92.0295	9,514.16	89.7313	9,514.16	87.6316	9,514.16	85.2518	9,514.16	80.8829	9,514.16	81.0578	9,514.16	82.6843	9,514.16	76.938	9,514.16	80.5965	9,514.16	72.5775	9,514.16	72.6479	9,514.16	71.1666	9,514.16	73.5702	9,514.16	69.3895	9,514.16	63.7589	9,514.16	71.0487	9,514.16	71.2078	9,514.16	65.7701	9,514.16	61.74	9,514.16	69.5986	9,514.16	66.5785	9,514.16	70.7992	9,514.16	63.6978	9,514.16	67.4552	9,514.16	58.3461	9,514.16	68.1124	9,514.16	69.29	9,514.16	73.7848
9,849.61	99.0869	9,849.61	98.9698	9,849.61	97.92	9,849.61	97.7954	9,849.61	96.6474	9,849.61	95.8347	9,849.61	94.8079	9,849.61	92.9982	9,849.61	91.4397	9,849.61	89.6709	9,849.61	85.5047	9,849.61	85.2575	9,849.61	82.1772	9,849.61	79.6144	9,849.61	82.327	9,849.61	78.4912	9,849.61	78.6813	9,849.61	74.7219	9,849.61	67.3836	9,849.61	71.2803	9,849.61	63.139	9,849.61	69.9643	9,849.61	66.2016	9,849.61	72.278	9,849.61	66.8327	9,849.61	70.4578	9,849.61	65.4441	9,849.61	71.2527	9,849.61	63.8963	9,849.61	69.9567	9,849.61	60.9557	9,849.61	65.9492	9,849.61	54.9669	9,849.61	69.904	9,849.61	70.7108	9,849.61	73.252
10,196.8	99.3607	10,196.8	99.1897	10,196.8	98.0641	10,196.8	97.5912	10,196.8	96.5611	10,196.8	95.4496	10,196.8	94.4371	10,196.8	92.5193	10,196.8	90.7721	10,196.8	89.83	10,196.8	85.664	10,196.8	85.7032	10,196.8	85.2877	10,196.8	80.6797	10,196.8	83.2593	10,196.8	77.7445	10,196.8	77.4089	10,196.8	73.6733	10,196.8	74.3244	10,196.8	71.9705	10,196.8	68.682	10,196.8	71.2713	10,196.8	70.2717	10,196.8	71.412	10,196.8	66.4637	10,196.8	72.2083	10,196.8	64.8419	10,196.8	71.0706	10,196.8	65.79	10,196.8	67.9012	10,196.8	62.6426	10,196.8	67.3212	10,196.8	55.0801	10,196.8	68.8723	10,196.8	69.4474	10,196.8	71.9872
10,555.7	99.6478	10,555.7	99.2362	10,555.7	98.2358	10,555.7	97.1859	10,555.7	96.6609	10,555.7	94.9884	10,555.7	94.3968	10,555.7	91.5034	10,555.7	90.4505	10,555.7	89.4045	10,555.7	86.898	10,555.7	84.4147	10,555.7	85.2166	10,555.7	80.5102	10,555.7	82.8461	10,555.7	74.7541	10,555.7	78.9865	10,555.7	72.5086	10,555.7	77.9728	10,555.7	71.0737	10,555.7	71.7388	10,555.7	71.1058	10,555.7	69.1974	10,555.7	69.2131	10,555.7	59.0018	10,555.7	70.1923	10,555.7	55.4342	10,555.7	70.826	10,555.7	63.3496	10,555.7	66.3049	10,555.7	59.286	10,555.7	68.1143	10,555.7	62.1672	10,555.7	67.6544	10,555.7	67.0542	10,555.7	71.289
10,927.7	99.36	10,927.7	98.8212	10,927.7	98.2644	10,927.7	96.8639	10,927.7	96.7579	10,927.7	94.2987	10,927.7	94.1541	10,927.7	90.5974	10,927.7	89.5801	10,927.7	88.257	10,927.7	85.6107	10,927.7	81.5959	10,927.7	83.126	10,927.7	77.5441	10,927.7	83.1293	10,927.7	73.0688	10,927.7	75.2838	10,927.7	71.898	10,927.7	74.4566	10,927.7	70.5466	10,927.7	71.0386	10,927.7	69.3639	10,927.7	69.5325	10,927.7	69.5144	10,927.7	52.0107	10,927.7	69.6681	10,927.7	65.0244	10,927.7	70.0319	10,927.7	63.3912	10,927.7	67.6554	10,927.7	59.9621	10,927.7	67.1964	10,927.7	51.5319	10,927.7	67.6076	10,927.7	66.8193	10,927.7	70.9715
11,313	98.8171	11,313	98.3007	11,313	97.7885	11,313	96.5475	11,313	96.1506	11,313	93.8545	11,313	92.6828	11,313	90.2645	11,313	87.9153	11,313	86.6218	11,313	81.8213	11,313	79.231	11,313	82.5312	11,313	77.4388	11,313	78.6535	11,313	76.3758	11,313	73.9592	11,313	73.4109	11,313	72.7555	11,313	71.9599	11,313	66.9887	11,313	70.5172	11,313	70.6852	11,313	70.7914	11,313	62.3933	11,313	69.972	11,313	68.3169	11,313	70.431	11,313	59.9742	11,313	66.1707	11,313	61.6127	11,313	67.5191	11,313	64.1122	11,313	67.7746	11,313	67.5597	11,313	72.3153
11,712.9	98.4824	11,712.9	98.2445	11,712.9	97.3089	11,712.9	96.1744	11,712.9	95.6921	11,712.9	93.6485	11,712.9	91.8795	11,712.9	89.6771	11,712.9	86.8643	11,712.9	85.0532	11,712.9	83.4759	11,712.9	80.2158	11,712.9	83.5806	11,712.9	79.7137	11,712.9	75.7735	11,712.9	77.5061	11,712.9	77.1876	11,712.9	73.9556	11,712.9	74.982	11,712.9	72.8278	11,712.9	61.8044	11,712.9	70.885	11,712.9	69.583	11,712.9	72.0445	11,712.9	68.7266	11,712.9	70.4704	11,712.9	63.5745	11,712.9	72.0975	11,712.9	68.9864	11,712.9	70.173	11,712.9	65.5658	11,712.9	68.688	11,712.9	62.8161	11,712.9	70.171	11,712.9	68.8881	11,712.9	72.855
12,126	98.2727	12,126	97.6887	12,126	96.9805	12,126	95.1608	12,126	95.1521	12,126	93.341	12,126	91.8454	12,126	88.5313	12,126	88.2962	12,126	86.0971	12,126	87.1127	12,126	82.3494	12,126	83.7718	12,126	82.0195	12,126	81.0695	12,126	79.7428	12,126	79.3014	12,126	77.3616	12,126	76.6786	12,126	74.5022	12,126	65.3544	12,126	72.3891	12,126	75.0769	12,126	74.0751	12,126	70.488	12,126	73.738	12,126	58.8439	12,126	73.4709	12,126	69.2905	12,126	72.684	12,126	58.5329	12,126	69.7514	12,126	64.9595	12,126	71.7776	12,126	69.9093	12,126	73.0525
12,553.7	97.5728	12,553.7	96.1669	12,553.7	96.3497	12,553.7	94.2873	12,553.7	93.9947	12,553.7	92.8778	12,553.7	91.3607	12,553.7	89.6657	12,553.7	89.1266	12,553.7	87.5847	12,553.7	87.4815	12,553.7	85.803	12,553.7	86.5859	12,553.7	84.2666	12,553.7	82.4318	12,553.7	81.4877	12,553.7	78.8106	12,553.7	78.4823	12,553.7	76.2934	12,553.7	74.6688	12,553.7	71.5163	12,553.7	73.3428	12,553.7	72.5004	12,553.7	74.3234	12,553.7	64.0774	12,553.7	74.9176	12,553.7	68.4182	12,553.7	72.2535	12,553.7	68.4153	12,553.7	71.856	12,553.7	57.9486	12,553.7	70.8827	12,553.7	65.7603	12,553.7	72.272	12,553.7	71.7117	12,553.7	72.1122
12,996.1	96.1941	12,996.1	94.7905	12,996.1	95.0966	12,996.1	93.9018	12,996.1	93.1705	12,996.1	92.8733	12,996.1	90.8725	12,996.1	90.667	12,996.1	90.1466	12,996.1	88.1884	12,996.1	87.1765	12,996.1	87.1754	12,996.1	87.0476	12,996.1	83.5497	12,996.1	80.181	12,996.1	80.5892	12,996.1	78.5599	12,996.1	76.9008	12,996.1	75.6069	12,996.1	72.838	12,996.1	70.9363	12,996.1	71.3648	12,996.1	66.2274	12,996.1	72.3592	12,996.1	68.2229	12,996.1	73.7856	12,996.1	70.0558	12,996.1	70.7914	12,996.1	67.5418	12,996.1	70.4708	12,996.1	53.3758	12,996.1	68.4693	12,996.1	62.8515	12,996.1	70.8065	12,996.1	71.1378	12,996.1	70.4534
13,454.6	95.9549	13,454.6	95.235	13,454.6	94.5899	13,454.6	94.4497	13,454.6	92.9568	13,454.6	93.3776	13,454.6	90.4675	13,454.6	90.3442	13,454.6	88.4607	13,454.6	88.9367	13,454.6	85.6404	13,454.6	86.1152	13,454.6	84.9843	13,454.6	82.1853	13,454.6	76.7184	13,454.6	78.2697	13,454.6	78.4535	13,454.6	74.6985	13,454.6	73.1	13,454.6	70.4745	13,454.6	57.7354	13,454.6	68.8644	13,454.6	72.2957	13,454.6	68.9478	13,454.6	72.2654	13,454.6	70.8445	13,454.6	66.2513	13,454.6	67.742	13,454.6	66.2644	13,454.6	69.7074	13,454.6	60.3711	13,454.6	68.1153	13,454.6	62.9894	13,454.6	68.7037	13,454.6	70.0624	13,454.6	68.7838
13,929.2	96.5328	13,929.2	96.0564	13,929.2	94.873	13,929.2	95.3241	13,929.2	92.796	13,929.2	93.5934	13,929.2	89.8465	13,929.2	90.2775	13,929.2	87.4304	13,929.2	88.4268	13,929.2	82.8888	13,929.2	84.1433	13,929.2	83.0734	13,929.2	79.8019	13,929.2	74.2444	13,929.2	74.5073	13,929.2	76.3934	13,929.2	71.628	13,929.2	66.5741	13,929.2	67.4892	13,929.2	68.2097	13,929.2	65.2089	13,929.2	72.4119	13,929.2	65.7873	13,929.2	71.1979	13,929.2	69.7943	13,929.2	58.8486	13,929.2	66.1421	13,929.2	62.7447	13,929.2	66.3891	13,929.2	50.4373	13,929.2	65.6325	13,929.2	57.7108	13,929.2	64.6428	13,929.2	65.7924	13,929.2	66.2586
14,419.9	97.0992	14,419.9	96.7739	14,419.9	95.1982	14,419.9	95.8132	14,419.9	92.7942	14,419.9	93.5649	14,419.9	89.1673	14,419.9	90.1411	14,419.9	86.1191	14,419.9	86.9257	14,419.9	83.3031	14,419.9	82.3186	14,419.9	81.1494	14,419.9	75.8622	14,419.9	71.6458	14,419.9	72.8177	14,419.9	72.0517	14,419.9	69.3105	14,419.9	64.8805	14,419.9	66.0707	14,419.9	67.9085	14,419.9	63.9384	14,419.9	71.0159	14,419.9	64.3711	14,419.9	70.0805	14,419.9	68.3241	14,419.9	65.4408	14,419.9	63.9205	14,419.9	59.091	14,419.9	66.5064	14,419.9	52.9637	14,419.9	64.2852	14,419.9	58.0265	14,419.9	61.8675	14,419.9	65.7995	14,419.9	60.6536
14,928.2	97.8566	14,928.2	97.5386	14,928.2	96.0489	14,928.2	96.2394	14,928.2	93.8986	14,928.2	93.9598	14,928.2	90.5404	14,928.2	90.3169	14,928.2	87.3627	14,928.2	87.3517	14,928.2	84.2048	14,928.2	81.8302	14,928.2	81.1979	14,928.2	76.1621	14,928.2	73.8519	14,928.2	70.9545	14,928.2	74.7788	14,928.2	70.6077	14,928.2	65.8361	14,928.2	69.2376	14,928.2	70.9045	14,928.2	65.5145	14,928.2	73.6526	14,928.2	65.9362	14,928.2	73.9625	14,928.2	68.8444	14,928.2	64.2278	14,928.2	65.5037	14,928.2	65.0942	14,928.2	65.4371	14,928.2	49.2666	14,928.2	65.9704	14,928.2	58.6113	14,928.2	62.6578	14,928.2	67.3317	14,928.2	63.0336
15,455.6	99.0148	15,455.6	98.6683	15,455.6	97.243	15,455.6	97.1374	15,455.6	95.2465	15,455.6	94.7346	15,455.6	91.5925	15,455.6	91.0939	15,455.6	88.3533	15,455.6	88.1793	15,455.6	84.2516	15,455.6	82.0762	15,455.6	82.8405	15,455.6	76.4911	15,455.6	72.1001	15,455.6	73.7171	15,455.6	75.4162	15,455.6	72.1623	15,455.6	68.1484	15,455.6	68.8842	15,455.6	73.6556	15,455.6	65.4513	15,455.6	76.5821	15,455.6	67.3993	15,455.6	74.7177	15,455.6	68.29	15,455.6	62.1687	15,455.6	66.6134	15,455.6	61.3512	15,455.6	65.4355	15,455.6	46.7162	15,455.6	65.4513	15,455.6	54.9452	15,455.6	61.4944	15,455.6	64.5602	15,455.6	64.2739
16,000.5	99.8157	16,000.5	99.6977	16,000.5	98.0282	16,000.5	98.0121	16,000.5	96.1838	16,000.5	95.5813	16,000.5	92.3489	16,000.5	91.5832	16,000.5	88.8037	16,000.5	88.1503	16,000.5	85.8848	16,000.5	81.0349	16,000.5	80.1072	16,000.5	76.2375	16,000.5	73.8401	16,000.5	72.1057	16,000.5	72.9367	16,000.5	70.6319	16,000.5	69.4979	16,000.5	65.2775	16,000.5	76.4899	16,000.5	64.4709	16,000.5	75.7052	16,000.5	64.7797	16,000.5	73.3343	16,000.5	67.394	16,000.5	61.7346	16,000.5	63.8667	16,000.5	53.0835	16,000.5	65.5339	16,000.5	53.4515	16,000.5	63.2534	16,000.5	58.3329	16,000.5	56.7997	16,000.5	65.7745	16,000.5	59.1223
16,564.5	100.264	16,564.5	100.153	16,564.5	98.2413	16,564.5	98.2314	16,564.5	96.0858	16,564.5	95.6608	16,564.5	91.9012	16,564.5	90.465	16,564.5	88.3855	16,564.5	86.0914	16,564.5	83.0429	16,564.5	76.7247	16,564.5	76.9109	16,564.5	70.5914	16,564.5	70.8001	16,564.5	66.3539	16,564.5	68.3642	16,564.5	65.8571	16,564.5	65.6817	16,564.5	62.2416	16,564.5	75.7737	16,564.5	61.3188	16,564.5	73.7483	16,564.5	60.6017	16,564.5	71.0465	16,564.5	63.0601	16,564.5	62.6579	16,564.5	59.167	16,564.5	56.1389	16,564.5	55.5386	16,564.5	56.8992	16,564.5	59.5041	16,564.5	53.9508	16,564.5	49.9625	16,564.5	65.1122	16,564.5	53.7818
17,148.9	100.504	17,148.9	100.18	17,148.9	98.2946	17,148.9	98.0169	17,148.9	95.5052	17,148.9	94.7935	17,148.9	90.5525	17,148.9	88.307	17,148.9	86.0122	17,148.9	82.6572	17,148.9	79.8058	17,148.9	71.1774	17,148.9	73.8098	17,148.9	59.1442	17,148.9	66.462	17,148.9	61.3069	17,148.9	66.2953	17,148.9	59.8703	17,148.9	64.0581	17,148.9	56.6638	17,148.9	74.026	17,148.9	56.2358	17,148.9	70.5191	17,148.9	59.1429	17,148.9	69.7359	17,148.9	49.0504	17,148.9	61.0637	17,148.9	60.2301	17,148.9	59.6481	17,148.9	48.0532	17,148.9	55.3324	17,148.9	49.997	17,148.9	55.5897	17,148.9	58.2097	17,148.9	64.3952	17,148.9	60.7738
17,752.4	100.376	17,752.4	99.8392	17,752.4	98.017	17,752.4	97.2895	17,752.4	94.6189	17,752.4	93.1504	17,752.4	88.466	17,752.4	85.4618	17,752.4	82.7078	17,752.4	78.1717	17,752.4	75.5015	17,752.4	66.109	17,752.4	66.7708	17,752.4	64.0504	17,752.4	58.6024	17,752.4	63.3246	17,752.4	63.783	17,752.4	59.6948	17,752.4	60.5169	17,752.4	47.3923	17,752.4	73.7345	17,752.4	52.8376	17,752.4	70.1763	17,752.4	59.5092	17,752.4	68.809	17,752.4	55.8681	17,752.4	58.1379	17,752.4	60.7294	17,752.4	57.9324	17,752.4	58.7329	17,752.4	59.0381	17,752.4	51.7151	17,752.4	58.1448	17,752.4	61.3517	17,752.4	63.4448	17,752.4	63.8616
18,379.4	99.805	18,379.4	99.2919	18,379.4	97.4478	18,379.4	96.4065	18,379.4	93.8165	18,379.4	91.5341	18,379.4	87.0718	18,379.4	82.5715	18,379.4	80.6596	18,379.4	75.1987	18,379.4	74.2826	18,379.4	69.348	18,379.4	64.5256	18,379.4	68.6115	18,379.4	42.4881	18,379.4	65.5831	18,379.4	58.4717	18,379.4	63.1899	18,379.4	55.4119	18,379.4	50.6294	18,379.4	74.313	18,379.4	50.1275	18,379.4	70.2825	18,379.4	60.422	18,379.4	68.3748	18,379.4	59.6977	18,379.4	57.9995	18,379.4	59.3481	18,379.4	59.7691	18,379.4	60.6148	18,379.4	60.6756	18,379.4	52.8843	18,379.4	63.038	18,379.4	63.147	18,379.4	65.8491	18,379.4	64.2933
19,026.9	99.0398	19,026.9	98.5668	19,026.9	96.7506	19,026.9	95.5027	19,026.9	93.0567	19,026.9	90.6424	19,026.9	86.5627	19,026.9	80.5533	19,026.9	80.1728	19,026.9	74.5241	19,026.9	73.09	19,026.9	70.2141	19,026.9	65.3045	19,026.9	68.8521	19,026.9	53.6771	19,026.9	64.1417	19,026.9	57.655	19,026.9	62.7968	19,026.9	48.9575	19,026.9	55.5897	19,026.9	73.7259	19,026.9	47.8215	19,026.9	70.3434	19,026.9	59.0488	19,026.9	68.2314	19,026.9	59.7544	19,026.9	62.2109	19,026.9	59.5081	19,026.9	61.8827	19,026.9	57.7112	19,026.9	60.057	19,026.9	53.9645	19,026.9	63.1464	19,026.9	64.9048	19,026.9	66.5629	19,026.9	64.0944
19,697.8	98.5384	19,697.8	97.6836	19,697.8	96.0613	19,697.8	94.4641	19,697.8	91.9378	19,697.8	89.2232	19,697.8	84.6769	19,697.8	77.3269	19,697.8	77.0327	19,697.8	69.9226	19,697.8	67.4725	19,697.8	68.4226	19,697.8	65.1255	19,697.8	68.9042	19,697.8	51.1872	19,697.8	62.1265	19,697.8	57.0281	19,697.8	58.2707	19,697.8	53.4171	19,697.8	55.912	19,697.8	73.4044	19,697.8	49.6028	19,697.8	68.7459	19,697.8	54.6173	19,697.8	66.7051	19,697.8	61.5097	19,697.8	60.2468	19,697.8	54.0404	19,697.8	59.9427	19,697.8	57.0307	19,697.8	51.7967	19,697.8	51.8556	19,697.8	60.075	19,697.8	64.2432	19,697.8	64.0677	19,697.8	63.8691
19,999.5	98.1946	19,999.5	97.2894	19,999.5	95.4962	19,999.5	94.0192	19,999.5	91.4863	19,999.5	88.0665	19,999.5	82.5776	19,999.5	75.7738	19,999.5	74.9258	19,999.5	68.0967	19,999.5	64.0198	19,999.5	66.921	19,999.5	65.9846	19,999.5	67.7054	19,999.5	61.7919	19,999.5	60.6108	19,999.5	58.6018	19,999.5	57.4816	19,999.5	55.3243	19,999.5	56.2275	19,999.5	72.8827	19,999.5	54.1113	19,999.5	63.7963	19,999.5	41.6886	19,999.5	65.6011	19,999.5	62.3894	19,999.5	60.3793	19,999.5	60.8518	19,999.5	61.2164	19,999.5	48.3755	19,999.5	44.4387	19,999.5	56.0542	19,999.5	65.2421	19,999.5	58.4854	19,999.5	65.5814	19,999.5	61.3362
