"Horizontal Reflections"							
"Front"		"Side"		"Rear"		"Total Horizontal Reflection"	
"Frequency [Hz]"	"Sound Pessure Level [dB]  / [2.83V 1m] "	"Frequency [Hz]"	"Sound Pessure Level [dB]  / [2.83V 1m] "	"Frequency [Hz]"	"Sound Pessure Level [dB]  / [2.83V 1m] "	"Frequency [Hz]"	"Sound Pessure Level [dB]  / [2.83V 1m] "
20.5078	34.13	20.5078	31.7453	20.5078	34.9553	20.5078	34.0999
21.9727	46.6643	21.9727	45.8005	21.9727	43.2447	21.9727	44.8747
23.4375	48.3309	23.4375	47.7895	23.4375	45.9854	23.4375	47.0653
24.9023	50.8894	24.9023	50.6201	24.9023	49.8512	24.9023	50.29
26.3672	52.6764	26.3672	52.5282	26.3672	52.2482	26.3672	52.4129
27.832	54.8481	27.832	54.7403	27.832	54.5465	27.832	54.6607
29.2969	57.2256	29.2969	57.0711	29.2969	56.7511	29.2969	56.9368
30.7617	59.1689	30.7617	58.9906	30.7617	58.555	30.7617	58.8033
32.2266	60.7502	32.2266	60.5857	32.2266	60.2071	32.2266	60.424
33.6914	62.4706	33.6914	62.336	33.6914	62.0218	33.6914	62.2005
35.1562	63.9277	35.1562	63.7961	35.1562	63.5203	35.1562	63.6795
36.6211	65.6444	36.6211	65.5103	36.6211	65.2028	36.6211	65.3781
38.0859	67.0013	38.0859	66.8549	38.0859	66.5219	38.0859	66.7124
39.5508	68.3395	39.5508	68.2023	39.5508	67.8978	39.5508	68.0723
41.0156	69.3604	41.0156	69.2308	41.0156	69.0196	41.0156	69.1467
42.4805	70.5919	42.4805	70.4044	42.4805	69.9695	42.4805	70.2194
43.9453	71.7852	43.9453	71.6078	43.9453	71.2005	43.9453	71.4344
45.4102	72.8748	45.4102	72.7071	45.4102	72.3441	45.4102	72.5539
46.875	73.9556	46.875	73.7746	46.875	73.3774	46.875	73.607
48.3398	74.9587	48.3398	74.7753	48.3398	74.3686	48.3398	74.6034
51.2695	76.6028	51.2695	76.4134	51.2695	76.0108	51.2695	76.2449
52.7344	77.363	52.7344	77.1706	52.7344	76.7619	52.7344	76.9997
54.1992	78.0322	54.1992	77.8378	54.1992	77.43	54.1992	77.6677
55.6641	78.6501	55.6641	78.4494	55.6641	78.0261	55.6641	78.2729
58.5938	79.674	58.5938	79.4672	58.5938	79.0366	58.5938	79.2884
60.0586	80.0765	60.0586	79.8719	60.0586	79.4548	60.0586	79.6993
62.9883	80.8111	62.9883	80.5952	62.9883	80.1624	62.9883	80.4172
64.4531	81.0558	64.4531	80.8361	64.4531	80.4004	64.4531	80.6575
67.3828	81.465	67.3828	81.2419	67.3828	80.801	67.3828	81.0614
68.8477	81.6087	68.8477	81.3834	68.8477	80.9474	68.8477	81.2058
71.7773	82.0516	71.7773	81.8192	71.7773	81.3812	71.7773	81.6422
74.707	82.4252	74.707	82.1853	74.707	81.7393	74.707	82.0059
77.6367	82.6513	77.6367	82.3888	77.6367	81.9021	77.6367	82.1941
79.1016	82.8318	79.1016	82.5546	79.1016	82.021	79.1016	82.34
82.0312	83.0814	82.0312	82.8314	82.0312	82.3475	82.0312	82.6354
84.9609	82.9337	84.9609	82.7521	84.9609	82.5094	84.9609	82.6627
87.8906	83.1553	87.8906	82.993	87.8906	82.9556	87.8906	83.0055
90.8203	83.7861	90.8203	83.4604	90.8203	82.9765	90.8203	83.2808
95.2148	84.0209	95.2148	83.6974	95.2148	83.1417	95.2148	83.4822
98.1445	84.2224	98.1445	83.8922	98.1445	83.3479	98.1445	83.684
101.074	84.3575	101.074	84.0292	101.074	83.52	101.074	83.8378
105.469	84.5225	105.469	84.1952	105.469	83.7417	105.469	84.031
108.398	84.6542	108.398	84.3223	108.398	83.8656	108.398	84.1575
112.793	85.1643	112.793	84.8011	112.793	84.2519	112.793	84.5978
117.188	85.295	117.188	84.9452	117.188	84.5389	117.188	84.8092
120.117	85.6941	120.117	85.283	120.117	84.7745	120.117	85.1102
124.512	85.9142	124.512	85.4831	124.512	84.9251	124.512	85.2906
128.906	86.0285	128.906	85.5878	128.906	84.9207	128.906	85.345
133.301	86.1516	133.301	85.7368	133.301	85.1889	133.301	85.5456
139.16	86.2957	139.16	85.8403	139.16	85.2811	139.16	85.6527
143.555	86.4403	143.555	85.9626	143.555	85.3984	143.555	85.7777
147.949	86.5671	147.949	86.0707	147.949	85.4824	147.949	85.8784
153.809	86.7427	153.809	86.1938	153.809	85.5699	153.809	85.9964
159.668	86.9711	159.668	86.4029	159.668	85.7154	159.668	86.1797
165.527	87.2033	165.527	86.6106	165.527	85.9385	165.527	86.4004
171.387	87.1954	171.387	86.5942	171.387	85.9398	171.387	86.3944
177.246	87.2608	177.246	86.6465	177.246	85.944	177.246	86.4271
183.105	87.1742	183.105	86.5323	183.105	85.9034	183.105	86.3542
188.965	87.3104	188.965	86.5803	188.965	85.9179	188.965	86.4073
196.289	87.5598	196.289	86.8104	196.289	85.9697	196.289	86.5589
203.613	87.5563	203.613	86.7271	203.613	85.7888	203.613	86.4508
210.938	87.5293	210.938	86.7072	210.938	85.6886	210.938	86.3928
218.262	87.3814	218.262	86.582	218.262	85.6539	218.262	86.3028
225.586	87.3857	225.586	86.5174	225.586	85.6333	225.586	86.2755
232.91	87.382	232.91	86.4699	232.91	85.4046	232.91	86.1577
241.699	87.2725	241.699	86.3661	241.699	85.1666	241.699	85.9934
250.488	86.8758	250.488	85.8719	250.488	84.7162	250.488	85.5439
259.277	87.2853	259.277	86.2279	259.277	84.9702	259.277	85.87
268.066	86.6512	268.066	85.5488	268.066	84.7071	268.066	85.386
276.855	86.5762	276.855	85.3413	276.855	84.6788	276.855	85.2945
287.109	87.4201	287.109	85.9458	287.109	84.8916	287.109	85.7903
297.363	87.1994	297.363	85.7074	297.363	84.7966	297.363	85.6191
307.617	87.4189	307.617	85.8788	307.617	84.678	307.617	85.6801
319.336	87.3092	319.336	85.6492	319.336	84.1478	319.336	85.3632
329.59	87.5379	329.59	85.8227	329.59	83.8254	329.59	85.3632
341.309	87.2424	341.309	85.6825	341.309	83.9548	341.309	85.2768
353.027	87.4347	353.027	85.5398	353.027	83.123	353.027	84.9901
366.211	87.4159	366.211	85.6394	366.211	82.8438	366.211	84.9221
379.395	87.7319	379.395	86.0269	379.395	83.2025	379.395	85.2756
392.578	87.3003	392.578	85.7023	392.578	82.9559	392.578	84.9406
405.762	86.9706	405.762	85.0717	405.762	82.7217	405.762	84.5464
420.41	87.674	420.41	85.6659	420.41	82.2021	420.41	84.8265
435.059	87.2597	435.059	85.5765	435.059	82.3437	435.059	84.688
451.172	87.4259	451.172	85.4949	451.172	81.9433	451.172	84.6015
465.82	87.4491	465.82	85.5694	465.82	81.5598	465.82	84.5302
483.398	87.3938	483.398	85.6487	483.398	81.5198	483.398	84.5269
499.512	87.2053	499.512	85.539	499.512	81.1707	499.512	84.3253
517.09	87.4461	517.09	85.803	517.09	81.8609	517.09	84.6936
536.133	86.3915	536.133	85.341	536.133	81.5908	536.133	84.0799
555.176	87.1328	555.176	86.0765	555.176	80.95	555.176	84.4515
574.219	87.2587	574.219	85.9972	574.219	80.8744	574.219	84.4482
594.727	86.6089	594.727	85.4334	594.727	81.0051	594.727	84.025
615.234	86.9113	615.234	85.3989	615.234	80.2745	615.234	83.9444
637.207	86.8372	637.207	85.4333	637.207	80.7598	637.207	84.0448
659.18	86.7123	659.18	84.9645	659.18	79.7573	659.18	83.5839
682.617	86.8883	682.617	84.9884	682.617	79.8392	682.617	83.6818
707.52	86.9479	707.52	85.1862	707.52	80.1271	707.52	83.844
732.422	86.9336	732.422	84.874	732.422	79.7004	732.422	83.6279
757.324	87.319	757.324	85.046	757.324	80.0037	757.324	83.9178
785.156	87.3586	785.156	84.7677	785.156	79.909	785.156	83.8164
811.523	87.088	811.523	84.3774	811.523	79.718	811.523	83.5221
840.82	87.5507	840.82	84.3346	840.82	79.4022	840.82	83.6545
870.117	87.1436	870.117	83.978	870.117	79.0218	870.117	83.2692
900.879	87.1386	900.879	83.5479	900.879	78.4988	900.879	83.0285
933.105	86.4176	933.105	82.7271	933.105	77.3538	933.105	82.2002
965.332	85.2793	965.332	81.3474	965.332	76.186	965.332	80.9825
1,000.49	86.5663	1,000.49	82.5258	1,000.49	77.1526	1,000.49	82.1822
1,035.64	88.4651	1,035.64	84.7153	1,035.64	78.712	1,035.64	84.1171
1,072.27	87.9282	1,072.27	84.1072	1,072.27	78.003	1,072.27	83.5318
1,108.89	88.2384	1,108.89	84.0437	1,108.89	77.3465	1,108.89	83.5934
1,148.44	88.8989	1,148.44	84.8573	1,148.44	77.5261	1,148.44	84.2449
1,189.45	88.3275	1,189.45	84.2452	1,189.45	76.7727	1,189.45	83.6404
1,230.47	87.7926	1,230.47	83.8351	1,230.47	75.453	1,230.47	83.0678
1,274.41	86.7642	1,274.41	82.3649	1,274.41	74.9644	1,274.41	81.9518
1,319.82	85.9353	1,319.82	81.4861	1,319.82	73.6481	1,319.82	81.0586
1,366.7	85.2362	1,366.7	80.7691	1,366.7	72.0565	1,366.7	80.2759
1,413.57	84.1355	1,413.57	78.9499	1,413.57	70.4617	1,413.57	78.9249
1,463.38	83.9158	1,463.38	79.7206	1,463.38	69.7996	1,463.38	78.9758
1,516.11	86.0827	1,516.11	80.9559	1,516.11	71.2009	1,516.11	80.8089
1,568.85	86.1259	1,568.85	79.732	1,568.85	70.0773	1,568.85	80.4601
1,624.51	84.5014	1,624.51	78.4115	1,624.51	71.1675	1,624.51	79.0845
1,681.64	83.2176	1,681.64	78.1102	1,681.64	71.2253	1,681.64	78.18
1,741.7	83.8785	1,741.7	80.1835	1,741.7	75.1948	1,741.7	79.7279
1,803.22	79.7167	1,803.22	78.0867	1,803.22	72.0439	1,803.22	76.4881
1,866.21	83.0607	1,866.21	78.5626	1,866.21	67.4353	1,866.21	77.9391
1,932.13	83.3999	1,932.13	76.9309	1,932.13	66.6346	1,932.13	77.6844
1,999.51	82.3306	1,999.51	75.8038	1,999.51	67.9851	1,999.51	76.7343
2,069.82	82.6868	2,069.82	76.9057	2,069.82	69.3051	2,069.82	77.3414
2,143.07	83.2132	2,143.07	77.7919	2,143.07	70.2603	2,143.07	77.9975
2,219.24	83.9292	2,219.24	78.3406	2,219.24	70.7854	2,219.24	78.653
2,296.88	82.8464	2,296.88	77.7716	2,296.88	70.4898	2,296.88	77.7804
2,378.91	81.5434	2,378.91	77.7678	2,378.91	69.1734	2,378.91	76.877
2,462.4	81.7644	2,462.4	78.5774	2,462.4	70.6557	2,462.4	77.4309
2,548.83	81.7882	2,548.83	79.6403	2,548.83	70.9736	2,548.83	77.8905
2,639.65	80.3593	2,639.65	79.2594	2,639.65	71.1551	2,639.65	77.1122
2,731.93	79.1872	2,731.93	78.8848	2,731.93	70.5509	2,731.93	76.3953
2,828.61	79.1781	2,828.61	79.4112	2,828.61	70.3254	2,828.61	76.631
2,928.22	79.7993	2,928.22	79.2018	2,928.22	69.635	2,928.22	76.6776
3,030.76	81.2632	3,030.76	79.643	3,030.76	69.8196	3,030.76	77.5325
3,137.7	82.4174	3,137.7	80.4682	3,137.7	70.8636	3,137.7	78.5312
3,249.02	83.2736	3,249.02	81.0018	3,249.02	71.3844	3,249.02	79.2201
3,363.28	83.7303	3,363.28	80.7391	3,363.28	70.6581	3,363.28	79.2928
3,481.93	83.9164	3,481.93	80.826	3,481.93	70.8678	3,481.93	79.4425
3,604.98	85.0605	3,604.98	81.3697	3,604.98	71.4818	3,604.98	80.3283
3,732.42	84.6573	3,732.42	81.7611	3,732.42	71.4366	3,732.42	80.2465
3,864.26	83.1453	3,864.26	82.1604	3,864.26	72.6805	3,864.26	79.8037
4,000.49	83.7926	4,000.49	83.2867	4,000.49	73.2456	4,000.49	80.6787
4,141.11	83.4334	4,141.11	83.4372	4,141.11	73.3341	4,141.11	80.6271
4,287.6	83.9731	4,287.6	83.1635	4,287.6	72.3702	4,287.6	80.6145
4,438.48	83.329	4,438.48	82.4994	4,438.48	72.352	4,438.48	80.0135
4,595.21	84.4965	4,595.21	83.3841	4,595.21	72.4019	4,595.21	80.9511
4,756.35	84.0061	4,756.35	83.0791	4,756.35	71.6316	4,756.35	80.5322
4,924.8	84.2898	4,924.8	82.8087	4,924.8	70.9708	4,924.8	80.4863
5,097.66	84.5457	5,097.66	83.1212	5,097.66	71.0284	5,097.66	80.7577
5,277.83	84.6079	5,277.83	82.8956	5,277.83	70.387	5,277.83	80.6467
5,463.87	83.264	5,463.87	82.3486	5,463.87	69.7523	5,463.87	79.7275
5,657.23	84.3724	5,657.23	82.2862	5,657.23	69.5997	5,657.23	80.214
5,856.45	84.3522	5,856.45	81.9919	5,856.45	69.7507	5,856.45	80.0815
6,062.99	84.7195	6,062.99	81.8466	6,062.99	69.4281	6,062.99	80.2022
6,276.86	84.8375	6,276.86	82.0097	6,276.86	69.7414	6,276.86	80.3473
6,498.05	84.6456	6,498.05	81.8333	6,498.05	69.1567	6,498.05	80.1445
6,726.56	84.9561	6,726.56	81.9338	6,726.56	69.4311	6,726.56	80.3686
6,963.87	84.3834	6,963.87	81.1209	6,963.87	68.2432	6,963.87	79.6769
7,209.96	84.8522	7,209.96	81.455	7,209.96	68.1362	7,209.96	80.0732
7,464.84	83.9897	7,464.84	80.5087	7,464.84	67.6556	7,464.84	79.1925
7,727.05	83.9593	7,727.05	80.6718	7,727.05	67.6323	7,727.05	79.2361
7,999.51	83.3471	7,999.51	79.8633	7,999.51	67.0193	7,999.51	78.5491
8,282.23	83.2401	8,282.23	80.0483	8,282.23	67.2225	8,282.23	78.5657
8,573.73	83.9159	8,573.73	80.012	8,573.73	66.51	8,573.73	78.9278
8,876.95	85.8483	8,876.95	80.4052	8,876.95	65.0764	8,876.95	80.2916
9,188.96	86.9746	9,188.96	80.2487	9,188.96	62.8583	9,188.96	81.049
9,514.16	86.9698	9,514.16	79.5433	9,514.16	62.0655	9,514.16	80.8861
9,849.61	87.0756	9,849.61	79.5826	9,849.61	61.9764	9,849.61	80.977
10,196.8	86.8904	10,196.8	79.0407	10,196.8	61.8846	10,196.8	80.723
10,555.7	86.5195	10,555.7	78.3977	10,555.7	60.6141	10,555.7	80.2963
10,927.7	86.3037	10,927.7	77.8865	10,927.7	59.8719	10,927.7	80.0261
11,313	86.1481	11,313	77.052	11,313	58.7047	11,313	79.7578
11,712.9	85.5747	11,712.9	75.4243	11,712.9	57.843	11,712.9	79.0415
12,126	85.2178	12,126	74.9344	12,126	59.1051	12,126	78.6766
12,553.7	85.7977	12,553.7	75.5005	12,553.7	59.6527	12,553.7	79.2547
12,996.1	86.4048	12,996.1	75.4876	12,996.1	60.7293	12,996.1	79.7966
13,454.6	86.1531	13,454.6	74.556	13,454.6	61.2802	13,454.6	79.4855
13,929.2	85.7024	13,929.2	74.0665	13,929.2	61.7728	13,929.2	79.0397
14,419.9	85.2512	14,419.9	74.6028	14,419.9	62.5942	14,419.9	78.6997
14,928.2	85.239	14,928.2	75.4499	14,928.2	62.2976	14,928.2	78.7855
15,455.6	85.8299	15,455.6	75.909	15,455.6	62.1697	15,455.6	79.3518
16,000.5	85.8705	16,000.5	75.5848	16,000.5	61.7605	16,000.5	79.3438
16,564.5	85.0673	16,564.5	74.8461	16,564.5	60.2806	16,564.5	78.5425
17,148.9	83.9349	17,148.9	73.5654	17,148.9	57.9338	17,148.9	77.3843
17,752.4	82.0604	17,752.4	71.502	17,752.4	54.9554	17,752.4	75.4827
18,379.4	80.6474	18,379.4	70.4149	18,379.4	54.0137	18,379.4	74.1093
19,026.9	80.6527	19,026.9	70.3612	19,026.9	54.4328	19,026.9	74.1099
19,697.8	80.0871	19,697.8	69.3697	19,697.8	54.0041	19,697.8	73.4973
19,999.5	79.6355	19,999.5	68.8567	19,999.5	54.0775	19,999.5	73.0425
