"SPL Vertical"																																																																							
"On-Axis"		"10°"		"-10°"		"20°"		"-20°"		"30°"		"-30°"		"40°"		"-40°"		"50°"		"-50°"		"60°"		"-60°"		"70°"		"-70°"		"80°"		"-80°"		"90°"		"-90°"		"100°"		"-100°"		"110°"		"-110°"		"120°"		"-120°"		"130°"		"-130°"		"140°"		"-140°"		"150°"		"-150°"		"160°"		"-160°"		"170°"		"-170°"		"180°"	
"Frequency [Hz]"	"Sound Pessure Level [dB]  / [2.83V 1m] "	"Frequency [Hz]"	"Sound Pessure Level [dB]  / [2.83V 1m] "	"Frequency [Hz]"	"Sound Pessure Level [dB]  / [2.83V 1m] "	"Frequency [Hz]"	"Sound Pessure Level [dB]  / [2.83V 1m] "	"Frequency [Hz]"	"Sound Pessure Level [dB]  / [2.83V 1m] "	"Frequency [Hz]"	"Sound Pessure Level [dB]  / [2.83V 1m] "	"Frequency [Hz]"	"Sound Pessure Level [dB]  / [2.83V 1m] "	"Frequency [Hz]"	"Sound Pessure Level [dB]  / [2.83V 1m] "	"Frequency [Hz]"	"Sound Pessure Level [dB]  / [2.83V 1m] "	"Frequency [Hz]"	"Sound Pessure Level [dB]  / [2.83V 1m] "	"Frequency [Hz]"	"Sound Pessure Level [dB]  / [2.83V 1m] "	"Frequency [Hz]"	"Sound Pessure Level [dB]  / [2.83V 1m] "	"Frequency [Hz]"	"Sound Pessure Level [dB]  / [2.83V 1m] "	"Frequency [Hz]"	"Sound Pessure Level [dB]  / [2.83V 1m] "	"Frequency [Hz]"	"Sound Pessure Level [dB]  / [2.83V 1m] "	"Frequency [Hz]"	"Sound Pessure Level [dB]  / [2.83V 1m] "	"Frequency [Hz]"	"Sound Pessure Level [dB]  / [2.83V 1m] "	"Frequency [Hz]"	"Sound Pessure Level [dB]  / [2.83V 1m] "	"Frequency [Hz]"	"Sound Pessure Level [dB]  / [2.83V 1m] "	"Frequency [Hz]"	"Sound Pessure Level [dB]  / [2.83V 1m] "	"Frequency [Hz]"	"Sound Pessure Level [dB]  / [2.83V 1m] "	"Frequency [Hz]"	"Sound Pessure Level [dB]  / [2.83V 1m] "	"Frequency [Hz]"	"Sound Pessure Level [dB]  / [2.83V 1m] "	"Frequency [Hz]"	"Sound Pessure Level [dB]  / [2.83V 1m] "	"Frequency [Hz]"	"Sound Pessure Level [dB]  / [2.83V 1m] "	"Frequency [Hz]"	"Sound Pessure Level [dB]  / [2.83V 1m] "	"Frequency [Hz]"	"Sound Pessure Level [dB]  / [2.83V 1m] "	"Frequency [Hz]"	"Sound Pessure Level [dB]  / [2.83V 1m] "	"Frequency [Hz]"	"Sound Pessure Level [dB]  / [2.83V 1m] "	"Frequency [Hz]"	"Sound Pessure Level [dB]  / [2.83V 1m] "	"Frequency [Hz]"	"Sound Pessure Level [dB]  / [2.83V 1m] "	"Frequency [Hz]"	"Sound Pessure Level [dB]  / [2.83V 1m] "	"Frequency [Hz]"	"Sound Pessure Level [dB]  / [2.83V 1m] "	"Frequency [Hz]"	"Sound Pessure Level [dB]  / [2.83V 1m] "	"Frequency [Hz]"	"Sound Pessure Level [dB]  / [2.83V 1m] "	"Frequency [Hz]"	"Sound Pessure Level [dB]  / [2.83V 1m] "
20.5078	34.4751	20.5078	36.1351	20.5078	32.2559	20.5078	37.3037	20.5078	29.816	20.5078	38.0711	20.5078	29.0702	20.5078	38.5007	20.5078	31.2119	20.5078	38.6301	20.5078	33.9674	20.5078	38.4763	20.5078	36.2349	20.5078	38.0368	20.5078	37.9515	20.5078	37.2889	20.5078	39.2131	20.5078	36.1825	20.5078	40.1069	20.5078	34.6278	20.5078	40.6964	20.5078	32.4744	20.5078	41.0265	20.5078	29.5295	20.5078	41.1278	20.5078	26.1863	20.5078	41.0181	20.5078	26.1057	20.5078	40.7031	20.5078	29.5918	20.5078	40.1759	20.5078	32.7958	20.5078	39.4154	20.5078	35.2052	20.5078	38.3825	20.5078	37.0134
21.9727	46.7682	21.9727	47.2036	21.9727	46.2348	21.9727	47.5401	21.9727	45.6088	21.9727	47.7795	21.9727	44.9016	21.9727	47.9248	21.9727	44.1339	21.9727	47.9796	21.9727	43.3366	21.9727	47.9473	21.9727	42.5496	21.9727	47.8313	21.9727	41.8171	21.9727	47.6344	21.9727	41.178	21.9727	47.3594	21.9727	40.6576	21.9727	47.0087	21.9727	40.2654	21.9727	46.5849	21.9727	40.0027	21.9727	46.0913	21.9727	39.8724	21.9727	45.5325	21.9727	39.8842	21.9727	44.9146	21.9727	40.0505	21.9727	44.2471	21.9727	40.3756	21.9727	43.5432	21.9727	40.8477	21.9727	42.822	21.9727	41.4383	21.9727	42.1092
23.4375	48.3949	23.4375	48.6589	23.4375	48.0909	23.4375	48.873	23.4375	47.7595	23.4375	49.0303	23.4375	47.4154	23.4375	49.1262	23.4375	47.0725	23.4375	49.1585	23.4375	46.742	23.4375	49.1261	23.4375	46.4291	23.4375	49.0293	23.4375	46.1328	23.4375	48.869	23.4375	45.8478	23.4375	48.6471	23.4375	45.5684	23.4375	48.3664	23.4375	45.2935	23.4375	48.031	23.4375	45.0295	23.4375	47.6467	23.4375	44.7917	23.4375	47.222	23.4375	44.6021	23.4375	46.7687	23.4375	44.4854	23.4375	46.3022	23.4375	44.4633	23.4375	45.8424	23.4375	44.5489	23.4375	45.4126	23.4375	44.7441	23.4375	45.0384
24.9023	50.923	24.9023	51.1346	24.9023	50.6971	24.9023	51.3221	24.9023	50.4682	24.9023	51.4774	24.9023	50.247	24.9023	51.5951	24.9023	50.0418	24.9023	51.6715	24.9023	49.8569	24.9023	51.7051	24.9023	49.6914	24.9023	51.6953	24.9023	49.5412	24.9023	51.6429	24.9023	49.4008	24.9023	51.5493	24.9023	49.2671	24.9023	51.4167	24.9023	49.1418	24.9023	51.248	24.9023	49.0319	24.9023	51.047	24.9023	48.9493	24.9023	50.8181	24.9023	48.9072	24.9023	50.5672	24.9023	48.9171	24.9023	50.3015	24.9023	48.9853	24.9023	50.0298	24.9023	49.112	24.9023	49.7626	24.9023	49.291	24.9023	49.5121
26.3672	52.6969	26.3672	52.8419	26.3672	52.5499	26.3672	52.9757	26.3672	52.4106	26.3672	53.0906	26.3672	52.2878	26.3672	53.1811	26.3672	52.1873	26.3672	53.2438	26.3672	52.1107	26.3672	53.277	26.3672	52.0552	26.3672	53.2806	26.3672	52.0146	26.3672	53.2559	26.3672	51.9821	26.3672	53.2049	26.3672	51.9521	26.3672	53.1305	26.3672	51.9226	26.3672	53.0362	26.3672	51.8954	26.3672	52.9257	26.3672	51.8756	26.3672	52.8032	26.3672	51.8694	26.3672	52.6729	26.3672	51.8825	26.3672	52.5392	26.3672	51.9187	26.3672	52.4067	26.3672	51.9788	26.3672	52.2797	26.3672	52.0613	26.3672	52.1631
27.832	54.8628	27.832	54.9645	27.832	54.7624	27.832	55.0598	27.832	54.6707	27.832	55.1423	27.832	54.5942	27.832	55.2071	27.832	54.5364	27.832	55.2509	27.832	54.4977	27.832	55.2722	27.832	54.475	27.832	55.2707	27.832	54.4628	27.832	55.2474	27.832	54.455	27.832	55.2045	27.832	54.4468	27.832	55.1445	27.832	54.4356	27.832	55.071	27.832	54.4217	27.832	54.9876	27.832	54.4075	27.832	54.8985	27.832	54.3967	27.832	54.8078	27.832	54.3932	27.832	54.7195	27.832	54.4003	27.832	54.6371	27.832	54.4203	27.832	54.564	27.832	54.4543	27.832	54.5025
29.2969	57.2464	29.2969	57.3118	29.2969	57.1772	29.2969	57.3679	29.2969	57.1096	29.2969	57.4104	29.2969	57.0482	29.2969	57.436	29.2969	56.9962	29.2969	57.4426	29.2969	56.9544	29.2969	57.4297	29.2969	56.9212	29.2969	57.3977	29.2969	56.8935	29.2969	57.3483	29.2969	56.8672	29.2969	57.2839	29.2969	56.839	29.2969	57.2076	29.2969	56.8072	29.2969	57.1233	29.2969	56.7717	29.2969	57.0351	29.2969	56.7344	29.2969	56.9474	29.2969	56.6982	29.2969	56.8644	29.2969	56.6666	29.2969	56.7901	29.2969	56.643	29.2969	56.7278	29.2969	56.6305	29.2969	56.6799	29.2969	56.6315	29.2969	56.6477
30.7617	59.1921	30.7617	59.2016	30.7617	59.1782	30.7617	59.2043	30.7617	59.1623	30.7617	59.1978	30.7617	59.1458	30.7617	59.1803	30.7617	59.1289	30.7617	59.1505	30.7617	59.1104	30.7617	59.1082	30.7617	59.0878	30.7617	59.0537	30.7617	59.058	30.7617	58.9882	30.7617	59.0179	30.7617	58.9138	30.7617	58.9654	30.7617	58.833	30.7617	58.9004	30.7617	58.7491	30.7617	58.8246	30.7617	58.6655	30.7617	58.7418	30.7617	58.5864	30.7617	58.657	30.7617	58.5157	30.7617	58.576	30.7617	58.4575	30.7617	58.5043	30.7617	58.4152	30.7617	58.447	30.7617	58.3918	30.7617	58.4078	30.7617	58.3891
32.2266	60.7715	32.2266	60.7642	32.2266	60.7761	32.2266	60.7528	32.2266	60.7787	32.2266	60.7357	32.2266	60.7793	32.2266	60.7118	32.2266	60.7769	32.2266	60.68	32.2266	60.7694	32.2266	60.6401	32.2266	60.754	32.2266	60.5923	32.2266	60.728	32.2266	60.5373	32.2266	60.6891	32.2266	60.4767	32.2266	60.6366	32.2266	60.4123	32.2266	60.5713	32.2266	60.3465	32.2266	60.4961	32.2266	60.2818	32.2266	60.415	32.2266	60.2212	32.2266	60.3333	32.2266	60.1676	32.2266	60.2564	32.2266	60.124	32.2266	60.1891	32.2266	60.0933	32.2266	60.1355	32.2266	60.0777	32.2266	60.0984	32.2266	60.079
33.6914	62.4882	33.6914	62.4761	33.6914	62.4982	33.6914	62.461	33.6914	62.5067	33.6914	62.4418	33.6914	62.5132	33.6914	62.4175	33.6914	62.5165	33.6914	62.3875	33.6914	62.5146	33.6914	62.3515	33.6914	62.5047	33.6914	62.3099	33.6914	62.4843	33.6914	62.2634	33.6914	62.4515	33.6914	62.2132	33.6914	62.4055	33.6914	62.1608	33.6914	62.3476	33.6914	62.1082	33.6914	62.2805	33.6914	62.0574	33.6914	62.2084	33.6914	62.0106	33.6914	62.136	33.6914	61.9701	33.6914	62.0683	33.6914	61.9379	33.6914	62.0093	33.6914	61.9162	33.6914	61.9623	33.6914	61.9066	33.6914	61.9291	33.6914	61.9106
35.1562	63.9454	35.1562	63.9146	35.1562	63.9743	35.1562	63.8812	35.1562	64.0012	35.1562	63.8449	35.1562	64.0257	35.1562	63.8051	35.1562	64.0462	35.1562	63.7616	35.1562	64.0607	35.1562	63.7147	35.1562	64.0666	35.1562	63.6651	35.1562	64.0613	35.1562	63.6139	35.1562	64.0425	35.1562	63.5627	35.1562	64.0094	35.1562	63.5136	35.1562	63.9621	35.1562	63.4685	35.1562	63.9024	35.1562	63.4298	35.1562	63.8333	35.1562	63.3997	35.1562	63.7584	35.1562	63.3802	35.1562	63.682	35.1562	63.373	35.1562	63.608	35.1562	63.3793	35.1562	63.5401	35.1562	63.3997	35.1562	63.4813	35.1562	63.4339
36.6211	65.6622	36.6211	65.6235	36.6211	65.6973	36.6211	65.5815	36.6211	65.7282	36.6211	65.5365	36.6211	65.7539	36.6211	65.4885	36.6211	65.7727	36.6211	65.4379	36.6211	65.7827	36.6211	65.3855	36.6211	65.7816	36.6211	65.332	36.6211	65.7674	36.6211	65.2786	36.6211	65.7386	36.6211	65.2269	36.6211	65.6951	36.6211	65.1783	36.6211	65.6379	36.6211	65.1347	36.6211	65.5694	36.6211	65.0977	36.6211	65.493	36.6211	65.069	36.6211	65.4132	36.6211	65.0502	36.6211	65.3342	36.6211	65.0426	36.6211	65.26	36.6211	65.0471	36.6211	65.1939	36.6211	65.0644	36.6211	65.1384	36.6211	65.0949
38.0859	67.0207	38.0859	66.9725	38.0859	67.0641	38.0859	66.9203	38.0859	67.1017	38.0859	66.8648	38.0859	67.1321	38.0859	66.8066	38.0859	67.1537	38.0859	66.7465	38.0859	67.1645	38.0859	66.6855	38.0859	67.1624	38.0859	66.6246	38.0859	67.1458	38.0859	66.5654	38.0859	67.1135	38.0859	66.5094	38.0859	67.0657	38.0859	66.4582	38.0859	67.0036	38.0859	66.4136	38.0859	66.9296	38.0859	66.3774	38.0859	66.8475	38.0859	66.3511	38.0859	66.7614	38.0859	66.3361	38.0859	66.6756	38.0859	66.3335	38.0859	66.5943	38.0859	66.3442	38.0859	66.5207	38.0859	66.3685	38.0859	66.4575	38.0859	66.4064
39.5508	68.3578	39.5508	68.2998	39.5508	68.4116	39.5508	68.2385	39.5508	68.4595	39.5508	68.1751	39.5508	68.5001	39.5508	68.1105	39.5508	68.5312	39.5508	68.0456	39.5508	68.5508	39.5508	67.9817	39.5508	68.5566	39.5508	67.9199	39.5508	68.5471	39.5508	67.8617	39.5508	68.521	39.5508	67.8086	39.5508	68.4786	39.5508	67.7623	39.5508	68.4209	39.5508	67.7244	39.5508	68.3503	39.5508	67.6965	39.5508	68.2701	39.5508	67.6801	39.5508	68.184	39.5508	67.6761	39.5508	68.0961	39.5508	67.6856	39.5508	68.0102	39.5508	67.7088	39.5508	67.9297	39.5508	67.7456	39.5508	67.8574	39.5508	67.7955
41.0156	69.3787	41.0156	69.3111	41.0156	69.4422	41.0156	69.2411	41.0156	69.5	41.0156	69.1704	41.0156	69.5499	41.0156	69.1005	41.0156	69.59	41.0156	69.0329	41.0156	69.618	41.0156	68.9693	41.0156	69.6322	41.0156	68.9114	41.0156	69.6311	41.0156	68.861	41.0156	69.6143	41.0156	68.8197	41.0156	69.5823	41.0156	68.789	41.0156	69.5366	41.0156	68.7702	41.0156	69.4796	41.0156	68.7641	41.0156	69.414	41.0156	68.7711	41.0156	69.3428	41.0156	68.791	41.0156	69.2684	41.0156	68.8233	41.0156	69.1932	41.0156	68.8666	41.0156	69.119	41.0156	68.9196	41.0156	69.0476	41.0156	68.9805
42.4805	70.6165	42.4805	70.5408	42.4805	70.6839	42.4805	70.4586	42.4805	70.7411	42.4805	70.3717	42.4805	70.7861	42.4805	70.282	42.4805	70.817	42.4805	70.1911	42.4805	70.8316	42.4805	70.1012	42.4805	70.8284	42.4805	70.0142	42.4805	70.806	42.4805	69.9322	42.4805	70.7639	42.4805	69.8575	42.4805	70.7028	42.4805	69.7923	42.4805	70.6242	42.4805	69.7388	42.4805	70.531	42.4805	69.699	42.4805	70.4268	42.4805	69.6746	42.4805	70.3161	42.4805	69.6672	42.4805	70.2034	42.4805	69.6776	42.4805	70.0933	42.4805	69.7063	42.4805	69.9899	42.4805	69.7531	42.4805	69.8969	42.4805	69.8172
43.9453	71.8086	43.9453	71.7284	43.9453	71.8811	43.9453	71.6425	43.9453	71.9437	43.9453	71.5529	43.9453	71.9941	43.9453	71.4616	43.9453	72.0301	43.9453	71.3705	43.9453	72.0497	43.9453	71.2817	43.9453	72.0509	43.9453	71.1971	43.9453	72.0326	43.9453	71.1187	43.9453	71.9944	43.9453	71.0488	43.9453	71.9367	43.9453	70.9891	43.9453	71.8612	43.9453	70.9417	43.9453	71.7707	43.9453	70.9083	43.9453	71.6688	43.9453	70.8904	43.9453	71.5597	43.9453	70.8891	43.9453	71.4479	43.9453	70.9052	43.9453	71.3379	43.9453	70.9389	43.9453	71.2338	43.9453	70.9899	43.9453	71.1393	43.9453	71.0572
45.4102	72.8973	45.4102	72.8166	45.4102	72.9703	45.4102	72.7303	45.4102	73.0334	45.4102	72.6406	45.4102	73.0846	45.4102	72.5496	45.4102	73.1218	45.4102	72.4595	45.4102	73.1431	45.4102	72.3725	45.4102	73.1471	45.4102	72.2907	45.4102	73.1328	45.4102	72.2164	45.4102	73.0998	45.4102	72.1517	45.4102	73.0488	45.4102	72.0985	45.4102	72.9812	45.4102	72.0587	45.4102	72.8995	45.4102	72.0337	45.4102	72.8068	45.4102	72.0247	45.4102	72.7067	45.4102	72.0322	45.4102	72.603	45.4102	72.0566	45.4102	72.4995	45.4102	72.0974	45.4102	72.3998	45.4102	72.1538	45.4102	72.3071	45.4102	72.2243
46.875	73.9798	46.875	73.8956	46.875	74.0551	46.875	73.8048	46.875	74.1191	46.875	73.7097	46.875	74.1698	46.875	73.6127	46.875	74.2052	46.875	73.5163	46.875	74.2235	46.875	73.4227	46.875	74.2234	46.875	73.3346	46.875	74.2043	46.875	73.2542	46.875	74.1661	46.875	73.1838	46.875	74.1097	46.875	73.1257	46.875	74.0368	46.875	73.0817	46.875	73.9499	46.875	73.0534	46.875	73.8521	46.875	73.042	46.875	73.7472	46.875	73.0482	46.875	73.6389	46.875	73.0723	46.875	73.5311	46.875	73.1138	46.875	73.4273	46.875	73.1719	46.875	73.3309	46.875	73.2449
48.3398	74.9833	48.3398	74.8947	48.3398	75.0626	48.3398	74.7993	48.3398	75.1302	48.3398	74.6997	48.3398	75.1839	48.3398	74.5985	48.3398	75.2213	48.3398	74.4982	48.3398	75.2409	48.3398	74.4014	48.3398	75.2413	48.3398	74.3105	48.3398	75.2218	48.3398	74.2282	48.3398	75.1826	48.3398	74.1565	48.3398	75.1245	48.3398	74.0978	48.3398	75.0494	48.3398	74.0538	48.3398	74.9599	48.3398	74.0261	48.3398	74.8592	48.3398	74.0158	48.3398	74.751	48.3398	74.0237	48.3398	74.6391	48.3398	74.0498	48.3398	74.5276	48.3398	74.0937	48.3398	74.4201	48.3398	74.1546	48.3398	74.3201	48.3398	74.2307
51.2695	76.6284	51.2695	76.5353	51.2695	76.7116	51.2695	76.435	51.2695	76.7824	51.2695	76.3303	51.2695	76.8382	51.2695	76.2241	51.2695	76.8772	51.2695	76.1192	51.2695	76.8976	51.2695	76.0186	51.2695	76.8984	51.2695	75.9249	51.2695	76.8791	51.2695	75.8408	51.2695	76.84	51.2695	75.7687	51.2695	76.7823	51.2695	75.7108	51.2695	76.7078	51.2695	75.669	51.2695	76.619	51.2695	75.6447	51.2695	76.5191	51.2695	75.6388	51.2695	76.4113	51.2695	75.6518	51.2695	76.2993	51.2695	75.6835	51.2695	76.1867	51.2695	75.7332	51.2695	76.0772	51.2695	75.7996	51.2695	75.9741	51.2695	75.8806
52.7344	77.3889	52.7344	77.2934	52.7344	77.4742	52.7344	77.1903	52.7344	77.5465	52.7344	77.0827	52.7344	77.6033	52.7344	76.9735	52.7344	77.6426	52.7344	76.8659	52.7344	77.6628	52.7344	76.7628	52.7344	77.6628	52.7344	76.667	52.7344	77.6422	52.7344	76.5813	52.7344	77.6017	52.7344	76.5083	52.7344	77.5423	52.7344	76.4501	52.7344	77.4661	52.7344	76.4085	52.7344	77.3758	52.7344	76.385	52.7344	77.2745	52.7344	76.3804	52.7344	77.1656	52.7344	76.395	52.7344	77.0528	52.7344	76.4284	52.7344	76.9394	52.7344	76.4799	52.7344	76.8291	52.7344	76.5479	52.7344	76.7251	52.7344	76.6304
54.1992	78.0585	54.1992	77.9623	54.1992	78.1441	54.1992	77.8584	54.1992	78.2164	54.1992	77.7498	54.1992	78.2728	54.1992	77.6397	54.1992	78.3115	54.1992	77.5312	54.1992	78.3307	54.1992	77.4274	54.1992	78.3296	54.1992	77.3312	54.1992	78.308	54.1992	77.2454	54.1992	78.2666	54.1992	77.1725	54.1992	78.2067	54.1992	77.1148	54.1992	78.1303	54.1992	77.074	54.1992	78.0403	54.1992	77.0514	54.1992	77.9397	54.1992	77.0479	54.1992	77.8319	54.1992	77.0636	54.1992	77.7201	54.1992	77.098	54.1992	77.608	54.1992	77.1502	54.1992	77.4987	54.1992	77.2185	54.1992	77.3954	54.1992	77.3011
55.6641	78.6772	55.6641	78.5781	55.6641	78.7651	55.6641	78.4708	55.6641	78.839	55.6641	78.3586	55.6641	78.8963	55.6641	78.2448	55.6641	78.9349	55.6641	78.1327	55.6641	78.9533	55.6641	78.0254	55.6641	78.9507	55.6641	77.9261	55.6641	78.9269	55.6641	77.8376	55.6641	78.8828	55.6641	77.7625	55.6641	78.8199	55.6641	77.7031	55.6641	78.7405	55.6641	77.6611	55.6641	78.6473	55.6641	77.6379	55.6641	78.5436	55.6641	77.6341	55.6641	78.4328	55.6641	77.6499	55.6641	78.3184	55.6641	77.6849	55.6641	78.2038	55.6641	77.7379	55.6641	78.0923	55.6641	77.8073	55.6641	77.9871	55.6641	77.8912
58.5938	79.7021	58.5938	79.5992	58.5938	79.7931	58.5938	79.4878	58.5938	79.8695	58.5938	79.3714	58.5938	79.9284	58.5938	79.2533	58.5938	79.9679	58.5938	79.1372	58.5938	79.9865	58.5938	79.0263	58.5938	79.9834	58.5938	78.9241	58.5938	79.9587	58.5938	78.8335	58.5938	79.9133	58.5938	78.757	58.5938	79.8489	58.5938	78.6971	58.5938	79.7678	58.5938	78.6555	58.5938	79.673	58.5938	78.6333	58.5938	79.5675	58.5938	78.6312	58.5938	79.4549	58.5938	78.6492	58.5938	79.3386	58.5938	78.6867	58.5938	79.2218	58.5938	78.7424	58.5938	79.1079	58.5938	78.8147	58.5938	79.0001	58.5938	78.9015
60.0586	80.1045	60.0586	79.9988	60.0586	80.1983	60.0586	79.8848	60.0586	80.2773	60.0586	79.7658	60.0586	80.3387	60.0586	79.6455	60.0586	80.3804	60.0586	79.5277	60.0586	80.4011	60.0586	79.4158	60.0586	80.3999	60.0586	79.3133	60.0586	80.377	60.0586	79.2232	60.0586	80.3334	60.0586	79.1483	60.0586	80.2709	60.0586	79.0908	60.0586	80.1916	60.0586	79.0523	60.0586	80.0986	60.0586	79.034	60.0586	79.9948	60.0586	79.0363	60.0586	79.8835	60.0586	79.0589	60.0586	79.768	60.0586	79.101	60.0586	79.6515	60.0586	79.161	60.0586	79.537	60.0586	79.2371	60.0586	79.4279	60.0586	79.327
62.9883	80.8407	62.9883	80.7322	62.9883	80.9365	62.9883	80.6145	62.9883	81.0164	62.9883	80.4914	62.9883	81.0777	62.9883	80.3667	62.9883	81.1183	62.9883	80.2443	62.9883	81.1369	62.9883	80.128	62.9883	81.1331	62.9883	80.0215	62.9883	81.107	62.9883	79.9278	62.9883	81.0601	62.9883	79.85	62.9883	80.9943	62.9883	79.7904	62.9883	80.9121	62.9883	79.7506	62.9883	80.8166	62.9883	79.7318	62.9883	80.7109	62.9883	79.7344	62.9883	80.598	62.9883	79.7579	62.9883	80.481	62.9883	79.8014	62.9883	80.3631	62.9883	79.8633	62.9883	80.2471	62.9883	79.9415	62.9883	80.1362	62.9883	80.0333
64.4531	81.086	64.4531	80.9759	64.4531	81.183	64.4531	80.8564	64.4531	81.2639	64.4531	80.7313	64.4531	81.3257	64.4531	80.6046	64.4531	81.3665	64.4531	80.4804	64.4531	81.385	64.4531	80.3624	64.4531	81.3806	64.4531	80.2544	64.4531	81.3538	64.4531	80.1597	64.4531	81.306	64.4531	80.0813	64.4531	81.2392	64.4531	80.0215	64.4531	81.1562	64.4531	79.982	64.4531	81.06	64.4531	79.9638	64.4531	80.9536	64.4531	79.9673	64.4531	80.8402	64.4531	79.9921	64.4531	80.7228	64.4531	80.0369	64.4531	80.6044	64.4531	80.1001	64.4531	80.4879	64.4531	80.1795	64.4531	80.3763	64.4531	80.2725
67.3828	81.4957	67.3828	81.3833	67.3828	81.5946	67.3828	81.2612	67.3828	81.6768	67.3828	81.1333	67.3828	81.7395	67.3828	81.0039	67.3828	81.7806	67.3828	80.877	67.3828	81.7989	67.3828	80.7567	67.3828	81.794	67.3828	80.6468	67.3828	81.7664	67.3828	80.5508	67.3828	81.7176	67.3828	80.4717	67.3828	81.6497	67.3828	80.4118	67.3828	81.5655	67.3828	80.3727	67.3828	81.468	67.3828	80.3556	67.3828	81.3604	67.3828	80.3604	67.3828	81.2459	67.3828	80.3866	67.3828	81.1275	67.3828	80.433	67.3828	81.008	67.3828	80.4978	67.3828	80.8905	67.3828	80.5786	67.3828	80.7779	67.3828	80.6729
68.8477	81.6398	68.8477	81.5259	68.8477	81.7398	68.8477	81.402	68.8477	81.8226	68.8477	81.2721	68.8477	81.8855	68.8477	81.1405	68.8477	81.9265	68.8477	81.0116	68.8477	81.9446	68.8477	80.8895	68.8477	81.9394	68.8477	80.7784	68.8477	81.9118	68.8477	80.6817	68.8477	81.8633	68.8477	80.6026	68.8477	81.7962	68.8477	80.5434	68.8477	81.7133	68.8477	80.5059	68.8477	81.6174	68.8477	80.4908	68.8477	81.5116	68.8477	80.4983	68.8477	81.3988	68.8477	80.5275	68.8477	81.2816	68.8477	80.5771	68.8477	81.1629	68.8477	80.645	68.8477	81.0454	68.8477	80.7287	68.8477	80.9319	68.8477	80.8253
71.7773	82.0838	71.7773	81.9682	71.7773	82.1847	71.7773	81.8419	71.7773	82.2675	71.7773	81.709	71.7773	82.3295	71.7773	81.5742	71.7773	82.369	71.7773	81.442	71.7773	82.3851	71.7773	81.3168	71.7773	82.3778	71.7773	81.2029	71.7773	82.3482	71.7773	81.1042	71.7773	82.2982	71.7773	81.0238	71.7773	82.2303	71.7773	80.9643	71.7773	82.1473	71.7773	80.9274	71.7773	82.0522	71.7773	80.9138	71.7773	81.9478	71.7773	80.9236	71.7773	81.8366	71.7773	80.9557	71.7773	81.721	71.7773	81.0084	71.7773	81.6034	71.7773	81.0794	71.7773	81.4864	71.7773	81.1658	71.7773	81.3724	71.7773	81.2645
74.707	82.4585	74.707	82.341	74.707	82.5608	74.707	82.2123	74.707	82.6444	74.707	82.0769	74.707	82.7066	74.707	81.9396	74.707	82.7454	74.707	81.805	74.707	82.7601	74.707	81.6778	74.707	82.7508	74.707	81.5623	74.707	82.7187	74.707	81.4625	74.707	82.6659	74.707	81.3815	74.707	82.5951	74.707	81.3218	74.707	82.5094	74.707	81.2852	74.707	82.412	74.707	81.2721	74.707	82.3058	74.707	81.2825	74.707	82.1934	74.707	81.3152	74.707	82.0774	74.707	81.3683	74.707	81.9601	74.707	81.4394	74.707	81.8437	74.707	81.5255	74.707	81.7306	74.707	81.6236
77.6367	82.6878	77.6367	82.565	77.6367	82.794	77.6367	82.4299	77.6367	82.8798	77.6367	82.2873	77.6367	82.9423	77.6367	82.1421	77.6367	82.9795	77.6367	81.9994	77.6367	82.9905	77.6367	81.8642	77.6367	82.9757	77.6367	81.741	77.6367	82.9365	77.6367	81.6339	77.6367	82.8755	77.6367	81.5465	77.6367	82.7959	77.6367	81.4814	77.6367	82.7015	77.6367	81.4403	77.6367	82.5958	77.6367	81.424	77.6367	82.4823	77.6367	81.4321	77.6367	82.3637	77.6367	81.4637	77.6367	82.2425	77.6367	81.5166	77.6367	82.1208	77.6367	81.5882	77.6367	82.0009	77.6367	81.6756	77.6367	81.8849	77.6367	81.7755
79.1016	82.87	79.1016	82.7447	79.1016	82.978	79.1016	82.6065	79.1016	83.0648	79.1016	82.4602	79.1016	83.1274	79.1016	82.3109	79.1016	83.1634	79.1016	82.1637	79.1016	83.1721	79.1016	82.0233	79.1016	83.1535	79.1016	81.8946	79.1016	83.109	79.1016	81.7816	79.1016	83.0414	79.1016	81.6878	79.1016	82.9539	79.1016	81.616	79.1016	82.8506	79.1016	81.5682	79.1016	82.7355	79.1016	81.5452	79.1016	82.6125	79.1016	81.5471	79.1016	82.485	79.1016	81.573	79.1016	82.356	79.1016	81.6212	79.1016	82.2279	79.1016	81.6893	79.1016	82.1032	79.1016	81.7745	79.1016	81.9843	79.1016	81.8738
82.0312	83.1164	82.0312	82.9905	82.0312	83.2265	82.0312	82.8533	82.0312	83.3168	82.0312	82.7099	82.0312	83.3842	82.0312	82.5653	82.0312	83.4267	82.0312	82.4246	82.0312	83.4432	82.0312	82.2926	82.0312	83.434	82.0312	82.1735	82.0312	83.4001	82.0312	82.0709	82.0312	83.3437	82.0312	81.9877	82.0312	83.2673	82.0312	81.9258	82.0312	83.174	82.0312	81.8863	82.0312	83.0668	82.0312	81.8696	82.0312	82.9489	82.0312	81.8755	82.0312	82.8233	82.0312	81.9032	82.0312	82.6935	82.0312	81.9514	82.0312	82.563	82.0312	82.0186	82.0312	82.4353	82.0312	82.103	82.0312	82.314	82.0312	82.2023
84.9609	82.9614	84.9609	82.8412	84.9609	83.0699	84.9609	82.7139	84.9609	83.1632	84.9609	82.5843	84.9609	83.2383	84.9609	82.4574	84.9609	83.2935	84.9609	82.3382	84.9609	83.3279	84.9609	82.2315	84.9609	83.342	84.9609	82.1412	84.9609	83.3369	84.9609	82.0705	84.9609	83.3143	84.9609	82.0217	84.9609	83.2763	84.9609	81.9958	84.9609	83.2244	84.9609	81.9928	84.9609	83.16	84.9609	82.0118	84.9609	83.0842	84.9609	82.0513	84.9609	82.9977	84.9609	82.1091	84.9609	82.9019	84.9609	82.1826	84.9609	82.7986	84.9609	82.2694	84.9609	82.6904	84.9609	82.3665	84.9609	82.5801	84.9609	82.4711
87.8906	83.1822	87.8906	83.0553	87.8906	83.2976	87.8906	82.922	87.8906	83.3972	87.8906	82.7882	87.8906	83.4779	87.8906	82.6599	87.8906	83.5381	87.8906	82.5435	87.8906	83.5777	87.8906	82.4446	87.8906	83.598	87.8906	82.3684	87.8906	83.6019	87.8906	82.3187	87.8906	83.5927	87.8906	82.2981	87.8906	83.574	87.8906	82.3072	87.8906	83.5487	87.8906	82.3449	87.8906	83.5181	87.8906	82.4084	87.8906	83.482	87.8906	82.4935	87.8906	83.4388	87.8906	82.595	87.8906	83.3861	87.8906	82.7071	87.8906	83.3219	87.8906	82.8242	87.8906	83.2446	87.8906	82.9408	87.8906	83.1542	87.8906	83.052
90.8203	83.8321	90.8203	83.7049	90.8203	83.937	90.8203	83.5598	90.8203	84.0163	90.8203	83.4024	90.8203	84.0678	90.8203	83.2385	90.8203	84.0905	90.8203	83.0748	90.8203	84.0851	90.8203	82.918	90.8203	84.0537	90.8203	82.775	90.8203	83.9998	90.8203	82.6519	90.8203	83.9279	90.8203	82.5544	90.8203	83.843	90.8203	82.4867	90.8203	83.7502	90.8203	82.4513	90.8203	83.6535	90.8203	82.4489	90.8203	83.5553	90.8203	82.4777	90.8203	83.4566	90.8203	82.5343	90.8203	83.3569	90.8203	82.6137	90.8203	83.2548	90.8203	82.7098	90.8203	83.1492	90.8203	82.8164	90.8203	83.0398	90.8203	82.928
95.2148	84.0666	95.2148	83.9369	95.2148	84.1749	95.2148	83.7906	95.2148	84.2582	95.2148	83.6332	95.2148	84.3135	95.2148	83.4705	95.2148	84.3397	95.2148	83.3084	95.2148	84.3368	95.2148	83.1529	95.2148	84.3063	95.2148	83.0097	95.2148	84.2514	95.2148	82.8839	95.2148	84.176	95.2148	82.78	95.2148	84.0846	95.2148	82.7012	95.2148	83.9816	95.2148	82.6503	95.2148	83.8708	95.2148	82.6282	95.2148	83.7546	95.2148	82.6349	95.2148	83.6345	95.2148	82.6691	95.2148	83.5116	95.2148	82.7283	95.2148	83.3867	95.2148	82.809	95.2148	83.2612	95.2148	82.907	95.2148	83.1372	95.2148	83.0178
98.1445	84.2699	98.1445	84.1335	98.1445	84.3845	98.1445	83.9808	98.1445	84.4731	98.1445	83.8177	98.1445	84.5325	98.1445	83.6508	98.1445	84.5612	98.1445	83.4864	98.1445	84.5592	98.1445	83.3309	98.1445	84.5284	98.1445	83.1901	98.1445	84.4718	98.1445	83.0688	98.1445	84.3939	98.1445	82.9711	98.1445	84.2997	98.1445	82.8995	98.1445	84.1937	98.1445	82.8557	98.1445	84.0799	98.1445	82.8399	98.1445	83.9612	98.1445	82.8513	98.1445	83.8393	98.1445	82.8881	98.1445	83.7154	98.1445	82.9476	98.1445	83.5907	98.1445	83.0266	98.1445	83.4665	98.1445	83.1217	98.1445	83.345	98.1445	83.229
101.074	84.4049	101.074	84.2652	101.074	84.5232	101.074	84.1096	101.074	84.6151	101.074	83.9445	101.074	84.6774	101.074	83.7768	101.074	84.7082	101.074	83.6132	101.074	84.7074	101.074	83.4601	101.074	84.6769	101.074	83.3234	101.074	84.6203	101.074	83.2079	101.074	84.5424	101.074	83.1175	101.074	84.4487	101.074	83.0545	101.074	84.3446	101.074	83.0199	101.074	84.2343	101.074	83.0135	101.074	84.1209	101.074	83.0337	101.074	84.0059	101.074	83.0781	101.074	83.8898	101.074	83.1435	101.074	83.773	101.074	83.2262	101.074	83.6562	101.074	83.3224	101.074	83.5406	101.074	83.4284
105.469	84.5702	105.469	84.4316	105.469	84.6858	105.469	84.2756	105.469	84.7739	105.469	84.1087	105.469	84.8317	105.469	83.9381	105.469	84.8582	105.469	83.7712	105.469	84.854	105.469	83.6153	105.469	84.8218	105.469	83.4771	105.469	84.7661	105.469	83.3624	105.469	84.6923	105.469	83.2757	105.469	84.6063	105.469	83.2197	105.469	84.5136	105.469	83.1957	105.469	84.4179	105.469	83.203	105.469	84.3212	105.469	83.239	105.469	84.2238	105.469	83.3002	105.469	84.1247	105.469	83.3816	105.469	84.0225	105.469	83.478	105.469	83.9165	105.469	83.5842	105.469	83.8069	105.469	83.6951
108.398	84.7026	108.398	84.5665	108.398	84.8156	108.398	84.4131	108.398	84.9011	108.398	84.249	108.398	84.956	108.398	84.0813	108.398	84.979	108.398	83.9174	108.398	84.9709	108.398	83.7642	108.398	84.9341	108.398	83.6285	108.398	84.8733	108.398	83.5156	108.398	84.7944	108.398	83.4299	108.398	84.7039	108.398	83.374	108.398	84.608	108.398	83.3489	108.398	84.5112	108.398	83.3542	108.398	84.4159	108.398	83.3875	108.398	84.3221	108.398	83.4453	108.398	84.2285	108.398	83.5231	108.398	84.1328	108.398	83.6156	108.398	84.0334	108.398	83.7175	108.398	83.9299	108.398	83.8237
112.793	85.2165	112.793	85.0727	112.793	85.3361	112.793	84.911	112.793	85.4269	112.793	84.7381	112.793	85.4852	112.793	84.5614	112.793	85.5093	112.793	84.3885	112.793	85.4993	112.793	84.2265	112.793	85.4575	112.793	84.0819	112.793	85.388	112.793	83.9603	112.793	85.2963	112.793	83.8656	112.793	85.189	112.793	83.8004	112.793	85.0726	112.793	83.7655	112.793	84.9526	112.793	83.76	112.793	84.833	112.793	83.7818	112.793	84.7159	112.793	83.8276	112.793	84.6018	112.793	83.8933	112.793	84.4902	112.793	83.9747	112.793	84.3806	112.793	84.0674	112.793	84.2728	112.793	84.1678
117.188	85.3472	117.188	85.2037	117.188	85.4665	117.188	85.0421	117.188	85.5568	117.188	84.8698	117.188	85.6149	117.188	84.6948	117.188	85.6397	117.188	84.5254	117.188	85.6324	117.188	84.3696	117.188	85.5962	117.188	84.2347	117.188	85.5363	117.188	84.1266	117.188	85.4591	117.188	84.0498	117.188	85.3716	117.188	84.0064	117.188	85.2801	117.188	83.9966	117.188	85.1892	117.188	84.0185	117.188	85.101	117.188	84.0685	117.188	85.0152	117.188	84.1415	117.188	84.9299	117.188	84.2318	117.188	84.8423	117.188	84.3332	117.188	84.7498	117.188	84.4401	117.188	84.6514	117.188	84.5474
120.117	85.7546	120.117	85.6026	120.117	85.8793	120.117	85.4301	120.117	85.9714	120.117	85.245	120.117	86.0272	120.117	85.0557	120.117	86.0453	120.117	84.8709	120.117	86.0267	120.117	84.699	120.117	85.9747	120.117	84.5478	120.117	85.8951	120.117	84.4237	120.117	85.7955	120.117	84.3315	120.117	85.6841	120.117	84.274	120.117	85.569	120.117	84.2518	120.117	85.4564	120.117	84.2634	120.117	85.3501	120.117	84.3051	120.117	85.2506	120.117	84.3721	120.117	85.1562	120.117	84.458	120.117	85.0634	120.117	84.5566	120.117	84.9689	120.117	84.6614	120.117	84.8703	120.117	84.7672
124.512	85.9771	124.512	85.826	124.512	86.0986	124.512	85.6522	124.512	86.1854	124.512	85.4636	124.512	86.2342	124.512	85.2692	124.512	86.2438	124.512	85.0779	124.512	86.2156	124.512	84.8988	124.512	86.1535	124.512	84.7401	124.512	86.0636	124.512	84.6087	124.512	85.9538	124.512	84.5098	124.512	85.8327	124.512	84.4464	124.512	85.7087	124.512	84.419	124.512	85.5883	124.512	84.4259	124.512	85.4757	124.512	84.4633	124.512	85.3717	124.512	84.5256	124.512	85.275	124.512	84.6064	124.512	85.1823	124.512	84.6993	124.512	85.09	124.512	84.7981	124.512	84.9956	124.512	84.8979
128.906	86.0906	128.906	85.9346	128.906	86.216	128.906	85.7543	128.906	86.306	128.906	85.5575	128.906	86.3574	128.906	85.3523	128.906	86.3692	128.906	85.1479	128.906	86.3424	128.906	84.9531	128.906	86.2803	128.906	84.7764	128.906	86.1883	128.906	84.6255	128.906	86.0732	128.906	84.5065	128.906	85.943	128.906	84.4235	128.906	85.8055	128.906	84.3785	128.906	85.6674	128.906	84.3706	128.906	85.5337	128.906	84.3971	128.906	85.4068	128.906	84.4528	128.906	85.287	128.906	84.5314	128.906	85.1725	128.906	84.6262	128.906	85.061	128.906	84.7308	128.906	84.9504	128.906	84.8399
133.301	86.2118	133.301	86.0537	133.301	86.341	133.301	85.8737	133.301	86.436	133.301	85.6798	133.301	86.4935	133.301	85.4811	133.301	86.5122	133.301	85.2866	133.301	86.4935	133.301	85.1054	133.301	86.4411	133.301	84.9456	133.301	86.3609	133.301	84.8141	133.301	86.2604	133.301	84.7158	133.301	86.1477	133.301	84.6537	133.301	86.0301	133.301	84.6284	133.301	85.9134	133.301	84.6383	133.301	85.8009	133.301	84.6799	133.301	85.6933	133.301	84.7481	133.301	85.5891	133.301	84.8367	133.301	85.486	133.301	84.9392	133.301	85.3813	133.301	85.0494	133.301	85.2733	133.301	85.162
139.16	86.3624	139.16	86.2033	139.16	86.4907	139.16	86.0203	139.16	86.5826	139.16	85.8219	139.16	86.635	139.16	85.6172	139.16	86.6469	139.16	85.4159	139.16	86.6199	139.16	85.2275	139.16	86.5583	139.16	85.0609	139.16	86.4688	139.16	84.9235	139.16	86.3596	139.16	84.8211	139.16	86.2397	139.16	84.757	139.16	86.1172	139.16	84.7319	139.16	85.9982	139.16	84.744	139.16	85.886	139.16	84.7891	139.16	85.7813	139.16	84.8613	139.16	85.6821	139.16	84.9533	139.16	85.5851	139.16	85.0578	139.16	85.4869	139.16	85.1679	139.16	85.3848	139.16	85.2781
143.555	86.5104	143.555	86.3459	143.555	86.6425	143.555	86.1562	143.555	86.7367	143.555	85.9501	143.555	86.7898	143.555	85.7373	143.555	86.8011	143.555	85.5282	143.555	86.7727	143.555	85.3329	143.555	86.7092	143.555	85.1606	143.555	86.6178	143.555	85.0193	143.555	86.5072	143.555	84.9148	143.555	86.3863	143.555	84.8505	143.555	86.2635	143.555	84.8271	143.555	86.1447	143.555	84.8426	143.555	86.033	143.555	84.8926	143.555	85.9285	143.555	84.9706	143.555	85.8289	143.555	85.0691	143.555	85.7307	143.555	85.1803	143.555	85.6301	143.555	85.2969	143.555	85.5244	143.555	85.4129
147.949	86.6396	147.949	86.4694	147.949	86.7759	147.949	86.2728	147.949	86.8724	147.949	86.0592	147.949	86.9259	147.949	85.8387	147.949	86.9358	147.949	85.6222	147.949	86.9046	147.949	85.4202	147.949	86.8374	147.949	85.2421	147.949	86.7419	147.949	85.0961	147.949	86.6275	147.949	84.9879	147.949	86.5038	147.949	84.9208	147.949	86.3792	147.949	84.8955	147.949	86.2595	147.949	84.91	147.949	86.1471	147.949	84.9598	147.949	86.0413	147.949	85.0388	147.949	85.9392	147.949	85.1398	147.949	85.8367	147.949	85.2549	147.949	85.7303	147.949	85.3768	147.949	85.6179	147.949	85.4993
153.809	86.8231	153.809	86.6455	153.809	86.9622	153.809	86.4369	153.809	87.0573	153.809	86.207	153.809	87.1054	153.809	85.9668	153.809	87.1065	153.809	85.7283	153.809	87.0636	153.809	85.5039	153.809	86.9826	153.809	85.3051	153.809	86.8723	153.809	85.1424	153.809	86.7432	153.809	85.0232	153.809	86.6063	153.809	84.9522	153.809	86.4714	153.809	84.9298	153.809	86.3455	153.809	84.9531	153.809	86.2317	153.809	85.016	153.809	86.1288	153.809	85.1101	153.809	86.0328	153.809	85.2257	153.809	85.9377	153.809	85.3534	153.809	85.838	153.809	85.4841	153.809	85.7295	153.809	85.611
159.668	87.0536	159.668	86.8766	159.668	87.1912	159.668	86.6681	159.668	87.2836	159.668	86.4377	159.668	87.3279	159.668	86.1962	159.668	87.3238	159.668	85.9552	159.668	87.2745	159.668	85.7264	159.668	87.1864	159.668	85.5208	159.668	87.0687	159.668	85.3485	159.668	86.9323	159.668	85.2171	159.668	86.7882	159.668	85.132	159.668	86.6463	159.668	85.0948	159.668	86.5131	159.668	85.1041	159.668	86.3913	159.668	85.1548	159.668	86.2798	159.668	85.2393	159.668	86.175	159.668	85.3484	159.668	86.0717	159.668	85.4722	159.668	85.9649	159.668	85.6017	159.668	85.8513	159.668	85.7296
165.527	87.2894	165.527	87.1165	165.527	87.4215	165.527	86.9111	165.527	87.5072	165.527	86.6828	165.527	87.5432	165.527	86.4429	165.527	87.5296	165.527	86.2032	165.527	87.4698	165.527	85.9756	165.527	87.3709	165.527	85.7713	165.527	87.2428	165.527	85.6001	165.527	87.0981	165.527	85.4699	165.527	86.9495	165.527	85.3857	165.527	86.8083	165.527	85.3495	165.527	86.682	165.527	85.3599	165.527	86.5729	165.527	85.4124	165.527	86.4786	165.527	85.4995	165.527	86.3928	165.527	85.6117	165.527	86.3077	165.527	85.7385	165.527	86.2159	165.527	85.8696	165.527	86.1126	165.527	85.9964
171.387	87.2827	171.387	87.1009	171.387	87.4236	171.387	86.8869	171.387	87.5167	171.387	86.6513	171.387	87.5583	171.387	86.4059	171.387	87.5479	171.387	86.1631	171.387	87.4886	171.387	85.9351	171.387	87.3875	171.387	85.7333	171.387	87.2552	171.387	85.5676	171.387	87.1048	171.387	85.4453	171.387	86.9502	171.387	85.3711	171.387	86.8037	171.387	85.3461	171.387	86.6739	171.387	85.368	171.387	86.5642	171.387	85.4312	171.387	86.4725	171.387	85.5272	171.387	86.3924	171.387	85.6457	171.387	86.3153	171.387	85.7755	171.387	86.2327	171.387	85.9061	171.387	86.1381	171.387	86.0287
177.246	87.3498	177.246	87.1635	177.246	87.4917	177.246	86.9418	177.246	87.583	177.246	86.6957	177.246	87.6205	177.246	86.438	177.246	87.6047	177.246	86.1819	177.246	87.5399	177.246	85.941	177.246	87.4341	177.246	85.7277	177.246	87.2985	177.246	85.5526	177.246	87.1458	177.246	85.4238	177.246	86.9891	177.246	85.3459	177.246	86.8392	177.246	85.3197	177.246	86.7036	177.246	85.3423	177.246	86.5851	177.246	85.4073	177.246	86.4824	177.246	85.5051	177.246	86.391	177.246	85.6248	177.246	86.3041	177.246	85.7547	177.246	86.2148	177.246	85.8847	177.246	86.1169	177.246	86.0068
183.105	87.2697	183.105	87.0703	183.105	87.4235	183.105	86.8355	183.105	87.5245	183.105	86.5779	183.105	87.569	183.105	86.3116	183.105	87.5574	183.105	86.0514	183.105	87.4943	183.105	85.8114	183.105	87.3888	183.105	85.6041	183.105	87.2535	183.105	85.4392	183.105	87.1031	183.105	85.3232	183.105	86.9525	183.105	85.2588	183.105	86.8135	183.105	85.2452	183.105	86.6929	183.105	85.2788	183.105	86.5911	183.105	85.3531	183.105	86.5034	183.105	85.4597	183.105	86.4217	183.105	85.5888	183.105	86.3373	183.105	85.7299	183.105	86.2429	183.105	85.8731	183.105	86.134	183.105	86.0098
188.965	87.4171	188.965	87.227	188.965	87.5551	188.965	86.9936	188.965	87.6351	188.965	86.7289	188.965	87.6551	188.965	86.4473	188.965	87.6167	188.965	86.1654	188.965	87.5259	188.965	85.9006	188.965	87.3927	188.965	85.67	188.965	87.2307	188.965	85.4884	188.965	87.0559	188.965	85.3661	188.965	86.8847	188.965	85.3075	188.965	86.7314	188.965	85.3102	188.965	86.605	188.965	85.3664	188.965	86.5084	188.965	85.4641	188.965	86.4375	188.965	85.5893	188.965	86.383	188.965	85.7281	188.965	86.3331	188.965	85.8678	188.965	86.2764	188.965	85.9981	188.965	86.2041	188.965	86.1115
196.289	87.6668	196.289	87.4803	196.289	87.8006	196.289	87.2502	196.289	87.8752	196.289	86.9879	196.289	87.8879	196.289	86.7067	196.289	87.8395	196.289	86.421	196.289	87.7354	196.289	86.1453	196.289	87.5852	196.289	85.8943	196.289	87.4028	196.289	85.6809	196.289	87.2047	196.289	85.5164	196.289	87.0085	196.289	85.4086	196.289	86.8298	196.289	85.3611	196.289	86.6793	196.289	85.3724	196.289	86.5613	196.289	85.4359	196.289	86.4722	196.289	85.5404	196.289	86.4027	196.289	85.6717	196.289	86.34	196.289	85.8144	196.289	86.2712	196.289	85.9543	196.289	86.1863	196.289	86.0805
203.613	87.6731	203.613	87.473	203.613	87.8145	203.613	87.2246	203.613	87.8899	203.613	86.9412	203.613	87.8958	203.613	86.6379	203.613	87.8331	203.613	86.3314	203.613	87.7073	203.613	86.0389	203.613	87.5289	203.613	85.777	203.613	87.3128	203.613	85.5605	203.613	87.0778	203.613	85.4004	203.613	86.844	203.613	85.3027	203.613	86.6307	203.613	85.2679	203.613	86.4526	203.613	85.2906	203.613	86.3169	203.613	85.3605	203.613	86.2223	203.613	85.4643	203.613	86.1592	203.613	85.5869	203.613	86.1131	203.613	85.7137	203.613	86.0678	203.613	85.8318	203.613	86.0101	203.613	85.932
210.938	87.6449	210.938	87.4538	210.938	87.7796	210.938	87.2158	210.938	87.8512	210.938	86.9427	210.938	87.8565	210.938	86.6482	210.938	87.796	210.938	86.3471	210.938	87.6742	210.938	86.0545	210.938	87.5003	210.938	85.7855	210.938	87.2875	210.938	85.5544	210.938	87.0529	210.938	85.373	210.938	86.8155	210.938	85.2502	210.938	86.5939	210.938	85.1896	210.938	86.4032	210.938	85.1894	210.938	86.2516	210.938	85.2417	210.938	86.1395	210.938	85.3337	210.938	86.0593	210.938	85.4498	210.938	85.9982	210.938	85.5737	210.938	85.9416	210.938	85.6916	210.938	85.8763	210.938	85.7938
218.262	87.4948	218.262	87.2839	218.262	87.6535	218.262	87.0318	218.262	87.7517	218.262	86.752	218.262	87.7843	218.262	86.459	218.262	87.7501	218.262	86.1681	218.262	87.6525	218.262	85.894	218.262	87.4991	218.262	85.6505	218.262	87.3018	218.262	85.449	218.262	87.0761	218.262	85.2985	218.262	86.8402	218.262	85.2041	218.262	86.6128	218.262	85.1669	218.262	86.4105	218.262	85.183	218.262	86.2451	218.262	85.2442	218.262	86.1206	218.262	85.3385	218.262	86.0323	218.262	85.4519	218.262	85.9681	218.262	85.5701	218.262	85.9126	218.262	85.6808	218.262	85.8517	218.262	85.7756
225.586	87.5099	225.586	87.2947	225.586	87.6625	225.586	87.0282	225.586	87.7453	225.586	86.7249	225.586	87.756	225.586	86.402	225.586	87.6968	225.586	86.0781	225.586	87.5753	225.586	85.7719	225.586	87.4034	225.586	85.5011	225.586	87.1971	225.586	85.281	225.586	86.9744	225.586	85.1233	225.586	86.7534	225.586	85.0349	225.586	86.55	225.586	85.0166	225.586	86.3762	225.586	85.0625	225.586	86.2387	225.586	85.1607	225.586	86.1381	225.586	85.2944	225.586	86.0686	225.586	85.4448	225.586	86.0182	225.586	85.5938	225.586	85.9718	225.586	85.7266	225.586	85.9142	225.586	85.8341
232.91	87.5072	232.91	87.2754	232.91	87.674	232.91	86.9898	232.91	87.7684	232.91	86.6646	232.91	87.7868	232.91	86.3165	232.91	87.7306	232.91	85.9633	232.91	87.6058	232.91	85.6239	232.91	87.4233	232.91	85.3164	232.91	87.1987	232.91	85.0576	232.91	86.9507	232.91	84.8618	232.91	86.6998	232.91	84.7395	232.91	86.4658	232.91	84.6956	232.91	86.2651	232.91	84.7279	232.91	86.1074	232.91	84.8263	232.91	85.9938	232.91	84.9735	232.91	85.916	232.91	85.1476	232.91	85.8581	232.91	85.326	232.91	85.8011	232.91	85.4894	232.91	85.7273	232.91	85.6248
241.699	87.4023	241.699	87.1707	241.699	87.5699	241.699	86.8879	241.699	87.6646	241.699	86.5695	241.699	87.6828	241.699	86.2326	241.699	87.6257	241.699	85.8942	241.699	87.5002	241.699	85.57	241.699	87.3178	241.699	85.2735	241.699	87.0935	241.699	85.0162	241.699	86.8447	241.699	84.8078	241.699	86.589	241.699	84.657	241.699	86.3425	241.699	84.5705	241.699	86.1186	241.699	84.5515	241.699	85.9269	241.699	84.5972	241.699	85.7718	241.699	84.6971	241.699	85.6511	241.699	84.834	241.699	85.5554	241.699	84.9871	241.699	85.4699	241.699	85.1367	241.699	85.3785	241.699	85.2689
250.488	87.026	250.488	86.7626	250.488	87.214	250.488	86.4377	250.488	87.3183	250.488	86.0706	250.488	87.3367	250.488	85.6844	250.488	87.2732	250.488	85.3038	250.488	87.1381	250.488	84.9516	250.488	86.9466	250.488	84.646	250.488	86.7174	250.488	84.398	250.488	86.4702	250.488	84.2121	250.488	86.222	250.488	84.0888	250.488	85.9862	250.488	84.0269	250.488	85.7716	250.488	84.0248	250.488	85.5834	250.488	84.0797	250.488	85.4232	250.488	84.1846	250.488	85.2883	250.488	84.327	250.488	85.1709	250.488	84.4895	250.488	85.0594	250.488	84.6542	250.488	84.9411	250.488	84.8068
259.277	87.4412	259.277	87.2277	259.277	87.578	259.277	86.9488	259.277	87.6327	259.277	86.6202	259.277	87.6056	259.277	86.2613	259.277	87.5034	259.277	85.8935	259.277	87.3384	259.277	85.5379	259.277	87.1274	259.277	85.2123	259.277	86.8893	259.277	84.9296	259.277	86.6425	259.277	84.6965	259.277	86.4024	259.277	84.5151	259.277	86.1803	259.277	84.386	259.277	85.9828	259.277	84.3108	259.277	85.812	259.277	84.2928	259.277	85.6644	259.277	84.3341	259.277	85.5309	259.277	84.4317	259.277	85.3995	259.277	84.575	259.277	85.2586	259.277	84.7466	259.277	85.101	259.277	84.9273
268.066	86.8228	268.066	86.5741	268.066	86.9942	268.066	86.2664	268.066	87.0764	268.066	85.923	268.066	87.0651	268.066	85.5705	268.066	86.9647	268.066	85.2356	268.066	86.7893	268.066	84.9425	268.066	86.5622	268.066	84.7084	268.066	86.312	268.066	84.5413	268.066	86.067	268.066	84.4388	268.066	85.8476	268.066	84.391	268.066	85.6623	268.066	84.3841	268.066	85.5097	268.066	84.4057	268.066	85.3846	268.066	84.4473	268.066	85.2814	268.066	84.5055	268.066	85.1945	268.066	84.5791	268.066	85.1166	268.066	84.6665	268.066	85.0391	268.066	84.7632	268.066	84.9548	268.066	84.8617
276.855	86.7491	276.855	86.4837	276.855	86.9268	276.855	86.1488	276.855	87.0051	276.855	85.7688	276.855	86.9794	276.855	85.3735	276.855	86.8542	276.855	84.9971	276.855	86.6448	276.855	84.674	276.855	86.378	276.855	84.4328	276.855	86.0901	276.855	84.2892	276.855	85.8188	276.855	84.2423	276.855	85.5923	276.855	84.2754	276.855	85.4214	276.855	84.3627	276.855	85.301	276.855	84.4773	276.855	85.2189	276.855	84.598	276.855	85.1639	276.855	84.711	276.855	85.1277	276.855	84.8103	276.855	85.1029	276.855	84.894	276.855	85.081	276.855	84.9621	276.855	85.0537	276.855	85.0151
287.109	87.6305	287.109	87.346	287.109	87.8055	287.109	86.9693	287.109	87.8611	287.109	86.5246	287.109	87.7946	287.109	86.0429	287.109	87.6114	287.109	85.5598	287.109	87.3262	287.109	85.1132	287.109	86.9653	287.109	84.7384	287.109	86.5687	287.109	84.4636	287.109	86.1882	287.109	84.3049	287.109	85.8781	287.109	84.2635	287.109	85.6759	287.109	84.3268	287.109	85.5863	287.109	84.4712	287.109	85.5817	287.109	84.6675	287.109	85.6202	287.109	84.8867	287.109	85.6651	287.109	85.1034	287.109	85.6931	287.109	85.2982	287.109	85.692	287.109	85.4585	287.109	85.655	287.109	85.5778
297.363	87.4098	297.363	87.0924	297.363	87.6223	297.363	86.6891	297.363	87.7182	297.363	86.2262	297.363	87.6923	297.363	85.7364	297.363	87.547	297.363	85.2579	297.363	87.292	297.363	84.8292	297.363	86.9454	297.363	84.483	297.363	86.5353	297.363	84.2399	297.363	86.1024	297.363	84.1063	297.363	85.7013	297.363	84.0768	297.363	85.3938	297.363	84.1399	297.363	85.2289	297.363	84.2808	297.363	85.216	297.363	84.4819	297.363	85.3164	297.363	84.7221	297.363	85.4635	297.363	84.977	297.363	85.5943	297.363	85.2205	297.363	85.6671	297.363	85.4286	297.363	85.6634	297.363	85.5812
307.617	87.6268	307.617	87.336	307.617	87.8026	307.617	86.9434	307.617	87.855	307.617	86.4675	307.617	87.7821	307.617	85.9331	307.617	87.5904	307.617	85.3739	307.617	87.2971	307.617	84.8339	307.617	86.93	307.617	84.3638	307.617	86.5239	307.617	84.0124	307.617	86.1141	307.617	83.8123	307.617	85.7303	307.617	83.769	307.617	85.3984	307.617	83.8613	307.617	85.1468	307.617	84.053	307.617	85.0068	307.617	84.305	307.617	84.9949	307.617	84.5826	307.617	85.0908	307.617	84.8563	307.617	85.2375	307.617	85.1004	307.617	85.3679	307.617	85.2906	307.617	85.4317	307.617	85.4059
319.336	87.5203	319.336	87.2268	319.336	87.6988	319.336	86.8344	319.336	87.7511	319.336	86.3651	319.336	87.6719	319.336	85.8466	319.336	87.4623	319.336	85.3112	319.336	87.1329	319.336	84.794	319.336	86.707	319.336	84.3302	319.336	86.224	319.336	83.9517	319.336	85.7363	319.336	83.6846	319.336	85.2999	319.336	83.5466	319.336	84.9583	319.336	83.5433	319.336	84.7323	319.336	83.6654	319.336	84.6234	319.336	83.887	319.336	84.6218	319.336	84.1689	319.336	84.7067	319.336	84.4654	319.336	84.8404	319.336	84.7323	319.336	84.9717	319.336	84.9325	319.336	85.0501	319.336	85.0412
329.59	87.7512	329.59	87.4585	329.59	87.9214	329.59	87.0564	329.59	87.9613	329.59	86.5639	329.59	87.8689	329.59	86.0068	329.59	87.6483	329.59	85.4188	329.59	87.3113	329.59	84.8418	329.59	86.8786	329.59	84.3218	329.59	86.3817	329.59	83.9019	329.59	85.8626	329.59	83.6119	329.59	85.3711	329.59	83.4622	329.59	84.9558	329.59	83.4456	329.59	84.6519	329.59	83.5425	329.59	84.4737	329.59	83.7264	329.59	84.4142	329.59	83.9647	329.59	84.4492	329.59	84.2191	329.59	84.5412	329.59	84.4497	329.59	84.6443	329.59	84.621	329.59	84.7123	329.59	84.7101
341.309	87.4396	341.309	87.155	341.309	87.6095	341.309	86.774	341.309	87.6541	341.309	86.3208	341.309	87.5713	341.309	85.8239	341.309	87.367	341.309	85.3125	341.309	87.0551	341.309	84.8148	341.309	86.6566	341.309	84.3565	341.309	86.1989	341.309	83.9616	341.309	85.7159	341.309	83.6541	341.309	85.2491	341.309	83.4577	341.309	84.8468	341.309	83.3909	341.309	84.5583	341.309	83.459	341.309	84.4186	341.309	83.6468	341.309	84.4282	341.309	83.9184	341.309	84.5472	341.309	84.2244	341.309	84.7095	341.309	84.5137	341.309	84.8485	341.309	84.7426	341.309	84.9145	341.309	84.8808
353.027	87.6711	353.027	87.3493	353.027	87.8533	353.027	86.8977	353.027	87.8919	353.027	86.3332	353.027	87.7874	353.027	85.6828	353.027	87.5451	353.027	84.9865	353.027	87.1757	353.027	84.2976	353.027	86.6974	353.027	83.6781	353.027	86.1379	353.027	83.1843	353.027	85.5354	353.027	82.8504	353.027	84.9377	353.027	82.6816	353.027	84.4001	353.027	82.6617	353.027	83.9781	353.027	82.7663	353.027	83.7167	353.027	82.9695	353.027	83.6322	353.027	83.2404	353.027	83.6989	353.027	83.5386	353.027	83.8541	353.027	83.8162	353.027	84.0197	353.027	84.0263	353.027	84.1276	353.027	84.1345
366.211	87.6336	366.211	87.3368	366.211	87.7954	366.211	86.9145	366.211	87.8179	366.211	86.382	366.211	87.7026	366.211	85.761	366.211	87.4569	366.211	85.0823	366.211	87.0946	366.211	84.3879	366.211	86.6359	366.211	83.7321	366.211	86.1072	366.211	83.1756	366.211	85.5399	366.211	82.7718	366.211	84.9675	366.211	82.5489	366.211	84.4264	366.211	82.5012	366.211	83.9592	366.211	82.5962	366.211	83.6153	366.211	82.7896	366.211	83.4355	366.211	83.0367	366.211	83.4222	366.211	83.2954	366.211	83.525	366.211	83.527	366.211	83.6631	366.211	83.6966	366.211	83.7626	366.211	83.7785
379.395	87.9197	379.395	87.6449	379.395	88.0681	379.395	87.2568	379.395	88.0793	379.395	86.7691	379.395	87.947	379.395	86.1963	379.395	87.6716	379.395	85.5553	379.395	87.263	379.395	84.8695	379.395	86.7426	379.395	84.1746	379.395	86.1428	379.395	83.5221	379.395	85.5041	379.395	82.9774	379.395	84.872	379.395	82.6056	379.395	84.2977	379.395	82.4491	379.395	83.8419	379.395	82.5081	379.395	83.5675	379.395	82.7396	379.395	83.5072	379.395	83.075	379.395	83.6286	379.395	83.4411	379.395	83.8419	379.395	83.7739	379.395	84.0452	379.395	84.0242	379.395	84.1636	379.395	84.1591
392.578	87.483	392.578	87.1953	392.578	87.6512	392.578	86.8032	392.578	87.6897	392.578	86.3256	392.578	87.5945	392.578	85.7822	392.578	87.3673	392.578	85.1918	392.578	87.016	392.578	84.5741	392.578	86.5564	392.578	83.9536	392.578	86.013	392.578	83.3673	392.578	85.4206	392.578	82.8676	392.578	84.8214	392.578	82.5165	392.578	84.2619	392.578	82.3653	392.578	83.7914	392.578	82.4279	392.578	83.4629	392.578	82.6694	392.578	83.3214	392.578	83.0183	392.578	83.3731	392.578	83.3921	392.578	83.5628	392.578	83.7174	392.578	83.7928	392.578	83.9392	392.578	83.9679	392.578	84.025
405.762	87.1926	405.762	86.9146	405.762	87.3365	405.762	86.5103	405.762	87.344	405.762	85.9951	405.762	87.217	405.762	85.3934	405.762	86.9611	405.762	84.7395	405.762	86.5858	405.762	84.0765	405.762	86.1057	405.762	83.4536	405.762	85.543	405.762	82.9201	405.762	84.9289	405.762	82.5191	405.762	84.3073	405.762	82.2812	405.762	83.7391	405.762	82.2207	405.762	83.3018	405.762	82.3329	405.762	83.072	405.762	82.591	405.762	83.0824	405.762	82.9457	405.762	83.2884	405.762	83.3322	405.762	83.5851	405.762	83.6829	405.762	83.8606	405.762	83.9398	405.762	84.0336	405.762	84.0628
420.41	87.911	420.41	87.6186	420.41	88.0523	420.41	87.1833	420.41	88.0382	420.41	86.6163	420.41	87.8696	420.41	85.9345	420.41	87.5541	420.41	85.164	420.41	87.1069	420.41	84.3472	420.41	86.5508	420.41	83.5459	420.41	85.9126	420.41	82.8367	420.41	85.2197	420.41	82.2934	420.41	84.4968	420.41	81.9647	420.41	83.7733	420.41	81.8638	420.41	83.1054	420.41	81.9733	420.41	82.5995	420.41	82.2528	420.41	82.387	420.41	82.6421	420.41	82.5201	420.41	83.0648	420.41	82.8949	420.41	83.4393	420.41	83.3204	420.41	83.6919	420.41	83.6382	420.41	83.7672
435.059	87.454	435.059	87.2136	435.059	87.5614	435.059	86.8523	435.059	87.5275	435.059	86.384	435.059	87.3508	435.059	85.8215	435.059	87.0388	435.059	85.178	435.059	86.6108	435.059	84.4729	435.059	86.0989	435.059	83.7433	435.059	85.5456	435.059	83.055	435.059	84.9927	435.059	82.5007	435.059	84.4666	435.059	82.1701	435.059	83.973	435.059	82.1014	435.059	83.5136	435.059	82.2563	435.059	83.1179	435.059	82.5485	435.059	82.8565	435.059	82.8888	435.059	82.8004	435.059	83.208	435.059	82.9472	435.059	83.455	435.059	83.204	435.059	83.5909	435.059	83.4479	435.059	83.5894
451.172	87.6384	451.172	87.3099	451.172	87.8036	451.172	86.8297	451.172	87.7993	451.172	86.2142	451.172	87.6238	451.172	85.4837	451.172	87.2802	451.172	84.6629	451.172	86.7784	451.172	83.7841	451.172	86.1394	451.172	82.8951	451.172	85.3991	451.172	82.0697	451.172	84.6117	451.172	81.4111	451.172	83.8454	451.172	81.0337	451.172	83.17	451.172	81.0123	451.172	82.6413	451.172	81.3291	451.172	82.3019	451.172	81.8739	451.172	82.1925	451.172	82.4989	451.172	82.3364	451.172	83.0732	451.172	82.6899	451.172	83.5032	451.172	83.1307	451.172	83.7313	451.172	83.514	451.172	83.732
465.82	87.6633	465.82	87.395	465.82	87.7676	465.82	86.9753	465.82	87.6998	465.82	86.4191	465.82	87.4599	465.82	85.7426	465.82	87.0592	465.82	84.9644	465.82	86.5226	465.82	84.1112	465.82	85.8879	465.82	83.2256	465.82	85.201	465.82	82.3729	465.82	84.5071	465.82	81.6379	465.82	83.8432	465.82	81.1109	465.82	83.2398	465.82	80.8635	465.82	82.7327	465.82	80.9239	465.82	82.371	465.82	81.2561	465.82	82.2023	465.82	81.7601	465.82	82.2408	465.82	82.3016	465.82	82.4458	465.82	82.7552	465.82	82.7292	465.82	83.0349	465.82	82.9819	465.82	83.105
483.398	87.5743	483.398	87.3226	483.398	87.667	483.398	86.9206	483.398	87.5971	483.398	86.3813	483.398	87.3664	483.398	85.7213	483.398	86.9824	483.398	84.9585	483.398	86.4604	483.398	84.1146	483.398	85.826	483.398	83.2198	483.398	85.117	483.398	82.324	483.398	84.3796	483.398	81.5062	483.398	83.6567	483.398	80.8744	483.398	82.9804	483.398	80.5387	483.398	82.3893	483.398	80.5584	483.398	81.965	483.398	80.8998	483.398	81.82	483.398	81.4469	483.398	81.9936	483.398	82.0535	483.398	82.3752	483.398	82.5905	483.398	82.7792	483.398	82.9657	483.398	83.0561	483.398	83.1263
499.512	87.3921	499.512	87.1628	499.512	87.4638	499.512	86.7849	499.512	87.3756	499.512	86.2732	499.512	87.1318	499.512	85.6471	499.512	86.742	499.512	84.9295	499.512	86.2215	499.512	84.1487	499.512	85.5921	499.512	83.3418	499.512	84.8848	499.512	82.5574	499.512	84.1405	499.512	81.8544	499.512	83.4062	499.512	81.2979	499.512	82.7294	499.512	80.9496	499.512	82.1574	499.512	80.8545	499.512	81.7445	499.512	81.0179	499.512	81.5533	499.512	81.3848	499.512	81.6187	499.512	81.847	499.512	81.8945	499.512	82.2784	499.512	82.2522	499.512	82.5732	499.512	82.5448	499.512	82.6666
517.09	87.6033	517.09	87.4958	517.09	87.5699	517.09	87.2627	517.09	87.3801	517.09	86.9127	517.09	87.0267	517.09	86.4436	517.09	86.5191	517.09	85.8446	517.09	85.8898	517.09	85.1056	517.09	85.1937	517.09	84.2336	517.09	84.4934	517.09	83.2751	517.09	83.8346	517.09	82.3405	517.09	83.2222	517.09	81.6081	517.09	82.6298	517.09	81.2591	517.09	82.0553	517.09	81.3539	517.09	81.5973	517.09	81.7862	517.09	81.4562	517.09	82.377	517.09	81.7571	517.09	82.9681	517.09	82.3723	517.09	83.4459	517.09	83.0321	517.09	83.7302	517.09	83.5285	517.09	83.7668
536.133	86.468	536.133	86.2903	536.133	86.4814	536.133	85.9931	536.133	86.3123	536.133	85.6326	536.133	85.9725	536.133	85.2527	536.133	85.4997	536.133	84.8637	536.133	84.9471	536.133	84.4402	536.133	84.3732	536.133	83.9419	536.133	83.8307	536.133	83.3443	536.133	83.3497	536.133	82.6695	536.133	82.9216	536.133	82.016	536.133	82.5107	536.133	81.5679	536.133	82.1061	536.133	81.5213	536.133	81.7823	536.133	81.9225	536.133	81.7002	536.133	82.6069	536.133	81.9887	536.133	83.3324	536.133	82.5939	536.133	83.9085	536.133	83.3018	536.133	84.2211	536.133	83.8899	536.133	84.216
555.176	87.2672	555.176	86.9314	555.176	87.3803	555.176	86.4044	555.176	87.259	555.176	85.7367	555.176	86.9087	555.176	84.9883	555.176	86.3498	555.176	84.2106	555.176	85.621	555.176	83.4319	555.176	84.7886	555.176	82.6601	555.176	83.9514	555.176	81.9012	555.176	83.2169	555.176	81.1835	555.176	82.6299	555.176	80.5761	555.176	82.1197	555.176	80.1946	555.176	81.5609	555.176	80.1711	555.176	80.9257	555.176	80.5617	555.176	80.4137	555.176	81.2613	555.176	80.3816	555.176	82.0444	555.176	80.9457	555.176	82.6855	555.176	81.7971	555.176	83.0272	555.176	82.5512	555.176	82.9867
574.219	87.416	574.219	87.122	574.219	87.4977	574.219	86.6358	574.219	87.3644	574.219	85.9976	574.219	87.0238	574.219	85.2633	574.219	86.488	574.219	84.4873	574.219	85.7749	574.219	83.6978	574.219	84.923	574.219	82.8831	574.219	84.0158	574.219	82.0129	574.219	83.1834	574.219	81.0909	574.219	82.535	574.219	80.2193	574.219	82.0545	574.219	79.6244	574.219	81.6104	574.219	79.5445	574.219	81.1168	574.219	80.0029	574.219	80.6783	574.219	80.772	574.219	80.5501	574.219	81.5704	574.219	80.8713	574.219	82.1916	574.219	81.4829	574.219	82.5107	574.219	82.0918	574.219	82.4717
594.727	86.8335	594.727	86.5374	594.727	86.9081	594.727	86.0532	594.727	86.751	594.727	85.4368	594.727	86.3704	594.727	84.7524	594.727	85.7877	594.727	84.0496	594.727	85.0378	594.727	83.3434	594.727	84.1805	594.727	82.6177	594.727	83.3174	594.727	81.8524	594.727	82.5853	594.727	81.0556	594.727	82.0757	594.727	80.2863	594.727	81.7358	594.727	79.6699	594.727	81.4173	594.727	79.3929	594.727	81.0643	594.727	79.6085	594.727	80.8279	594.727	80.266	594.727	80.9267	594.727	81.1047	594.727	81.3544	594.727	81.8447	594.727	81.8822	594.727	82.3156	594.727	82.2925	594.727	82.4591
615.234	87.1906	615.234	86.8751	615.234	87.2602	615.234	86.3311	615.234	87.0873	615.234	85.603	615.234	86.6873	615.234	84.7672	615.234	86.0783	615.234	83.9261	615.234	85.2791	615.234	83.176	615.234	84.3229	615.234	82.5537	615.234	83.286	615.234	82.0111	615.234	82.3046	615.234	81.4548	615.234	81.529	615.234	80.8202	615.234	81.0031	615.234	80.1431	615.234	80.608	615.234	79.6031	615.234	80.1908	615.234	79.4592	615.234	79.7594	615.234	79.8114	615.234	79.5615	615.234	80.4641	615.234	79.8561	615.234	81.1075	615.234	80.5255	615.234	81.5087	615.234	81.183	615.234	81.5434
637.207	87.0881	637.207	86.7249	637.207	87.2388	637.207	86.1677	637.207	87.1747	637.207	85.4615	637.207	86.8967	637.207	84.674	637.207	86.4042	637.207	83.8751	637.207	85.7005	637.207	83.1074	637.207	84.7985	637.207	82.3694	637.207	83.7265	637.207	81.6272	637.207	82.5563	637.207	80.8515	637.207	81.4629	637.207	80.0676	637.207	80.6974	637.207	79.4066	637.207	80.3287	637.207	79.105	637.207	80.1215	637.207	79.3491	637.207	79.8769	637.207	80.0595	637.207	79.7417	637.207	80.9377	637.207	80.0567	637.207	81.6856	637.207	80.8171	637.207	82.1037	637.207	81.6111	637.207	82.0842
659.18	87.0139	659.18	86.7509	659.18	87.0511	659.18	86.2704	659.18	86.869	659.18	85.6009	659.18	86.4853	659.18	84.7929	659.18	85.9273	659.18	83.9125	659.18	85.2311	659.18	83.0287	659.18	84.4418	659.18	82.1968	659.18	83.6129	659.18	81.4375	659.18	82.7899	659.18	80.7219	659.18	81.9721	659.18	79.99	659.18	81.1144	659.18	79.2287	659.18	80.2351	659.18	78.5913	659.18	79.5297	659.18	78.4123	659.18	79.2191	659.18	78.8763	659.18	79.2491	659.18	79.7052	659.18	79.45	659.18	80.4504	659.18	79.818	659.18	80.8264	659.18	80.3293	659.18	80.7515
682.617	87.2479	682.617	86.9029	682.617	87.2931	682.617	86.2773	682.617	87.0494	682.617	85.4347	682.617	86.545	682.617	84.4884	682.617	85.8192	682.617	83.5796	682.617	84.9191	682.617	82.8159	682.617	83.9012	682.617	82.2074	682.617	82.8473	682.617	81.6663	682.617	81.8984	682.617	81.0738	682.617	81.225	682.617	80.3517	682.617	80.8511	682.617	79.5228	682.617	80.5537	682.617	78.7767	682.617	80.078	682.617	78.4666	682.617	79.43	682.617	78.823	682.617	78.9981	682.617	79.6301	682.617	79.2183	682.617	80.4497	682.617	79.9446	682.617	80.9681	682.617	80.666	682.617	81.0457
707.52	87.247	707.52	86.8862	707.52	87.3126	707.52	86.2522	707.52	87.0892	707.52	85.411	707.52	86.6027	707.52	84.4765	707.52	85.8966	707.52	83.5763	707.52	85.028	707.52	82.7812	707.52	84.0566	707.52	82.0675	707.52	83.0324	707.52	81.3633	707.52	81.9864	707.52	80.6232	707.52	80.9471	707.52	79.8633	707.52	80.0116	707.52	79.1584	707.52	79.3956	707.52	78.6482	707.52	79.2091	707.52	78.5466	707.52	79.2027	707.52	78.998	707.52	79.1243	707.52	79.8326	707.52	79.1689	707.52	80.6522	707.52	79.69	707.52	81.1186	707.52	80.4918	707.52	81.061
732.422	87.3683	732.422	87.16	732.422	87.277	732.422	86.6473	732.422	86.9216	732.422	85.8595	732.422	86.3542	732.422	84.856	732.422	85.6204	732.422	83.7307	732.422	84.7451	732.422	82.6259	732.422	83.7392	732.422	81.7205	732.422	82.6343	732.422	81.1266	732.422	81.5419	732.422	80.7569	732.422	80.6681	732.422	80.3722	732.422	80.1451	732.422	79.7741	732.422	79.8291	732.422	78.9745	732.422	79.4747	732.422	78.3139	732.422	79.0541	732.422	78.3021	732.422	78.7896	732.422	78.9607	732.422	78.8966	732.422	79.7569	732.422	79.3463	732.422	80.245	732.422	79.9014	732.422	80.2723
757.324	87.7586	757.324	87.4475	757.324	87.7087	757.324	86.7815	757.324	87.3267	757.324	85.8158	757.324	86.669	757.324	84.6638	757.324	85.8114	757.324	83.4816	757.324	84.8254	757.324	82.4207	757.324	83.75	757.324	81.5814	757.324	82.6096	757.324	81.0097	757.324	81.4867	757.324	80.6826	757.324	80.5502	757.324	80.4524	757.324	79.9203	757.324	80.0948	757.324	79.5427	757.324	79.5233	757.324	79.3061	757.324	79.0188	757.324	79.1323	757.324	79.1066	757.324	78.9757	757.324	79.821	757.324	78.9843	757.324	80.6066	757.324	79.4387	757.324	81.0059	757.324	80.2218	757.324	80.8548
785.156	87.8528	785.156	87.4631	785.156	87.9255	785.156	86.7931	785.156	87.6756	785.156	85.9144	785.156	87.1231	785.156	84.934	785.156	86.3031	785.156	83.981	785.156	85.2546	785.156	83.1531	785.156	84.0257	785.156	82.4368	785.156	82.6918	785.156	81.6967	785.156	81.3601	785.156	80.7837	785.156	80.136	785.156	79.6746	785.156	79.1002	785.156	78.536	785.156	78.3486	785.156	77.6463	785.156	77.9378	785.156	77.2457	785.156	77.7401	785.156	77.472	785.156	77.6124	785.156	78.2234	785.156	77.6852	785.156	79.0815	785.156	78.192	785.156	79.5993	785.156	78.9705	785.156	79.5485
811.523	87.5881	811.523	87.4075	811.523	87.4943	811.523	86.9461	811.523	87.1567	811.523	86.2369	811.523	86.613	811.523	85.3522	811.523	85.9028	811.523	84.3855	811.523	85.0508	811.523	83.4242	811.523	84.0278	811.523	82.5206	811.523	82.7636	811.523	81.6843	811.523	81.2932	811.523	80.8921	811.523	79.8677	811.523	80.0859	811.523	78.7052	811.523	79.1787	811.523	77.7653	811.523	78.1528	811.523	77.1215	811.523	77.2821	811.523	76.9305	811.523	77.1943	811.523	77.029	811.523	78.0905	811.523	77.4224	811.523	79.2786	811.523	78.3602	811.523	80.0687	811.523	79.4855	811.523	80.1507
840.82	88.092	840.82	87.9916	840.82	87.8538	840.82	87.5388	840.82	87.3436	840.82	86.7601	840.82	86.6796	840.82	85.7204	840.82	85.9774	840.82	84.53	840.82	85.2571	840.82	83.3325	840.82	84.4071	840.82	82.2469	840.82	83.2599	840.82	81.3215	840.82	81.7256	840.82	80.566	840.82	79.9521	840.82	79.9663	840.82	78.3661	840.82	79.4182	840.82	77.2767	840.82	78.7508	840.82	76.6656	840.82	77.9769	840.82	76.5933	840.82	77.6357	840.82	76.9635	840.82	78.3732	840.82	77.5154	840.82	79.6936	840.82	78.455	840.82	80.6103	840.82	79.7414	840.82	80.6291
870.117	87.6327	870.117	87.53	870.117	87.3432	870.117	87.0143	870.117	86.762	870.117	86.1429	870.117	86.0428	870.117	85.0405	870.117	85.325	870.117	83.8867	870.117	84.642	870.117	82.8777	870.117	83.8838	870.117	82.109	870.117	82.8696	870.117	81.4713	870.117	81.4898	870.117	80.748	870.117	79.8757	870.117	79.823	870.117	78.4693	870.117	78.788	870.117	77.6582	870.117	77.8612	870.117	77.3373	870.117	77.2242	870.117	77.1777	870.117	77.0801	870.117	77.0074	870.117	77.6568	870.117	77.0502	870.117	78.7134	870.117	77.8055	870.117	79.5664	870.117	78.977	870.117	79.6959
900.879	87.6758	900.879	87.7674	900.879	87.2587	900.879	87.4269	900.879	86.6434	900.879	86.5943	900.879	85.9578	900.879	85.3033	900.879	85.2961	900.879	83.7505	900.879	84.6607	900.879	82.2879	900.879	83.9438	900.879	81.1722	900.879	82.9979	900.879	80.3562	900.879	81.724	900.879	79.722	900.879	80.1274	900.879	79.263	900.879	78.3929	900.879	78.9298	900.879	77.0425	900.879	78.5286	900.879	76.778	900.879	77.8934	900.879	77.2864	900.879	77.2773	900.879	77.4283	900.879	77.5541	900.879	77.0122	900.879	78.8342	900.879	77.4473	900.879	79.9505	900.879	79.0169	900.879	80.0741
933.105	86.9433	933.105	87.1637	933.105	86.3672	933.105	86.942	933.105	85.583	933.105	86.2207	933.105	84.7963	933.105	84.9702	933.105	84.1489	933.105	83.2448	933.105	83.6043	933.105	81.3089	933.105	83.0318	933.105	79.6639	933.105	82.322	933.105	78.6131	933.105	81.4034	933.105	77.9277	933.105	80.2915	933.105	77.3696	933.105	79.1281	933.105	77.0691	933.105	78.0331	933.105	77.1792	933.105	77.1504	933.105	77.4648	933.105	76.8991	933.105	77.664	933.105	77.042	933.105	77.9062	933.105	76.6008	933.105	78.3662	933.105	75.9595	933.105	78.6707	933.105	76.8128	933.105	78.1838
965.332	85.887	965.332	86.1207	965.332	85.4373	965.332	86.0155	965.332	84.9129	965.332	85.494	965.332	84.3968	965.332	84.5201	965.332	83.8771	965.332	83.1274	965.332	83.308	965.332	81.5237	965.332	82.6356	965.332	80.1397	965.332	81.7641	965.332	79.2416	965.332	80.6027	965.332	78.5235	965.332	79.1756	965.332	77.5747	965.332	77.6867	965.332	76.5115	965.332	76.4467	965.332	75.9996	965.332	75.6135	965.332	76.1862	965.332	75.1398	965.332	76.4454	965.332	75.0515	965.332	76.5675	965.332	75.263	965.332	76.8397	965.332	75.6567	965.332	77.1852	965.332	76.3788	965.332	77.0723
1,000.49	87.0071	1,000.49	87.2109	1,000.49	86.6152	1,000.49	87.0505	1,000.49	86.1764	1,000.49	86.3762	1,000.49	85.7302	1,000.49	85.0932	1,000.49	85.2405	1,000.49	83.1912	1,000.49	84.6658	1,000.49	80.8248	1,000.49	83.9367	1,000.49	78.5374	1,000.49	82.9161	1,000.49	77.2414	1,000.49	81.5474	1,000.49	77.0462	1,000.49	80.2008	1,000.49	77.0041	1,000.49	79.5497	1,000.49	76.5697	1,000.49	79.4668	1,000.49	76.2311	1,000.49	79.2114	1,000.49	76.8353	1,000.49	78.5228	1,000.49	78.1449	1,000.49	77.3159	1,000.49	79.3944	1,000.49	75.0705	1,000.49	80.1894	1,000.49	73.7358	1,000.49	80.2834	1,000.49	76.7035	1,000.49	79.2783
1,035.64	88.9185	1,035.64	89.2456	1,035.64	88.4659	1,035.64	89.2317	1,035.64	87.9837	1,035.64	88.6644	1,035.64	87.4709	1,035.64	87.4245	1,035.64	86.9572	1,035.64	85.4741	1,035.64	86.4985	1,035.64	82.8032	1,035.64	86.0526	1,035.64	79.5582	1,035.64	85.4134	1,035.64	76.9535	1,035.64	84.3035	1,035.64	77.1345	1,035.64	82.6032	1,035.64	78.3071	1,035.64	80.5756	1,035.64	78.4356	1,035.64	79.0635	1,035.64	77.4275	1,035.64	79.0651	1,035.64	76.4407	1,035.64	80.1135	1,035.64	77.3726	1,035.64	80.6065	1,035.64	79.335	1,035.64	79.2822	1,035.64	80.5936	1,035.64	76.0207	1,035.64	80.5991	1,035.64	75.9146	1,035.64	79.0251
1,072.27	88.3683	1,072.27	88.4214	1,072.27	88.0975	1,072.27	88.223	1,072.27	87.6229	1,072.27	87.607	1,072.27	87.008	1,072.27	86.3387	1,072.27	86.3061	1,072.27	84.3528	1,072.27	85.4843	1,072.27	81.9496	1,072.27	84.4753	1,072.27	79.8677	1,072.27	83.2805	1,072.27	78.9801	1,072.27	82.0437	1,072.27	78.8835	1,072.27	81.035	1,072.27	78.3355	1,072.27	80.2426	1,072.27	76.9472	1,072.27	79.1757	1,072.27	75.2889	1,072.27	78.0081	1,072.27	74.7134	1,072.27	78.3633	1,072.27	75.8691	1,072.27	79.3678	1,072.27	77.5627	1,072.27	78.9618	1,072.27	78.6164	1,072.27	76.8227	1,072.27	78.4281	1,072.27	75.1582	1,072.27	76.792
1,108.89	88.808	1,108.89	88.4661	1,108.89	88.7417	1,108.89	87.7962	1,108.89	88.2832	1,108.89	86.8766	1,108.89	87.5173	1,108.89	85.6964	1,108.89	86.5176	1,108.89	84.2575	1,108.89	85.4048	1,108.89	82.6484	1,108.89	84.42	1,108.89	80.8799	1,108.89	83.5723	1,108.89	79.1362	1,108.89	82.4584	1,108.89	78.2414	1,108.89	80.9321	1,108.89	78.1608	1,108.89	79.6087	1,108.89	77.7055	1,108.89	78.833	1,108.89	76.2955	1,108.89	77.7744	1,108.89	74.3297	1,108.89	77.7009	1,108.89	73.615	1,108.89	79.4908	1,108.89	75.1021	1,108.89	79.959	1,108.89	76.8713	1,108.89	78.3538	1,108.89	77.6534	1,108.89	76.6734	1,108.89	77.179
1,148.44	89.4422	1,148.44	89.2484	1,148.44	89.2041	1,148.44	88.5886	1,148.44	88.6503	1,148.44	87.5444	1,148.44	87.8843	1,148.44	86.3178	1,148.44	86.8592	1,148.44	85.1422	1,148.44	85.4919	1,148.44	84.0608	1,148.44	83.9684	1,148.44	82.8074	1,148.44	82.6401	1,148.44	81.097	1,148.44	81.4436	1,148.44	79.4263	1,148.44	80.0424	1,148.44	78.9938	1,148.44	79.1463	1,148.44	78.9791	1,148.44	79.4129	1,148.44	77.8823	1,148.44	79.0404	1,148.44	75.0728	1,148.44	77.8387	1,148.44	72.2293	1,148.44	78.8774	1,148.44	75.3088	1,148.44	79.95	1,148.44	78.1493	1,148.44	78.9694	1,148.44	78.7574	1,148.44	77.3994	1,148.44	77.8391
1,189.45	88.8446	1,189.45	88.7732	1,189.45	88.5811	1,189.45	88.1368	1,189.45	88.1416	1,189.45	86.9404	1,189.45	87.4647	1,189.45	85.5202	1,189.45	86.4238	1,189.45	84.2708	1,189.45	84.995	1,189.45	83.2619	1,189.45	83.3884	1,189.45	82.2439	1,189.45	82.1596	1,189.45	80.9048	1,189.45	81.3867	1,189.45	79.3813	1,189.45	80.1226	1,189.45	78.738	1,189.45	78.3208	1,189.45	79.1012	1,189.45	77.6473	1,189.45	79.0554	1,189.45	77.4834	1,189.45	77.3725	1,189.45	76.6945	1,189.45	73.4916	1,189.45	77.5196	1,189.45	73.2844	1,189.45	77.942	1,189.45	76.6001	1,189.45	76.4206	1,189.45	77.8898	1,189.45	76.0746	1,189.45	77.4446
1,230.47	88.4446	1,230.47	88.2394	1,230.47	88.1382	1,230.47	87.5704	1,230.47	87.6689	1,230.47	86.7256	1,230.47	87.2257	1,230.47	85.7787	1,230.47	86.5379	1,230.47	84.5524	1,230.47	85.3913	1,230.47	82.9734	1,230.47	83.8497	1,230.47	81.2103	1,230.47	82.0701	1,230.47	79.5793	1,230.47	80.2645	1,230.47	78.5288	1,230.47	78.5055	1,230.47	78.5208	1,230.47	76.5608	1,230.47	79.3267	1,230.47	75.3556	1,230.47	79.8396	1,230.47	75.4996	1,230.47	79.0254	1,230.47	75.9676	1,230.47	76.1492	1,230.47	77.1937	1,230.47	73.1916	1,230.47	77.5786	1,230.47	75.7196	1,230.47	75.8896	1,230.47	77.3487	1,230.47	74.1316	1,230.47	76.1484
1,274.41	87.419	1,274.41	87.5777	1,274.41	87.247	1,274.41	87.257	1,274.41	87.1793	1,274.41	86.2836	1,274.41	86.8401	1,274.41	84.945	1,274.41	86.0524	1,274.41	83.5808	1,274.41	84.9256	1,274.41	82.1131	1,274.41	83.4882	1,274.41	80.4531	1,274.41	81.5704	1,274.41	78.7256	1,274.41	79.4032	1,274.41	76.6095	1,274.41	78.1205	1,274.41	74.6445	1,274.41	77.4549	1,274.41	75.6581	1,274.41	76.5385	1,274.41	77.2661	1,274.41	75.8659	1,274.41	76.9849	1,274.41	74.943	1,274.41	74.1407	1,274.41	75.4062	1,274.41	71.4795	1,274.41	77.2079	1,274.41	74.0674	1,274.41	76.4744	1,274.41	75.4424	1,274.41	73.9134	1,274.41	74.3551
1,319.82	86.6395	1,319.82	86.5427	1,319.82	86.7694	1,319.82	86.3462	1,319.82	86.8299	1,319.82	85.6098	1,319.82	86.6445	1,319.82	84.1147	1,319.82	85.9855	1,319.82	82.16	1,319.82	84.7324	1,319.82	80.1458	1,319.82	82.9527	1,319.82	78.4645	1,319.82	80.865	1,319.82	77.6253	1,319.82	78.6007	1,319.82	76.6672	1,319.82	76.0659	1,319.82	74.5133	1,319.82	73.7577	1,319.82	73.4811	1,319.82	73.8352	1,319.82	75.7919	1,319.82	74.5637	1,319.82	76.9682	1,319.82	74.4667	1,319.82	74.4453	1,319.82	75.8379	1,319.82	68.6065	1,319.82	76.825	1,319.82	70.8182	1,319.82	75.9807	1,319.82	74.2107	1,319.82	74.6896	1,319.82	74.8082
1,366.7	85.9908	1,366.7	85.7557	1,366.7	86.0855	1,366.7	85.3391	1,366.7	86.0926	1,366.7	84.6196	1,366.7	85.8946	1,366.7	83.472	1,366.7	85.308	1,366.7	81.8593	1,366.7	84.1763	1,366.7	79.6639	1,366.7	82.2708	1,366.7	76.8229	1,366.7	79.6179	1,366.7	73.9649	1,366.7	77.0702	1,366.7	72.2771	1,366.7	75.4832	1,366.7	70.6613	1,366.7	73.8794	1,366.7	69.707	1,366.7	72.6694	1,366.7	72.927	1,366.7	72.7882	1,366.7	75.9054	1,366.7	72.6748	1,366.7	74.9496	1,366.7	74.4212	1,366.7	70.2049	1,366.7	75.0074	1,366.7	68.4168	1,366.7	73.4811	1,366.7	71.0829	1,366.7	72.4833	1,366.7	72.1275
1,413.57	84.8987	1,413.57	84.4308	1,413.57	85.4126	1,413.57	83.9738	1,413.57	85.5407	1,413.57	83.4445	1,413.57	85.0163	1,413.57	82.9069	1,413.57	84.0825	1,413.57	81.7397	1,413.57	83.0626	1,413.57	79.0632	1,413.57	81.7365	1,413.57	75.2385	1,413.57	79.899	1,413.57	72.2206	1,413.57	78.3796	1,413.57	71.6227	1,413.57	77.2828	1,413.57	71.5184	1,413.57	74.1609	1,413.57	71.1148	1,413.57	69.1928	1,413.57	72.1723	1,413.57	69.6678	1,413.57	75.5418	1,413.57	70.4821	1,413.57	76.1268	1,413.57	72.3763	1,413.57	73.0671	1,413.57	72.4852	1,413.57	70.6141	1,413.57	72.8099	1,413.57	70.3315	1,413.57	71.6223	1,413.57	69.0284
1,463.38	84.8886	1,463.38	83.7011	1,463.38	85.6353	1,463.38	82.5958	1,463.38	85.35	1,463.38	81.8611	1,463.38	84.079	1,463.38	81.282	1,463.38	82.6094	1,463.38	80.2936	1,463.38	81.4939	1,463.38	78.7235	1,463.38	80.4777	1,463.38	77.1358	1,463.38	79.1814	1,463.38	75.8073	1,463.38	78.2416	1,463.38	73.7295	1,463.38	77.3116	1,463.38	72.8061	1,463.38	74.9115	1,463.38	72.5614	1,463.38	72.2119	1,463.38	71.1152	1,463.38	68.6952	1,463.38	74.5007	1,463.38	65.4755	1,463.38	74.837	1,463.38	72.5467	1,463.38	69.7222	1,463.38	72.8226	1,463.38	61.9387	1,463.38	72.02	1,463.38	63.3741	1,463.38	71.512	1,463.38	67.9475
1,516.11	87.2393	1,516.11	85.5736	1,516.11	88.0206	1,516.11	83.8874	1,516.11	87.4644	1,516.11	82.3492	1,516.11	86.0489	1,516.11	80.5127	1,516.11	84.509	1,516.11	78.0957	1,516.11	83.1622	1,516.11	75.7457	1,516.11	81.2567	1,516.11	75.6163	1,516.11	78.2487	1,516.11	76.6293	1,516.11	76.1877	1,516.11	75.705	1,516.11	75.5826	1,516.11	74.2645	1,516.11	74.7335	1,516.11	73.8075	1,516.11	74.7449	1,516.11	70.2976	1,516.11	71.7625	1,516.11	69.311	1,516.11	55.8114	1,516.11	71.6059	1,516.11	71.3372	1,516.11	69.6073	1,516.11	73.6719	1,516.11	67.611	1,516.11	74.5611	1,516.11	71.6782	1,516.11	75.0537	1,516.11	73.8713
1,568.85	87.1593	1,568.85	86.6926	1,568.85	87.1457	1,568.85	85.6617	1,568.85	86.3394	1,568.85	83.5368	1,568.85	84.5751	1,568.85	80.5265	1,568.85	81.9093	1,568.85	78.1072	1,568.85	78.591	1,568.85	76.4887	1,568.85	73.4963	1,568.85	75.1517	1,568.85	63.8159	1,568.85	74.6181	1,568.85	58.3718	1,568.85	72.7777	1,568.85	63.666	1,568.85	70.956	1,568.85	63.8401	1,568.85	72.7448	1,568.85	68.8606	1,568.85	71.6495	1,568.85	69.9128	1,568.85	68.4352	1,568.85	62.3225	1,568.85	71.4975	1,568.85	64.5855	1,568.85	71.1638	1,568.85	71.6927	1,568.85	69.1047	1,568.85	72.3636	1,568.85	71.2532	1,568.85	72.0091	1,568.85	72.8426
1,624.51	85.7195	1,624.51	86.4987	1,624.51	84.5964	1,624.51	86.6567	1,624.51	83.5352	1,624.51	85.8982	1,624.51	82.1712	1,624.51	84.1227	1,624.51	79.4945	1,624.51	81.8378	1,624.51	76.3492	1,624.51	79.6678	1,624.51	75.004	1,624.51	78.2226	1,624.51	75.913	1,624.51	78.5741	1,624.51	75.2043	1,624.51	78.205	1,624.51	74.9788	1,624.51	76.587	1,624.51	73.4341	1,624.51	78.5137	1,624.51	65.404	1,624.51	78.1963	1,624.51	73.0338	1,624.51	74.3666	1,624.51	73.8364	1,624.51	74.2033	1,624.51	62.7286	1,624.51	73.6935	1,624.51	70.3612	1,624.51	71.9747	1,624.51	74.6765	1,624.51	73.1405	1,624.51	72.5235	1,624.51	71.7755
1,681.64	83.9666	1,681.64	84.7513	1,681.64	83.9197	1,681.64	85.1866	1,681.64	83.7739	1,681.64	85.0115	1,681.64	81.8488	1,681.64	83.6509	1,681.64	79.7984	1,681.64	81.0441	1,681.64	79.5648	1,681.64	79.208	1,681.64	79.0708	1,681.64	78.8983	1,681.64	79.0403	1,681.64	79.1367	1,681.64	78.0084	1,681.64	78.1297	1,681.64	76.1191	1,681.64	74.6196	1,681.64	75.6236	1,681.64	75.4391	1,681.64	73.6091	1,681.64	76.7429	1,681.64	72.8339	1,681.64	74.4522	1,681.64	74.366	1,681.64	74.303	1,681.64	68.3984	1,681.64	73.7675	1,681.64	65.2641	1,681.64	69.4105	1,681.64	71.618	1,681.64	70.3428	1,681.64	71.4344	1,681.64	71.5923
1,741.7	84.2101	1,741.7	84.6144	1,741.7	85.0844	1,741.7	87.3565	1,741.7	84.4059	1,741.7	88.5237	1,741.7	84.8116	1,741.7	86.7924	1,741.7	83.9381	1,741.7	83.064	1,741.7	82.3698	1,741.7	81.4334	1,741.7	84.7352	1,741.7	81.1681	1,741.7	86.1094	1,741.7	81.1462	1,741.7	85.3043	1,741.7	81.1968	1,741.7	83.4965	1,741.7	75.6942	1,741.7	82.586	1,741.7	74.3997	1,741.7	82.1585	1,741.7	76.4086	1,741.7	77.9738	1,741.7	75.7527	1,741.7	71.9027	1,741.7	77.1952	1,741.7	73.848	1,741.7	78.3608	1,741.7	73.1782	1,741.7	74.1452	1,741.7	72.8591	1,741.7	71.1873	1,741.7	74.5542	1,741.7	70.3215
1,803.22	80.1041	1,803.22	76.9371	1,803.22	84.3349	1,803.22	81.9197	1,803.22	87.3545	1,803.22	85.722	1,803.22	86.8068	1,803.22	85.328	1,803.22	85.0534	1,803.22	83.5953	1,803.22	86.7781	1,803.22	81.1829	1,803.22	87.0248	1,803.22	76.4417	1,803.22	84.2823	1,803.22	67.2754	1,803.22	82.0692	1,803.22	70.0295	1,803.22	81.5777	1,803.22	58.8648	1,803.22	81.2111	1,803.22	72.0461	1,803.22	81.9306	1,803.22	67.3309	1,803.22	81.5418	1,803.22	76.8437	1,803.22	77.2475	1,803.22	78.7644	1,803.22	69.3233	1,803.22	78.3974	1,803.22	76.0455	1,803.22	74.0509	1,803.22	75.2858	1,803.22	68.5008	1,803.22	69.6081	1,803.22	66.4499
1,866.21	83.997	1,866.21	77.733	1,866.21	86.8467	1,866.21	70.2393	1,866.21	86.9966	1,866.21	75.9774	1,866.21	85.2192	1,866.21	78.8678	1,866.21	83.8154	1,866.21	79.8144	1,866.21	82.9517	1,866.21	77.5894	1,866.21	79.9639	1,866.21	73.581	1,866.21	74.8268	1,866.21	73.3791	1,866.21	72.088	1,866.21	74.2075	1,866.21	70.2307	1,866.21	75.1323	1,866.21	58.2759	1,866.21	75.0616	1,866.21	68.4921	1,866.21	74.1235	1,866.21	73.4215	1,866.21	72.2471	1,866.21	73.0457	1,866.21	71.0036	1,866.21	70.5526	1,866.21	70.0336	1,866.21	67.3931	1,866.21	67.324	1,866.21	69.3764	1,866.21	64.7562	1,866.21	70.001	1,866.21	54.0035
1,932.13	84.7661	1,932.13	81.1653	1,932.13	86.2907	1,932.13	75.1268	1,932.13	86.3672	1,932.13	73.1892	1,932.13	84.4127	1,932.13	75.7265	1,932.13	80.1395	1,932.13	76.6005	1,932.13	76.669	1,932.13	74.2844	1,932.13	74.8704	1,932.13	71.8046	1,932.13	71.734	1,932.13	71.6515	1,932.13	67.6555	1,932.13	72.5431	1,932.13	71.1802	1,932.13	74.2471	1,932.13	69.4115	1,932.13	73.1246	1,932.13	64.6373	1,932.13	72.3267	1,932.13	67.3416	1,932.13	70.8178	1,932.13	63.836	1,932.13	67.69	1,932.13	68.8239	1,932.13	65.0227	1,932.13	68.8287	1,932.13	64.3471	1,932.13	64.657	1,932.13	50.96	1,932.13	68.2462	1,932.13	65.9316
1,999.51	83.5577	1,999.51	81.076	1,999.51	85.1135	1,999.51	76.4641	1,999.51	85.7435	1,999.51	75.6501	1,999.51	83.025	1,999.51	77.0605	1,999.51	78.9567	1,999.51	76.9791	1,999.51	75.1551	1,999.51	75.3253	1,999.51	69.3431	1,999.51	74.1033	1,999.51	72.8925	1,999.51	73.5962	1,999.51	69.9106	1,999.51	72.2876	1,999.51	66.8789	1,999.51	73.0469	1,999.51	69.724	1,999.51	71.5403	1,999.51	66.0137	1,999.51	67.7404	1,999.51	66.715	1,999.51	70.606	1,999.51	56.7799	1,999.51	69.668	1,999.51	70.3108	1,999.51	65.2019	1,999.51	70.5434	1,999.51	60.4664	1,999.51	70.1052	1,999.51	52.4733	1,999.51	69.5738	1,999.51	66.7891
2,069.82	83.6333	2,069.82	79.5782	2,069.82	84.8921	2,069.82	76.1112	2,069.82	83.7817	2,069.82	77.426	2,069.82	81.6674	2,069.82	79.5808	2,069.82	79.0542	2,069.82	79.3388	2,069.82	74.1831	2,069.82	77.5904	2,069.82	76.9744	2,069.82	77.0136	2,069.82	78.2794	2,069.82	74.5932	2,069.82	75.3085	2,069.82	69.6064	2,069.82	73.78	2,069.82	65.3742	2,069.82	75.3266	2,069.82	68.6251	2,069.82	68.1873	2,069.82	56.4783	2,069.82	69.7473	2,069.82	48.9341	2,069.82	66.6045	2,069.82	68.9746	2,069.82	66.1786	2,069.82	71.2405	2,069.82	70.234	2,069.82	64.2984	2,069.82	71.443	2,069.82	53	2,069.82	69.0376	2,069.82	68.8749
2,143.07	84.0221	2,143.07	78.6943	2,143.07	85.8494	2,143.07	71.505	2,143.07	84.551	2,143.07	76.9258	2,143.07	81.0649	2,143.07	79.3155	2,143.07	78.2376	2,143.07	76.8468	2,143.07	77.2795	2,143.07	77.05	2,143.07	75.4533	2,143.07	78.7598	2,143.07	74.0626	2,143.07	77.4065	2,143.07	71.5007	2,143.07	76.7837	2,143.07	58.8232	2,143.07	74.8171	2,143.07	68.9453	2,143.07	68.4716	2,143.07	68.3773	2,143.07	69.502	2,143.07	73.0235	2,143.07	70.1958	2,143.07	66.062	2,143.07	71.565	2,143.07	71.1768	2,143.07	71.4737	2,143.07	70.2948	2,143.07	62.0884	2,143.07	73.5989	2,143.07	53.786	2,143.07	73.7353	2,143.07	64.6201
2,219.24	85.1594	2,219.24	80.7048	2,219.24	86.7979	2,219.24	75.4863	2,219.24	85.1776	2,219.24	78.1205	2,219.24	79.6513	2,219.24	79.3076	2,219.24	73.1998	2,219.24	77.9355	2,219.24	71.2949	2,219.24	76.9881	2,219.24	73.7293	2,219.24	77.8145	2,219.24	77.0842	2,219.24	76.3443	2,219.24	77.1279	2,219.24	74.5318	2,219.24	72.2106	2,219.24	76.2159	2,219.24	69.494	2,219.24	73.5775	2,219.24	66.1943	2,219.24	69.7876	2,219.24	69.9122	2,219.24	71.134	2,219.24	65.9892	2,219.24	67.9644	2,219.24	69.3872	2,219.24	69.0127	2,219.24	72.6396	2,219.24	65.1414	2,219.24	69.2475	2,219.24	61.2776	2,219.24	73.4214	2,219.24	62.4959
2,296.88	83.6734	2,296.88	79.2418	2,296.88	85.9064	2,296.88	75.2037	2,296.88	85.3491	2,296.88	78.9262	2,296.88	80.2956	2,296.88	79.9837	2,296.88	71.3182	2,296.88	80.5423	2,296.88	71.1227	2,296.88	81.1616	2,296.88	71.2338	2,296.88	77.9394	2,296.88	76.4913	2,296.88	76.6314	2,296.88	77.5094	2,296.88	78.5101	2,296.88	73.8939	2,296.88	76.2853	2,296.88	69.5023	2,296.88	74.5502	2,296.88	65.7632	2,296.88	71.4922	2,296.88	68.3439	2,296.88	69.3972	2,296.88	70.1313	2,296.88	72.3098	2,296.88	54.4423	2,296.88	72.6227	2,296.88	70.2272	2,296.88	64.5382	2,296.88	68.7399	2,296.88	62.859	2,296.88	71.0337	2,296.88	58.4833
2,378.91	82.3317	2,378.91	77.8434	2,378.91	83.8323	2,378.91	75.0127	2,378.91	83.1849	2,378.91	79.6199	2,378.91	79.2576	2,378.91	81.5167	2,378.91	72.1837	2,378.91	81.8489	2,378.91	76.5605	2,378.91	79.8821	2,378.91	78.1328	2,378.91	77.1499	2,378.91	77.6544	2,378.91	79.1433	2,378.91	77.9598	2,378.91	80.4875	2,378.91	72.5829	2,378.91	78.3377	2,378.91	72.3847	2,378.91	73.5139	2,378.91	72.1197	2,378.91	72.2468	2,378.91	59.2166	2,378.91	70.5607	2,378.91	69.7536	2,378.91	66.9442	2,378.91	61.5984	2,378.91	70.8746	2,378.91	67.0492	2,378.91	61.2891	2,378.91	69.4508	2,378.91	63.136	2,378.91	70.4529	2,378.91	62.1747
2,462.4	82.59	2,462.4	75.2378	2,462.4	84.0674	2,462.4	74.2779	2,462.4	81.8336	2,462.4	79.4418	2,462.4	75.2842	2,462.4	82.7482	2,462.4	70.6827	2,462.4	83.146	2,462.4	77.2754	2,462.4	80.5678	2,462.4	78.6877	2,462.4	77.9811	2,462.4	78.1623	2,462.4	76.7437	2,462.4	76.3614	2,462.4	74.7408	2,462.4	71.5859	2,462.4	71.9085	2,462.4	70.9134	2,462.4	70.958	2,462.4	69.6793	2,462.4	69.4795	2,462.4	67.419	2,462.4	70.3607	2,462.4	71.8478	2,462.4	70.0838	2,462.4	66.4671	2,462.4	68.9741	2,462.4	63.7117	2,462.4	66.0503	2,462.4	67.0857	2,462.4	33.6012	2,462.4	71.1911	2,462.4	65.8253
2,548.83	81.9381	2,548.83	72.2979	2,548.83	84.0413	2,548.83	74.2455	2,548.83	81.524	2,548.83	81.8931	2,548.83	74.5137	2,548.83	83.7557	2,548.83	72.6937	2,548.83	81.9583	2,548.83	77.4582	2,548.83	80.6535	2,548.83	79.1769	2,548.83	78.3989	2,548.83	78.0509	2,548.83	72.735	2,548.83	77.7101	2,548.83	73.2546	2,548.83	73.6585	2,548.83	71.9453	2,548.83	65.8737	2,548.83	68.9171	2,548.83	62.434	2,548.83	69.3665	2,548.83	69.3537	2,548.83	68.7297	2,548.83	71.6964	2,548.83	70.3966	2,548.83	67.5078	2,548.83	69.776	2,548.83	63.9952	2,548.83	65.9016	2,548.83	62.2072	2,548.83	58.0248	2,548.83	71.9381	2,548.83	69.2957
2,639.65	79.9741	2,639.65	70.0661	2,639.65	83.3714	2,639.65	75.9596	2,639.65	82.4704	2,639.65	82.4355	2,639.65	75.9776	2,639.65	82.9119	2,639.65	72.2677	2,639.65	81.688	2,639.65	77.7541	2,639.65	80.7439	2,639.65	79.6403	2,639.65	78.3069	2,639.65	79.9601	2,639.65	74.3219	2,639.65	77.4856	2,639.65	69.8912	2,639.65	72.0161	2,639.65	68.3063	2,639.65	70.7272	2,639.65	63.6672	2,639.65	69.7012	2,639.65	65.2871	2,639.65	66.3931	2,639.65	70.2408	2,639.65	73.014	2,639.65	68.8995	2,639.65	67.9667	2,639.65	68.444	2,639.65	63.6762	2,639.65	64.6254	2,639.65	65.3204	2,639.65	46.1964	2,639.65	73.0395	2,639.65	70.3243
2,731.93	78.0493	2,731.93	58.7242	2,731.93	81.4771	2,731.93	78.0975	2,731.93	81.1106	2,731.93	82.6268	2,731.93	74.9164	2,731.93	82.9825	2,731.93	70.6051	2,731.93	82.2704	2,731.93	78.399	2,731.93	80.0035	2,731.93	80.2096	2,731.93	74.5507	2,731.93	79.8193	2,731.93	70.4596	2,731.93	75.9732	2,731.93	69.8767	2,731.93	47.8014	2,731.93	66.3461	2,731.93	64.8156	2,731.93	64.9361	2,731.93	70.9441	2,731.93	59.604	2,731.93	69.8377	2,731.93	66.1507	2,731.93	72.8191	2,731.93	69.5407	2,731.93	69.9311	2,731.93	69.4449	2,731.93	59.4511	2,731.93	64.578	2,731.93	65.9823	2,731.93	56.0959	2,731.93	71.6805	2,731.93	65.3561
2,828.61	77.3552	2,828.61	66.6262	2,828.61	80.9954	2,828.61	78.5107	2,828.61	80.5185	2,828.61	82.1555	2,828.61	73.4503	2,828.61	82.5544	2,828.61	70.4418	2,828.61	80.0009	2,828.61	79.7174	2,828.61	75.1106	2,828.61	80.2627	2,828.61	69.3104	2,828.61	80.8209	2,828.61	68.6411	2,828.61	77.8163	2,828.61	70.0812	2,828.61	63.7958	2,828.61	67.2662	2,828.61	62.0756	2,828.61	63.317	2,828.61	71.7658	2,828.61	55.5724	2,828.61	70.8621	2,828.61	59.2926	2,828.61	71.6943	2,828.61	63.2824	2,828.61	68.2856	2,828.61	65.8913	2,828.61	62.2983	2,828.61	64.3912	2,828.61	62.8608	2,828.61	56.0503	2,828.61	71.0948	2,828.61	64.8673
2,928.22	78.4867	2,928.22	73.7218	2,928.22	81.3207	2,928.22	78.4344	2,928.22	80.0464	2,928.22	81.535	2,928.22	69.7908	2,928.22	81.192	2,928.22	73.7644	2,928.22	77.201	2,928.22	80.4389	2,928.22	71.8589	2,928.22	80.9613	2,928.22	71.2753	2,928.22	81.4074	2,928.22	69.0321	2,928.22	76.2888	2,928.22	64.9871	2,928.22	70.667	2,928.22	66.7563	2,928.22	67.7446	2,928.22	68.0092	2,928.22	74.0675	2,928.22	66.0348	2,928.22	69.9533	2,928.22	59.7739	2,928.22	71.2166	2,928.22	55.7374	2,928.22	66.7599	2,928.22	65.3052	2,928.22	59.9849	2,928.22	63.3563	2,928.22	66.9882	2,928.22	62.6559	2,928.22	70.5395	2,928.22	54.4466
3,030.76	80.4232	3,030.76	76.4021	3,030.76	81.4399	3,030.76	79.1492	3,030.76	80.4524	3,030.76	81.45	3,030.76	72.1236	3,030.76	80.2751	3,030.76	74.3162	3,030.76	78.4155	3,030.76	80.4416	3,030.76	75.756	3,030.76	80.8607	3,030.76	73.3833	3,030.76	81.2822	3,030.76	70.7407	3,030.76	76.111	3,030.76	72.1153	3,030.76	72.7263	3,030.76	72.2306	3,030.76	69.2256	3,030.76	70.2283	3,030.76	75.5647	3,030.76	69.2517	3,030.76	70.1626	3,030.76	66.2196	3,030.76	72.8189	3,030.76	63.2695	3,030.76	68.0353	3,030.76	62.6819	3,030.76	63.1384	3,030.76	65.3445	3,030.76	66.3443	3,030.76	62.4637	3,030.76	71.1001	3,030.76	63.6
3,137.7	81.5887	3,137.7	77.104	3,137.7	81.8888	3,137.7	79.8029	3,137.7	79.8215	3,137.7	82.1027	3,137.7	74.4364	3,137.7	81.7889	3,137.7	71.992	3,137.7	79.51	3,137.7	80.4832	3,137.7	76.7529	3,137.7	81.5935	3,137.7	74.4746	3,137.7	80.4352	3,137.7	75.6855	3,137.7	77.2536	3,137.7	74.8849	3,137.7	73.1426	3,137.7	69.9176	3,137.7	70.2673	3,137.7	70.1714	3,137.7	73.8489	3,137.7	68.6206	3,137.7	70.8548	3,137.7	65.2162	3,137.7	71.9951	3,137.7	64.7734	3,137.7	68.7465	3,137.7	64.1063	3,137.7	60.6844	3,137.7	61.0447	3,137.7	67.4064	3,137.7	63.7375	3,137.7	71.3766	3,137.7	65.9505
3,249.02	82.6407	3,249.02	78.2668	3,249.02	82.7511	3,249.02	80.4058	3,249.02	79.4917	3,249.02	82.8045	3,249.02	76.008	3,249.02	82.2873	3,249.02	72.6881	3,249.02	80.5041	3,249.02	79.7146	3,249.02	78.6181	3,249.02	82.2937	3,249.02	77.3629	3,249.02	80.7737	3,249.02	74.6658	3,249.02	78.7223	3,249.02	68.628	3,249.02	74.737	3,249.02	70.9284	3,249.02	72.9609	3,249.02	71.9991	3,249.02	72.1251	3,249.02	69.3072	3,249.02	70.2718	3,249.02	66.8691	3,249.02	70.4272	3,249.02	64.8906	3,249.02	69.9885	3,249.02	61.8143	3,249.02	60.6424	3,249.02	62.6524	3,249.02	66.52	3,249.02	60.086	3,249.02	71.4601	3,249.02	66.6698
3,363.28	83.0594	3,363.28	78.4128	3,363.28	83.3868	3,363.28	80.7974	3,363.28	80.1474	3,363.28	83.4133	3,363.28	77.9052	3,363.28	82.9308	3,363.28	77.381	3,363.28	80.91	3,363.28	78.858	3,363.28	78.025	3,363.28	81.8063	3,363.28	73.831	3,363.28	81.6937	3,363.28	73.0386	3,363.28	80.5608	3,363.28	74.5235	3,363.28	77.1575	3,363.28	72.7167	3,363.28	75.1556	3,363.28	69.5877	3,363.28	71.5613	3,363.28	68.9182	3,363.28	69.2673	3,363.28	67.7322	3,363.28	68.3493	3,363.28	66.4689	3,363.28	68.8205	3,363.28	64.3058	3,363.28	57.4294	3,363.28	60.0695	3,363.28	69.2873	3,363.28	58.8269	3,363.28	71.6617	3,363.28	64.6871
3,481.93	83.2551	3,481.93	78.3772	3,481.93	84.1382	3,481.93	82.227	3,481.93	80.6562	3,481.93	84.2579	3,481.93	80.4646	3,481.93	83.2331	3,481.93	79.8824	3,481.93	80.4632	3,481.93	78.3825	3,481.93	76.6808	3,481.93	80.7235	3,481.93	75.1346	3,481.93	80.1544	3,481.93	74.9359	3,481.93	80.1774	3,481.93	72.3261	3,481.93	77.7258	3,481.93	70.877	3,481.93	77.3806	3,481.93	71.362	3,481.93	74.1874	3,481.93	68.5057	3,481.93	71.6727	3,481.93	66.6183	3,481.93	68.5176	3,481.93	67.8746	3,481.93	66.3781	3,481.93	67.2184	3,481.93	51.7055	3,481.93	62.403	3,481.93	69.4331	3,481.93	57.669	3,481.93	70.1611	3,481.93	65.7892
3,604.98	84.9158	3,604.98	80.1411	3,604.98	85.6263	3,604.98	83.1213	3,604.98	81.4209	3,604.98	84.0545	3,604.98	82.1506	3,604.98	82.4208	3,604.98	82.1652	3,604.98	78.6351	3,604.98	78.4603	3,604.98	76.8732	3,604.98	79.9157	3,604.98	77.4429	3,604.98	79.0873	3,604.98	74.785	3,604.98	78.764	3,604.98	74.0798	3,604.98	74.9836	3,604.98	73.8177	3,604.98	74.1637	3,604.98	72.3571	3,604.98	73.7139	3,604.98	69.7426	3,604.98	73.4565	3,604.98	67.4242	3,604.98	66.6772	3,604.98	65.5659	3,604.98	66.7862	3,604.98	66.1603	3,604.98	45.2865	3,604.98	63.5567	3,604.98	69.2212	3,604.98	52.8418	3,604.98	70.3503	3,604.98	68.1056
3,732.42	84.3779	3,732.42	79.3971	3,732.42	86.6572	3,732.42	82.6692	3,732.42	83.1763	3,732.42	83.781	3,732.42	82.9361	3,732.42	81.9746	3,732.42	85.4771	3,732.42	78.5683	3,732.42	81.6621	3,732.42	79.827	3,732.42	80.1991	3,732.42	78.6545	3,732.42	79.0967	3,732.42	77.4795	3,732.42	75.8332	3,732.42	76.4548	3,732.42	69.7222	3,732.42	73.6712	3,732.42	69.4953	3,732.42	73.5623	3,732.42	70.0191	3,732.42	71.7963	3,732.42	74.4429	3,732.42	69.3501	3,732.42	67.3166	3,732.42	68.0794	3,732.42	64.7449	3,732.42	65.3671	3,732.42	44.3068	3,732.42	65.1148	3,732.42	67.8277	3,732.42	50.0341	3,732.42	70.0211	3,732.42	68.2747
3,864.26	82.3543	3,864.26	78.8405	3,864.26	85.1603	3,864.26	82.5135	3,864.26	83.8176	3,864.26	84.5117	3,864.26	84.7142	3,864.26	82.1652	3,864.26	86.1186	3,864.26	81.0046	3,864.26	81.8997	3,864.26	81.2425	3,864.26	79.0106	3,864.26	80.3161	3,864.26	79.8026	3,864.26	78.2117	3,864.26	76.1017	3,864.26	74.9219	3,864.26	69.8709	3,864.26	74.3129	3,864.26	59.4186	3,864.26	73.0075	3,864.26	69.3165	3,864.26	71.7653	3,864.26	71.5231	3,864.26	69.9553	3,864.26	68.8679	3,864.26	70.3255	3,864.26	61.6318	3,864.26	67.7046	3,864.26	56.1285	3,864.26	62.6886	3,864.26	66.623	3,864.26	46.2973	3,864.26	70.3874	3,864.26	67.9437
4,000.49	83.3343	4,000.49	80.7697	4,000.49	84.6741	4,000.49	84.0499	4,000.49	82.9823	4,000.49	83.9238	4,000.49	85.9048	4,000.49	82.3528	4,000.49	86.2384	4,000.49	83.1302	4,000.49	81.6163	4,000.49	81.4503	4,000.49	79.6725	4,000.49	79.0123	4,000.49	78.7254	4,000.49	77.1454	4,000.49	74.6058	4,000.49	76.9193	4,000.49	72.3624	4,000.49	75.4143	4,000.49	69.386	4,000.49	74.0376	4,000.49	65.7874	4,000.49	71.8133	4,000.49	72.1854	4,000.49	68.7882	4,000.49	67.4637	4,000.49	70.5564	4,000.49	59.7238	4,000.49	70.072	4,000.49	57.3075	4,000.49	62.5978	4,000.49	64.9248	4,000.49	53.9636	4,000.49	69.4184	4,000.49	68.5207
4,141.11	82.6409	4,141.11	81.5303	4,141.11	84.5807	4,141.11	84.5824	4,141.11	82.5044	4,141.11	84.5335	4,141.11	86.0259	4,141.11	83.5974	4,141.11	86.8698	4,141.11	83.8005	4,141.11	82.514	4,141.11	81.5792	4,141.11	81.1986	4,141.11	80.5789	4,141.11	79.7878	4,141.11	79.525	4,141.11	73.7394	4,141.11	76.8163	4,141.11	66.0684	4,141.11	75.7426	4,141.11	66.6917	4,141.11	73.8593	4,141.11	68.5583	4,141.11	73.6796	4,141.11	74.2776	4,141.11	70.0225	4,141.11	68.204	4,141.11	71.6523	4,141.11	66.6315	4,141.11	71.0661	4,141.11	59.6858	4,141.11	65.7797	4,141.11	61.5434	4,141.11	48.9538	4,141.11	71.1561	4,141.11	68.3772
4,287.6	83.4866	4,287.6	81.9181	4,287.6	85.2836	4,287.6	84.2608	4,287.6	81.9307	4,287.6	84.544	4,287.6	84.9164	4,287.6	84.7192	4,287.6	86.5117	4,287.6	83.3725	4,287.6	82.8427	4,287.6	81.7829	4,287.6	81.674	4,287.6	81.5529	4,287.6	80.244	4,287.6	77.8458	4,287.6	72.1439	4,287.6	76.6242	4,287.6	57.3229	4,287.6	76.189	4,287.6	65.4027	4,287.6	73.7813	4,287.6	69.6322	4,287.6	72.3816	4,287.6	75.6615	4,287.6	69.3115	4,287.6	66.7157	4,287.6	69.6281	4,287.6	68.2726	4,287.6	70.9568	4,287.6	64.0153	4,287.6	66.0322	4,287.6	61.9412	4,287.6	52.9466	4,287.6	72.3576	4,287.6	68.2251
4,438.48	83.721	4,438.48	83.4205	4,438.48	85.2904	4,438.48	84.6199	4,438.48	84.2631	4,438.48	84.6352	4,438.48	84.9385	4,438.48	84.3867	4,438.48	86.0278	4,438.48	82.939	4,438.48	83.0562	4,438.48	82.5557	4,438.48	81.9417	4,438.48	80.3375	4,438.48	80.4401	4,438.48	78.096	4,438.48	71.9814	4,438.48	75.5067	4,438.48	73.1211	4,438.48	72.6653	4,438.48	60.6114	4,438.48	73.7777	4,438.48	68.2801	4,438.48	71.4641	4,438.48	75.4427	4,438.48	69.0428	4,438.48	64.5531	4,438.48	68.3386	4,438.48	67.1737	4,438.48	69.848	4,438.48	62.9576	4,438.48	65.8561	4,438.48	65.3626	4,438.48	59.9036	4,438.48	70.7094	4,438.48	68.8889
4,595.21	85.2514	4,595.21	83.6521	4,595.21	85.1689	4,595.21	84.7981	4,595.21	84.5138	4,595.21	85.8189	4,595.21	86.0849	4,595.21	84.1427	4,595.21	85.7358	4,595.21	82.7996	4,595.21	82.6351	4,595.21	82.0291	4,595.21	80.3008	4,595.21	79.6149	4,595.21	76.9904	4,595.21	76.4114	4,595.21	77.2507	4,595.21	75.0115	4,595.21	73.0176	4,595.21	74.5241	4,595.21	63.5824	4,595.21	71.2304	4,595.21	61.4628	4,595.21	70.9769	4,595.21	71.2086	4,595.21	70.4848	4,595.21	65.9983	4,595.21	67.2571	4,595.21	63.5708	4,595.21	69.255	4,595.21	62.6061	4,595.21	65.8622	4,595.21	65.6368	4,595.21	58.8367	4,595.21	69.2161	4,595.21	61.297
4,756.35	85.2021	4,756.35	83.285	4,756.35	85.6136	4,756.35	84.9257	4,756.35	83.7782	4,756.35	84.9667	4,756.35	85.2163	4,756.35	83.2202	4,756.35	84.6649	4,756.35	83.5602	4,756.35	80.9108	4,756.35	81.6411	4,756.35	77.5485	4,756.35	79.6118	4,756.35	76.097	4,756.35	78.5421	4,756.35	79.7604	4,756.35	75.8526	4,756.35	74.4526	4,756.35	73.6487	4,756.35	60.4041	4,756.35	71.8138	4,756.35	62.698	4,756.35	70.767	4,756.35	71.0181	4,756.35	68.6525	4,756.35	62.8241	4,756.35	68.9501	4,756.35	66.694	4,756.35	69.4005	4,756.35	65.1711	4,756.35	68.5173	4,756.35	64.2174	4,756.35	56.127	4,756.35	70.0717	4,756.35	63.5663
4,924.8	85.5872	4,924.8	83.077	4,924.8	85.4878	4,924.8	85.3217	4,924.8	84.5488	4,924.8	85.0354	4,924.8	85.2483	4,924.8	84.054	4,924.8	85.0687	4,924.8	83.8169	4,924.8	81.4856	4,924.8	82.1657	4,924.8	76.1717	4,924.8	80.955	4,924.8	79.8104	4,924.8	77.0316	4,924.8	79.1293	4,924.8	75.7019	4,924.8	74.0385	4,924.8	73.7118	4,924.8	65.6585	4,924.8	71.2812	4,924.8	62.309	4,924.8	69.9276	4,924.8	70.1691	4,924.8	69.4578	4,924.8	66.9177	4,924.8	68.3233	4,924.8	64.9574	4,924.8	68.6911	4,924.8	64.1135	4,924.8	67.9435	4,924.8	62.9953	4,924.8	63.0535	4,924.8	68.1274	4,924.8	61.2828
5,097.66	85.8561	5,097.66	82.5098	5,097.66	85.7268	5,097.66	85.2504	5,097.66	84.7107	5,097.66	83.4185	5,097.66	85.6955	5,097.66	84.205	5,097.66	84.9889	5,097.66	84.0629	5,097.66	82.3827	5,097.66	82.3016	5,097.66	76.3488	5,097.66	79.8588	5,097.66	82.1008	5,097.66	77.9435	5,097.66	79.3431	5,097.66	76.0035	5,097.66	72.7345	5,097.66	73.2183	5,097.66	70.3021	5,097.66	71.8576	5,097.66	63.5958	5,097.66	68.7474	5,097.66	67.6877	5,097.66	68.8536	5,097.66	66.7855	5,097.66	66.7565	5,097.66	66.2867	5,097.66	67.9113	5,097.66	61.4798	5,097.66	66.1734	5,097.66	60.2353	5,097.66	58.2612	5,097.66	67.3344	5,097.66	55.4499
5,277.83	85.0598	5,277.83	82.349	5,277.83	86.2978	5,277.83	85.5916	5,277.83	83.9257	5,277.83	83.9332	5,277.83	86.3648	5,277.83	85.0445	5,277.83	85.4248	5,277.83	83.3844	5,277.83	83.1664	5,277.83	82.6273	5,277.83	79.19	5,277.83	79.2129	5,277.83	81.8127	5,277.83	77.3326	5,277.83	78.1527	5,277.83	75.4036	5,277.83	72.2821	5,277.83	73.3924	5,277.83	72.5287	5,277.83	71.4936	5,277.83	60.5637	5,277.83	69.4473	5,277.83	66.7973	5,277.83	68.617	5,277.83	61.7162	5,277.83	66.726	5,277.83	67.2289	5,277.83	68.8376	5,277.83	63.4237	5,277.83	67.6007	5,277.83	61.253	5,277.83	60.6339	5,277.83	67.6768	5,277.83	58.1359
5,463.87	83.7608	5,463.87	83.4565	5,463.87	85.7562	5,463.87	85.0198	5,463.87	84.5785	5,463.87	84.1185	5,463.87	85.757	5,463.87	85.0798	5,463.87	85.0655	5,463.87	83.7909	5,463.87	83.7005	5,463.87	82.2941	5,463.87	80.2576	5,463.87	78.9642	5,463.87	79.7428	5,463.87	79.3632	5,463.87	75.6018	5,463.87	75.1126	5,463.87	72.1285	5,463.87	73.4438	5,463.87	69.0308	5,463.87	71.6224	5,463.87	64.0632	5,463.87	68.1694	5,463.87	61.951	5,463.87	68.3984	5,463.87	59.0666	5,463.87	66.5126	5,463.87	65.8675	5,463.87	68.4161	5,463.87	64.8129	5,463.87	66.8194	5,463.87	59.7277	5,463.87	62.4713	5,463.87	66.053	5,463.87	57.6068
5,657.23	84.01	5,657.23	84.792	5,657.23	85.1328	5,657.23	85.7248	5,657.23	84.2193	5,657.23	84.6867	5,657.23	85.0958	5,657.23	85.4387	5,657.23	84.6966	5,657.23	82.8379	5,657.23	83.1405	5,657.23	81.3691	5,657.23	79.2326	5,657.23	78.8367	5,657.23	80.1907	5,657.23	77.4346	5,657.23	75.3318	5,657.23	73.925	5,657.23	66.6257	5,657.23	72.8954	5,657.23	61.7426	5,657.23	71.0256	5,657.23	56.6605	5,657.23	67.7389	5,657.23	65.932	5,657.23	67.0128	5,657.23	56.4236	5,657.23	63.8842	5,657.23	61.7374	5,657.23	68.6694	5,657.23	63.6022	5,657.23	66.1157	5,657.23	54.648	5,657.23	59.421	5,657.23	64.9498	5,657.23	57.2227
5,856.45	84.5555	5,856.45	85.259	5,856.45	84.4363	5,856.45	85.3544	5,856.45	84.4474	5,856.45	84.8991	5,856.45	84.4044	5,856.45	83.9717	5,856.45	84.6417	5,856.45	82.0903	5,856.45	82.9948	5,856.45	81.3156	5,856.45	78.7549	5,856.45	79.0364	5,856.45	81.3715	5,856.45	76.9794	5,856.45	79.1622	5,856.45	71.5983	5,856.45	67.5362	5,856.45	72.7626	5,856.45	63.9235	5,856.45	69.9614	5,856.45	61.2199	5,856.45	68.3634	5,856.45	60.1841	5,856.45	65.2519	5,856.45	63.5859	5,856.45	65.5808	5,856.45	54.1609	5,856.45	68.0352	5,856.45	58.0902	5,856.45	68.3272	5,856.45	48.977	5,856.45	62.8828	5,856.45	66.1271	5,856.45	54.1669
6,062.99	85.1955	6,062.99	84.81	6,062.99	84.5397	6,062.99	85.6569	6,062.99	84.3693	6,062.99	84.2716	6,062.99	84.468	6,062.99	83.4382	6,062.99	83.4686	6,062.99	82.2693	6,062.99	82.6662	6,062.99	81.5245	6,062.99	77.3552	6,062.99	77.9966	6,062.99	79.8205	6,062.99	76.7704	6,062.99	80.432	6,062.99	73.8803	6,062.99	73.0089	6,062.99	71.9076	6,062.99	71.1092	6,062.99	70.0996	6,062.99	59.8521	6,062.99	67.7816	6,062.99	67.6888	6,062.99	65.0932	6,062.99	68.4013	6,062.99	63.3634	6,062.99	56.1323	6,062.99	67.5647	6,062.99	63.1527	6,062.99	68.3098	6,062.99	49.2164	6,062.99	61.7844	6,062.99	63.2344	6,062.99	54.023
6,276.86	85.3501	6,276.86	84.8583	6,276.86	85.1997	6,276.86	85.3296	6,276.86	82.6838	6,276.86	83.4393	6,276.86	83.7188	6,276.86	83.7241	6,276.86	82.8142	6,276.86	82.5633	6,276.86	81.1637	6,276.86	81.0736	6,276.86	73.7402	6,276.86	77.6579	6,276.86	79.4777	6,276.86	75.0337	6,276.86	79.8439	6,276.86	72.4339	6,276.86	72.1827	6,276.86	70.9883	6,276.86	73.5882	6,276.86	69.5865	6,276.86	54.933	6,276.86	67.6004	6,276.86	68.8933	6,276.86	65.0988	6,276.86	66.5971	6,276.86	60.9944	6,276.86	48.1664	6,276.86	66.1768	6,276.86	63.58	6,276.86	68.4651	6,276.86	56.4798	6,276.86	62.777	6,276.86	61.9097	6,276.86	56.517
6,498.05	84.9414	6,498.05	85.0987	6,498.05	85.4073	6,498.05	84.5176	6,498.05	83.1765	6,498.05	83.103	6,498.05	82.8382	6,498.05	84.3184	6,498.05	83.1871	6,498.05	82.4352	6,498.05	81.9792	6,498.05	80.9005	6,498.05	76.3003	6,498.05	77.5996	6,498.05	78.6585	6,498.05	75.7665	6,498.05	76.481	6,498.05	72.269	6,498.05	71.8371	6,498.05	70.2695	6,498.05	71.9366	6,498.05	69.1101	6,498.05	50.3	6,498.05	66.2629	6,498.05	64.7872	6,498.05	66.8863	6,498.05	65.109	6,498.05	61.0408	6,498.05	51.8953	6,498.05	65.6621	6,498.05	61.3454	6,498.05	68.2734	6,498.05	56.1809	6,498.05	64.5978	6,498.05	61.0844	6,498.05	56.6834
6,726.56	85.066	6,726.56	84.8134	6,726.56	85.3076	6,726.56	84.2103	6,726.56	83.5815	6,726.56	83.2276	6,726.56	83.1822	6,726.56	83.9142	6,726.56	82.5773	6,726.56	82.4342	6,726.56	82.7937	6,726.56	80.8034	6,726.56	78.4112	6,726.56	77.4104	6,726.56	76.5729	6,726.56	75.5804	6,726.56	71.5342	6,726.56	72.4807	6,726.56	66.7554	6,726.56	70.7801	6,726.56	67.3562	6,726.56	69.1079	6,726.56	42.63	6,726.56	66.791	6,726.56	62.8205	6,726.56	65.0163	6,726.56	65.6609	6,726.56	60.6423	6,726.56	58.0646	6,726.56	66.522	6,726.56	64.5787	6,726.56	67.683	6,726.56	49.6865	6,726.56	65.0229	6,726.56	61.7101	6,726.56	47.5384
6,963.87	84.5793	6,963.87	84.5672	6,963.87	84.8994	6,963.87	83.2781	6,963.87	83.4653	6,963.87	83.2193	6,963.87	82.3912	6,963.87	83.4461	6,963.87	81.8971	6,963.87	82.3921	6,963.87	82.4069	6,963.87	80.9342	6,963.87	79.2419	6,963.87	77.7389	6,963.87	76.3937	6,963.87	75.7724	6,963.87	63.9494	6,963.87	71.3892	6,963.87	69.2472	6,963.87	70.9108	6,963.87	59.7463	6,963.87	67.8239	6,963.87	48.1029	6,963.87	67.8021	6,963.87	57.3168	6,963.87	63.3447	6,963.87	64.0468	6,963.87	62.4724	6,963.87	60.3165	6,963.87	66.425	6,963.87	65.3985	6,963.87	66.8414	6,963.87	48.533	6,963.87	64.5844	6,963.87	61.5633	6,963.87	50.601
7,209.96	85.2198	7,209.96	85.1563	7,209.96	84.7156	7,209.96	83.3761	7,209.96	83.5485	7,209.96	82.7983	7,209.96	82.7833	7,209.96	83.1953	7,209.96	81.4722	7,209.96	82.6907	7,209.96	81.7046	7,209.96	80.8849	7,209.96	78.6266	7,209.96	78.1662	7,209.96	68.5628	7,209.96	75.7542	7,209.96	73.2141	7,209.96	72.427	7,209.96	72.2045	7,209.96	71.06	7,209.96	63.4172	7,209.96	67.9593	7,209.96	56.12	7,209.96	68.0239	7,209.96	61.9234	7,209.96	64.1966	7,209.96	57.2624	7,209.96	61.1271	7,209.96	61.7128	7,209.96	65.6424	7,209.96	62.657	7,209.96	66.3544	7,209.96	51.0021	7,209.96	65.0157	7,209.96	59.5845	7,209.96	47.8462
7,464.84	84.9467	7,464.84	84.6008	7,464.84	83.9265	7,464.84	82.6232	7,464.84	82.8909	7,464.84	81.815	7,464.84	81.8729	7,464.84	82.3977	7,464.84	80.5911	7,464.84	82.1038	7,464.84	79.436	7,464.84	80.5093	7,464.84	76.7636	7,464.84	78.2119	7,464.84	69.4929	7,464.84	75.5529	7,464.84	74.8872	7,464.84	71.626	7,464.84	71.6804	7,464.84	69.735	7,464.84	61.951	7,464.84	67.2455	7,464.84	58.3291	7,464.84	66.7998	7,464.84	59.3625	7,464.84	62.6857	7,464.84	56.8571	7,464.84	64.4841	7,464.84	57.4282	7,464.84	64.4703	7,464.84	59.7018	7,464.84	66.7922	7,464.84	50.1671	7,464.84	65.664	7,464.84	56.6723	7,464.84	29.1837
7,727.05	84.8856	7,727.05	84.8026	7,727.05	83.1941	7,727.05	82.9634	7,727.05	82.1349	7,727.05	81.0024	7,727.05	81.4714	7,727.05	81.928	7,727.05	79.8409	7,727.05	82.0644	7,727.05	79.0488	7,727.05	80.2833	7,727.05	78.6581	7,727.05	77.2039	7,727.05	74.0586	7,727.05	74.4285	7,727.05	75.8536	7,727.05	71.7722	7,727.05	70.3826	7,727.05	68.8056	7,727.05	58.1825	7,727.05	66.8726	7,727.05	61.3844	7,727.05	67.479	7,727.05	60.5771	7,727.05	62.0706	7,727.05	57.3606	7,727.05	62.6362	7,727.05	60.1523	7,727.05	64.774	7,727.05	61.2612	7,727.05	65.746	7,727.05	50.1154	7,727.05	65.8807	7,727.05	56.8395	7,727.05	42.3993
7,999.51	84.3641	7,999.51	84.8025	7,999.51	83.7745	7,999.51	82.8398	7,999.51	82.2219	7,999.51	81.1716	7,999.51	81.842	7,999.51	81.8816	7,999.51	81.1731	7,999.51	81.0803	7,999.51	78.9014	7,999.51	79.5232	7,999.51	79.649	7,999.51	76.4257	7,999.51	77.4974	7,999.51	72.9944	7,999.51	76.6211	7,999.51	69.335	7,999.51	72.62	7,999.51	68.5106	7,999.51	58.5388	7,999.51	65.0109	7,999.51	60.5275	7,999.51	64.8566	7,999.51	55.8015	7,999.51	62.544	7,999.51	45.3089	7,999.51	63.1315	7,999.51	58.0052	7,999.51	63.7525	7,999.51	60.3455	7,999.51	66.9315	7,999.51	56.3203	7,999.51	65.3008	7,999.51	57.933	7,999.51	53.7366
8,282.23	84.0457	8,282.23	84.5403	8,282.23	83.7663	8,282.23	83.0744	8,282.23	83.0002	8,282.23	81.7256	8,282.23	80.8965	8,282.23	81.1206	8,282.23	80.6835	8,282.23	80.3882	8,282.23	80.0829	8,282.23	78.301	8,282.23	81.4397	8,282.23	75.2448	8,282.23	77.5065	8,282.23	72.7111	8,282.23	73.9063	8,282.23	69.4658	8,282.23	70.4458	8,282.23	66.6607	8,282.23	58.8408	8,282.23	64.421	8,282.23	58.4454	8,282.23	63.7402	8,282.23	57.8137	8,282.23	60.7337	8,282.23	49.607	8,282.23	62.2943	8,282.23	59.5128	8,282.23	61.7905	8,282.23	58.5695	8,282.23	64.9957	8,282.23	53.8519	8,282.23	65.659	8,282.23	55.2844	8,282.23	55.4899
8,573.73	84.8012	8,573.73	85.4388	8,573.73	84.5231	8,573.73	83.7873	8,573.73	84.5563	8,573.73	82.2139	8,573.73	81.8346	8,573.73	81.4339	8,573.73	81.0305	8,573.73	80.2697	8,573.73	81.2943	8,573.73	78.5081	8,573.73	81.073	8,573.73	76.1836	8,573.73	74.7168	8,573.73	73.2068	8,573.73	68.5267	8,573.73	69.0745	8,573.73	67.5883	8,573.73	66.213	8,573.73	62.4865	8,573.73	64.9029	8,573.73	52.3054	8,573.73	63.4856	8,573.73	48.1084	8,573.73	58.2838	8,573.73	48.2456	8,573.73	61.616	8,573.73	59.7211	8,573.73	60.4207	8,573.73	58.5256	8,573.73	64.5406	8,573.73	41.6457	8,573.73	64.5952	8,573.73	52.8231	8,573.73	56.7134
8,876.95	86.9262	8,876.95	87.1424	8,876.95	86.5584	8,876.95	85.7364	8,876.95	85.9987	8,876.95	84.0696	8,876.95	83.2063	8,876.95	81.8003	8,876.95	83.0582	8,876.95	80.7342	8,876.95	81.5959	8,876.95	79.4477	8,876.95	80.2464	8,876.95	76.2274	8,876.95	70.852	8,876.95	72.6841	8,876.95	69.8745	8,876.95	67.862	8,876.95	67.6102	8,876.95	64.401	8,876.95	58.4423	8,876.95	62.1969	8,876.95	52.5393	8,876.95	61.3306	8,876.95	56.0957	8,876.95	53.786	8,876.95	52.5689	8,876.95	61.2059	8,876.95	59.056	8,876.95	57.1876	8,876.95	58.6617	8,876.95	62.1433	8,876.95	48.4481	8,876.95	62.2805	8,876.95	51.8477	8,876.95	52.5639
9,188.96	88.2475	9,188.96	87.9341	9,188.96	87.3929	9,188.96	86.8381	9,188.96	86.8168	9,188.96	84.8887	9,188.96	83.5404	9,188.96	82.2756	9,188.96	81.137	9,188.96	81.3816	9,188.96	81.2552	9,188.96	78.5257	9,188.96	78.8524	9,188.96	75.3312	9,188.96	70.6675	9,188.96	71.2671	9,188.96	72.4308	9,188.96	67.0611	9,188.96	59.0669	9,188.96	63.1983	9,188.96	56.2456	9,188.96	62.8795	9,188.96	55.7803	9,188.96	60.4504	9,188.96	51.4296	9,188.96	51.4966	9,188.96	53.7548	9,188.96	57.4687	9,188.96	56.7584	9,188.96	53.2843	9,188.96	51.311	9,188.96	60.4549	9,188.96	45.7775	9,188.96	60.8696	9,188.96	51.9329	9,188.96	53.4634
9,514.16	88.208	9,514.16	87.8711	9,514.16	87.8745	9,514.16	87.071	9,514.16	86.94	9,514.16	84.5173	9,514.16	83.8121	9,514.16	82.4707	9,514.16	80.4674	9,514.16	80.8048	9,514.16	80.052	9,514.16	77.7012	9,514.16	77.629	9,514.16	74.2742	9,514.16	72.8753	9,514.16	70.4123	9,514.16	72.2679	9,514.16	66.7212	9,514.16	61.6433	9,514.16	62.2279	9,514.16	48.1112	9,514.16	61.4969	9,514.16	56.0514	9,514.16	58.3681	9,514.16	36.5522	9,514.16	54.8259	9,514.16	55.9214	9,514.16	58.2097	9,514.16	51.1363	9,514.16	54.6792	9,514.16	51.9247	9,514.16	59.2906	9,514.16	42.7412	9,514.16	60.0169	9,514.16	46.8295	9,514.16	47.7267
9,849.61	88.2943	9,849.61	87.9246	9,849.61	88.1605	9,849.61	86.8679	9,849.61	86.9754	9,849.61	84.0404	9,849.61	84.1981	9,849.61	82.0671	9,849.61	80.8611	9,849.61	79.8392	9,849.61	80.0568	9,849.61	76.5099	9,849.61	76.7078	9,849.61	71.3206	9,849.61	72.2855	9,849.61	67.3243	9,849.61	69.8177	9,849.61	61.7357	9,849.61	61.2548	9,849.61	58.8013	9,849.61	44.9706	9,849.61	55.6108	9,849.61	55.3354	9,849.61	54.8957	9,849.61	32.2317	9,849.61	50.2255	9,849.61	53.1044	9,849.61	53.0837	9,849.61	54.836	9,849.61	46.9896	9,849.61	42.447	9,849.61	56.7283	9,849.61	51.1202	9,849.61	58.6948	9,849.61	47.5086	9,849.61	51.0769
10,196.8	88.0866	10,196.8	87.9327	10,196.8	88.0889	10,196.8	86.5164	10,196.8	87.0875	10,196.8	83.8144	10,196.8	84.1161	10,196.8	81.9845	10,196.8	80.5752	10,196.8	78.6419	10,196.8	78.6925	10,196.8	73.657	10,196.8	75.4893	10,196.8	68.6203	10,196.8	68.8583	10,196.8	64.7527	10,196.8	67.5177	10,196.8	59.9976	10,196.8	61.749	10,196.8	55.6061	10,196.8	52.9981	10,196.8	55.8333	10,196.8	48.4055	10,196.8	54.1119	10,196.8	47.8427	10,196.8	51.1302	10,196.8	53.5631	10,196.8	54.7286	10,196.8	53.8886	10,196.8	50.6893	10,196.8	48.5504	10,196.8	55.5823	10,196.8	46.8191	10,196.8	57.6817	10,196.8	42.8557	10,196.8	54.0194
10,555.7	87.8023	10,555.7	87.6513	10,555.7	87.5906	10,555.7	86.1582	10,555.7	86.7722	10,555.7	83.5017	10,555.7	83.9916	10,555.7	81.3009	10,555.7	80.4481	10,555.7	77.799	10,555.7	77.2595	10,555.7	73.4046	10,555.7	74.121	10,555.7	67.9089	10,555.7	68.7612	10,555.7	64.1966	10,555.7	69.249	10,555.7	58.7806	10,555.7	58.5002	10,555.7	54.0408	10,555.7	51.0825	10,555.7	55.3879	10,555.7	40.5083	10,555.7	53.3312	10,555.7	33.0004	10,555.7	51.1223	10,555.7	49.018	10,555.7	52.9337	10,555.7	51.3099	10,555.7	51.7474	10,555.7	47.4883	10,555.7	53.6751	10,555.7	44.4581	10,555.7	56.2753	10,555.7	48.974	10,555.7	52.7928
10,927.7	87.6697	10,927.7	87.4682	10,927.7	87.2943	10,927.7	85.8879	10,927.7	86.2958	10,927.7	83.1406	10,927.7	83.627	10,927.7	80.592	10,927.7	79.8631	10,927.7	76.8781	10,927.7	77.4357	10,927.7	71.88	10,927.7	73.3012	10,927.7	63.9043	10,927.7	69.2305	10,927.7	59.6015	10,927.7	66.9427	10,927.7	55.1011	10,927.7	44.5035	10,927.7	53.7496	10,927.7	53.3986	10,927.7	54.4725	10,927.7	46.8369	10,927.7	50.654	10,927.7	43.5173	10,927.7	52.4842	10,927.7	45.5204	10,927.7	51.8141	10,927.7	52.1551	10,927.7	53.3396	10,927.7	44.6828	10,927.7	52.3085	10,927.7	46.882	10,927.7	53.9257	10,927.7	45.2139	10,927.7	53.9286
11,313	87.4753	11,313	87.308	11,313	86.9242	11,313	85.6732	11,313	85.8539	11,313	82.7676	11,313	83.1789	11,313	79.3329	11,313	79.052	11,313	74.9214	11,313	76.3937	11,313	70.1196	11,313	69.9262	11,313	63.0194	11,313	71.1249	11,313	59.3603	11,313	65.7862	11,313	55.0685	11,313	55.2138	11,313	52.754	11,313	53.5996	11,313	55.2892	11,313	49.7538	11,313	50.4895	11,313	43.7919	11,313	53.5065	11,313	45.5744	11,313	52.8946	11,313	53.6934	11,313	53.3575	11,313	38.33	11,313	52.7436	11,313	47.2025	11,313	54.1207	11,313	40.073	11,313	53.5391
11,712.9	87.1152	11,712.9	86.979	11,712.9	86.4062	11,712.9	85.0502	11,712.9	85.0663	11,712.9	81.6124	11,712.9	82.6363	11,712.9	78.0403	11,712.9	78.8173	11,712.9	74.3964	11,712.9	74.1095	11,712.9	68.9872	11,712.9	71.8953	11,712.9	64.4393	11,712.9	70.7515	11,712.9	61.058	11,712.9	64.2048	11,712.9	57.8638	11,712.9	60.0923	11,712.9	53.4015	11,712.9	49.3925	11,712.9	55.6322	11,712.9	42.4868	11,712.9	51.6546	11,712.9	45.661	11,712.9	52.1196	11,712.9	51.7334	11,712.9	53.2232	11,712.9	55.4866	11,712.9	53.1724	11,712.9	42.5751	11,712.9	54.6922	11,712.9	51.1805	11,712.9	55.216	11,712.9	41.1727	11,712.9	51.6346
12,126	86.8255	12,126	86.3684	12,126	86.3145	12,126	84.2327	12,126	84.7875	12,126	80.4488	12,126	82.3462	12,126	76.8562	12,126	78.8524	12,126	72.7836	12,126	74.1382	12,126	66.9445	12,126	72.7334	12,126	65.2477	12,126	68.3726	12,126	62.5338	12,126	66.1767	12,126	60.4761	12,126	57.274	12,126	54.3118	12,126	44.7014	12,126	56.1889	12,126	49.1855	12,126	47.6229	12,126	48.193	12,126	51.8961	12,126	56.9391	12,126	52.6591	12,126	56.2634	12,126	52.1244	12,126	49.8894	12,126	53.3164	12,126	48.1569	12,126	55.6459	12,126	38.4867	12,126	52.0716
12,553.7	87.5439	12,553.7	86.6358	12,553.7	87.0474	12,553.7	84.3941	12,553.7	85.4703	12,553.7	80.2544	12,553.7	83.0026	12,553.7	76.3101	12,553.7	79.4565	12,553.7	71.897	12,553.7	76.0301	12,553.7	68.7806	12,553.7	69.8214	12,553.7	66.5371	12,553.7	68.3365	12,553.7	63.8905	12,553.7	65.7657	12,553.7	60.742	12,553.7	57.5009	12,553.7	55.2918	12,553.7	37.0525	12,553.7	57.5634	12,553.7	49.0946	12,553.7	51.8702	12,553.7	44.9791	12,553.7	52.4158	12,553.7	53.5476	12,553.7	54.2508	12,553.7	54.576	12,553.7	50.6045	12,553.7	47.6821	12,553.7	54.1826	12,553.7	47.6096	12,553.7	56.1136	12,553.7	41.4559	12,553.7	52.1039
12,996.1	88.2697	12,996.1	87.2586	12,996.1	87.7143	12,996.1	84.9737	12,996.1	86.2428	12,996.1	80.7786	12,996.1	82.6162	12,996.1	76.8447	12,996.1	77.4226	12,996.1	73.268	12,996.1	73.8782	12,996.1	70.7841	12,996.1	65.4974	12,996.1	69.3304	12,996.1	67.0827	12,996.1	67.1779	12,996.1	62.917	12,996.1	64.2864	12,996.1	56.2896	12,996.1	58.8006	12,996.1	42.4551	12,996.1	60.0136	12,996.1	48.7323	12,996.1	54.6337	12,996.1	39.3018	12,996.1	55.0805	12,996.1	51.0885	12,996.1	56.1211	12,996.1	52.7271	12,996.1	52.4628	12,996.1	47.4894	12,996.1	55.0132	12,996.1	42.6838	12,996.1	58.1652	12,996.1	48.006	12,996.1	51.5128
13,454.6	88.1218	13,454.6	87.2426	13,454.6	87.358	13,454.6	85.1587	13,454.6	85.6453	13,454.6	81.5102	13,454.6	81.4718	13,454.6	76.9714	13,454.6	75.7293	13,454.6	75.2352	13,454.6	67.4581	13,454.6	73.3669	13,454.6	67.9351	13,454.6	71.6309	13,454.6	70.665	13,454.6	68.8535	13,454.6	61.8431	13,454.6	66.0458	13,454.6	51.7819	13,454.6	61.0105	13,454.6	48.7972	13,454.6	61.3458	13,454.6	41.5921	13,454.6	55.3451	13,454.6	42.2782	13,454.6	56.5453	13,454.6	54.5744	13,454.6	56.7959	13,454.6	50.6268	13,454.6	52.3473	13,454.6	39.3445	13,454.6	58.1149	13,454.6	40.5547	13,454.6	59.7728	13,454.6	46.0225	13,454.6	52.8438
13,929.2	87.8472	13,929.2	87.3331	13,929.2	86.5758	13,929.2	85.675	13,929.2	84.636	13,929.2	82.2185	13,929.2	79.7332	13,929.2	77.746	13,929.2	74.3146	13,929.2	76.4078	13,929.2	66.305	13,929.2	73.858	13,929.2	72.8081	13,929.2	71.8979	13,929.2	70.0532	13,929.2	68.794	13,929.2	60.7271	13,929.2	65.5559	13,929.2	59.5254	13,929.2	60.6528	13,929.2	51.4027	13,929.2	61.0465	13,929.2	32.9005	13,929.2	54.6936	13,929.2	41.122	13,929.2	56.4266	13,929.2	52.9794	13,929.2	56.1994	13,929.2	55.866	13,929.2	53.2039	13,929.2	33.9404	13,929.2	59.2457	13,929.2	39.7708	13,929.2	60.2218	13,929.2	48.6835	13,929.2	50.7163
14,419.9	87.489	14,419.9	87.3929	14,419.9	85.9844	14,419.9	85.7447	14,419.9	83.5831	14,419.9	82.3633	14,419.9	78.5002	14,419.9	77.6483	14,419.9	73.4046	14,419.9	75.2523	14,419.9	73.206	14,419.9	73.0108	14,419.9	74.8612	14,419.9	71.3017	14,419.9	68.8863	14,419.9	67.1327	14,419.9	64.2376	14,419.9	64.0681	14,419.9	60.2951	14,419.9	58.5703	14,419.9	53.8711	14,419.9	58.6162	14,419.9	46.6321	14,419.9	54.8116	14,419.9	48.3762	14,419.9	55.5736	14,419.9	53.5151	14,419.9	53.6289	14,419.9	55.5064	14,419.9	52.1365	14,419.9	42.6018	14,419.9	58.1763	14,419.9	44.5518	14,419.9	59.8484	14,419.9	49.5819	14,419.9	51.541
14,928.2	87.3952	14,928.2	87.4158	14,928.2	85.9644	14,928.2	85.6711	14,928.2	83.312	14,928.2	81.986	14,928.2	78.8758	14,928.2	76.7395	14,928.2	75.3483	14,928.2	74.0598	14,928.2	75.0265	14,928.2	72.4407	14,928.2	73.3511	14,928.2	69.4731	14,928.2	71.9038	14,928.2	65.8676	14,928.2	64.9776	14,928.2	62.5016	14,928.2	60.5368	14,928.2	56.8864	14,928.2	50.8278	14,928.2	57.3426	14,928.2	49.8372	14,928.2	54.5726	14,928.2	52.4129	14,928.2	52.5179	14,928.2	45.2899	14,928.2	53.0038	14,928.2	47.5133	14,928.2	52.5031	14,928.2	46.438	14,928.2	58.0792	14,928.2	33.793	14,928.2	59.8684	14,928.2	46.5546	14,928.2	53.3025
15,455.6	88.107	15,455.6	87.8662	15,455.6	86.5211	15,455.6	85.6972	15,455.6	83.6458	15,455.6	81.6461	15,455.6	79.596	15,455.6	75.7008	15,455.6	75.4591	15,455.6	72.9842	15,455.6	74.4141	15,455.6	70.9034	15,455.6	73.3788	15,455.6	69.4431	15,455.6	72.9814	15,455.6	65.5031	15,455.6	63.7285	15,455.6	62.1941	15,455.6	61.0302	15,455.6	56.6442	15,455.6	51.9026	15,455.6	56.0722	15,455.6	40.1131	15,455.6	55.5631	15,455.6	49.0734	15,455.6	52.4798	15,455.6	47.1053	15,455.6	51.2197	15,455.6	49.237	15,455.6	53.4229	15,455.6	45.8438	15,455.6	56.9307	15,455.6	48.5608	15,455.6	58.1637	15,455.6	53.1074	15,455.6	52.2965
16,000.5	88.2865	16,000.5	87.7362	16,000.5	87.168	16,000.5	85.1543	16,000.5	83.5807	16,000.5	80.7598	16,000.5	79.6812	16,000.5	74.5493	16,000.5	77.2717	16,000.5	71.9308	16,000.5	73.232	16,000.5	69.8023	16,000.5	74.226	16,000.5	69.9709	16,000.5	70.3242	16,000.5	65.7362	16,000.5	67.4316	16,000.5	62.1201	16,000.5	57.7337	16,000.5	56.4126	16,000.5	54.0135	16,000.5	55.4049	16,000.5	48.2716	16,000.5	54.3618	16,000.5	37.6857	16,000.5	47.8595	16,000.5	44.9656	16,000.5	50.3787	16,000.5	41.9823	16,000.5	53.5141	16,000.5	48.7288	16,000.5	55.445	16,000.5	49.5409	16,000.5	57.0972	16,000.5	50.9923	16,000.5	43.3909
16,564.5	87.6395	16,564.5	86.8242	16,564.5	86.778	16,564.5	83.8127	16,564.5	83.5488	16,564.5	79.3721	16,564.5	80.1145	16,564.5	73.1742	16,564.5	76.8283	16,564.5	70.4028	16,564.5	74.4101	16,564.5	69.9995	16,564.5	70.4748	16,564.5	69.2782	16,564.5	69.6352	16,564.5	65.4519	16,564.5	62.4057	16,564.5	60.853	16,564.5	57.3372	16,564.5	55.3774	16,564.5	55.8749	16,564.5	53.808	16,564.5	46.7243	16,564.5	52.6551	16,564.5	42.2767	16,564.5	47.2128	16,564.5	48.0173	16,564.5	49.2456	16,564.5	41.7292	16,564.5	50.2959	16,564.5	44.2314	16,564.5	52.3175	16,564.5	47.4691	16,564.5	53.099	16,564.5	49.087	16,564.5	42.5834
17,148.9	86.6213	17,148.9	85.6379	17,148.9	85.7435	17,148.9	82.1329	17,148.9	83.4279	17,148.9	77.1197	17,148.9	80.108	17,148.9	70.4218	17,148.9	76.2489	17,148.9	68.0443	17,148.9	72.3723	17,148.9	68.3292	17,148.9	71.5663	17,148.9	67.5276	17,148.9	68.5528	17,148.9	63.0353	17,148.9	61.2369	17,148.9	58.6993	17,148.9	60.1386	17,148.9	54.0402	17,148.9	57.1552	17,148.9	49.9596	17,148.9	46.702	17,148.9	51.0044	17,148.9	37.4989	17,148.9	44.1074	17,148.9	43.6346	17,148.9	44.5372	17,148.9	46.7119	17,148.9	45.9958	17,148.9	41.7168	17,148.9	50.6943	17,148.9	40.7007	17,148.9	49.6628	17,148.9	42.1668	17,148.9	33.4699
17,752.4	84.8608	17,752.4	83.3985	17,752.4	84.1579	17,752.4	79.1764	17,752.4	82.2154	17,752.4	72.661	17,752.4	79.0933	17,752.4	65.298	17,752.4	75.1286	17,752.4	66.29	17,752.4	69.5793	17,752.4	66.708	17,752.4	66.3251	17,752.4	64.7409	17,752.4	56.399	17,752.4	60.4304	17,752.4	57.819	17,752.4	55.6054	17,752.4	60.0905	17,752.4	50.492	17,752.4	55.946	17,752.4	47.3515	17,752.4	39.3522	17,752.4	46.4118	17,752.4	43.0774	17,752.4	39.8655	17,752.4	41.4557	17,752.4	36.4484	17,752.4	38.602	17,752.4	42.4185	17,752.4	42.8024	17,752.4	49.2643	17,752.4	38.8667	17,752.4	45.9618	17,752.4	37.0387	17,752.4	33.7388
18,379.4	83.377	18,379.4	81.497	18,379.4	82.8327	18,379.4	76.2941	18,379.4	80.7033	18,379.4	68.6705	18,379.4	77.4978	18,379.4	66.3011	18,379.4	72.8678	18,379.4	67.6413	18,379.4	69.4627	18,379.4	66.3708	18,379.4	67.1662	18,379.4	63.1437	18,379.4	60.8437	18,379.4	58.1343	18,379.4	62.9655	18,379.4	53.5156	18,379.4	59.2118	18,379.4	48.3785	18,379.4	58.1901	18,379.4	46.2456	18,379.4	37.5317	18,379.4	40.9996	18,379.4	43.9921	18,379.4	42.7687	18,379.4	35.9543	18,379.4	38.0218	18,379.4	28.2283	18,379.4	40.655	18,379.4	31.8388	18,379.4	49.1134	18,379.4	38.9798	18,379.4	41.671	18,379.4	33.0645	18,379.4	34.3425
19,026.9	83.4437	19,026.9	81.1905	19,026.9	82.8399	19,026.9	75.869	19,026.9	80.0789	19,026.9	70.7337	19,026.9	75.8502	19,026.9	69.0919	19,026.9	71.2361	19,026.9	69.2063	19,026.9	69.1031	19,026.9	66.7671	19,026.9	64.365	19,026.9	63.7876	19,026.9	64.7777	19,026.9	59.0509	19,026.9	63.4996	19,026.9	53.2349	19,026.9	57.8426	19,026.9	50.0915	19,026.9	54.3016	19,026.9	47.5854	19,026.9	36.8566	19,026.9	41.616	19,026.9	42.9416	19,026.9	45.0454	19,026.9	38.6772	19,026.9	39.4005	19,026.9	31.0593	19,026.9	40.2308	19,026.9	39.8775	19,026.9	49.0923	19,026.9	39.7826	19,026.9	42.9537	19,026.9	35.2144	19,026.9	34.7448
19,697.8	82.8786	19,697.8	80.3137	19,697.8	82.6725	19,697.8	74.7248	19,697.8	79.8367	19,697.8	70.6559	19,697.8	74.6743	19,697.8	70.7374	19,697.8	68.9458	19,697.8	69.424	19,697.8	64.3993	19,697.8	66.0659	19,697.8	64.7708	19,697.8	63.0292	19,697.8	63.8667	19,697.8	57.8266	19,697.8	56.7479	19,697.8	52.2939	19,697.8	55.3308	19,697.8	48.6633	19,697.8	53.1911	19,697.8	44.9368	19,697.8	47.4323	19,697.8	40.0914	19,697.8	41.0798	19,697.8	42.708	19,697.8	39.6419	19,697.8	40.635	19,697.8	32.2177	19,697.8	40.3953	19,697.8	31.8216	19,697.8	49.2633	19,697.8	39.2545	19,697.8	37.3622	19,697.8	38.5832	19,697.8	26.0253
19,999.5	82.3748	19,999.5	79.4498	19,999.5	82.3098	19,999.5	74.4346	19,999.5	79.9115	19,999.5	70.5816	19,999.5	73.3407	19,999.5	71.2974	19,999.5	65.9748	19,999.5	68.6509	19,999.5	58.408	19,999.5	66.2231	19,999.5	67.2674	19,999.5	61.4988	19,999.5	60.0448	19,999.5	57.3642	19,999.5	59.15	19,999.5	52.6241	19,999.5	53.0376	19,999.5	45.2352	19,999.5	54.9745	19,999.5	39.6001	19,999.5	49.992	19,999.5	43.3124	19,999.5	37.27	19,999.5	45.7783	19,999.5	41.2419	19,999.5	36.4821	19,999.5	51.9692	19,999.5	46.9274	19,999.5	43.4386	19,999.5	53.5904	19,999.5	46.0681	19,999.5	44.4981	19,999.5	48.9942	19,999.5	44.3861
