"SPL Horizontal"																																																																							
"On-Axis"		"10°"		"-10°"		"20°"		"-20°"		"30°"		"-30°"		"40°"		"-40°"		"50°"		"-50°"		"60°"		"-60°"		"70°"		"-70°"		"80°"		"-80°"		"90°"		"-90°"		"100°"		"-100°"		"110°"		"-110°"		"120°"		"-120°"		"130°"		"-130°"		"140°"		"-140°"		"150°"		"-150°"		"160°"		"-160°"		"170°"		"-170°"		"180°"	
"Frequency [Hz]"	"Sound Pessure Level [dB]  / [2.83V 1m] "	"Frequency [Hz]"	"Sound Pessure Level [dB]  / [2.83V 1m] "	"Frequency [Hz]"	"Sound Pessure Level [dB]  / [2.83V 1m] "	"Frequency [Hz]"	"Sound Pessure Level [dB]  / [2.83V 1m] "	"Frequency [Hz]"	"Sound Pessure Level [dB]  / [2.83V 1m] "	"Frequency [Hz]"	"Sound Pessure Level [dB]  / [2.83V 1m] "	"Frequency [Hz]"	"Sound Pessure Level [dB]  / [2.83V 1m] "	"Frequency [Hz]"	"Sound Pessure Level [dB]  / [2.83V 1m] "	"Frequency [Hz]"	"Sound Pessure Level [dB]  / [2.83V 1m] "	"Frequency [Hz]"	"Sound Pessure Level [dB]  / [2.83V 1m] "	"Frequency [Hz]"	"Sound Pessure Level [dB]  / [2.83V 1m] "	"Frequency [Hz]"	"Sound Pessure Level [dB]  / [2.83V 1m] "	"Frequency [Hz]"	"Sound Pessure Level [dB]  / [2.83V 1m] "	"Frequency [Hz]"	"Sound Pessure Level [dB]  / [2.83V 1m] "	"Frequency [Hz]"	"Sound Pessure Level [dB]  / [2.83V 1m] "	"Frequency [Hz]"	"Sound Pessure Level [dB]  / [2.83V 1m] "	"Frequency [Hz]"	"Sound Pessure Level [dB]  / [2.83V 1m] "	"Frequency [Hz]"	"Sound Pessure Level [dB]  / [2.83V 1m] "	"Frequency [Hz]"	"Sound Pessure Level [dB]  / [2.83V 1m] "	"Frequency [Hz]"	"Sound Pessure Level [dB]  / [2.83V 1m] "	"Frequency [Hz]"	"Sound Pessure Level [dB]  / [2.83V 1m] "	"Frequency [Hz]"	"Sound Pessure Level [dB]  / [2.83V 1m] "	"Frequency [Hz]"	"Sound Pessure Level [dB]  / [2.83V 1m] "	"Frequency [Hz]"	"Sound Pessure Level [dB]  / [2.83V 1m] "	"Frequency [Hz]"	"Sound Pessure Level [dB]  / [2.83V 1m] "	"Frequency [Hz]"	"Sound Pessure Level [dB]  / [2.83V 1m] "	"Frequency [Hz]"	"Sound Pessure Level [dB]  / [2.83V 1m] "	"Frequency [Hz]"	"Sound Pessure Level [dB]  / [2.83V 1m] "	"Frequency [Hz]"	"Sound Pessure Level [dB]  / [2.83V 1m] "	"Frequency [Hz]"	"Sound Pessure Level [dB]  / [2.83V 1m] "	"Frequency [Hz]"	"Sound Pessure Level [dB]  / [2.83V 1m] "	"Frequency [Hz]"	"Sound Pessure Level [dB]  / [2.83V 1m] "	"Frequency [Hz]"	"Sound Pessure Level [dB]  / [2.83V 1m] "	"Frequency [Hz]"	"Sound Pessure Level [dB]  / [2.83V 1m] "	"Frequency [Hz]"	"Sound Pessure Level [dB]  / [2.83V 1m] "	"Frequency [Hz]"	"Sound Pessure Level [dB]  / [2.83V 1m] "
20.5078	34.4751	20.5078	34.5172	20.5078	34.251	20.5078	34.3794	20.5078	33.8422	20.5078	34.0697	20.5078	33.2399	20.5078	33.6153	20.5078	32.425	20.5078	33.0859	20.5078	31.3613	20.5078	32.6232	20.5078	29.9866	20.5078	32.4408	20.5078	28.1977	20.5078	32.7217	20.5078	25.8411	20.5078	33.458	20.5078	22.8491	20.5078	34.4537	20.5078	20.5447	20.5078	35.4857	20.5078	22.3857	20.5078	36.4037	20.5078	26.0152	20.5078	37.1287	20.5078	29.1108	20.5078	37.6233	20.5078	31.5496	20.5078	37.8695	20.5078	33.4755	20.5078	37.8562	20.5078	34.992	20.5078	37.5743	20.5078	36.1596	20.5078	37.0134
21.9727	46.7682	21.9727	46.7737	21.9727	46.7101	21.9727	46.7219	21.9727	46.6042	21.9727	46.6083	21.9727	46.455	21.9727	46.4295	21.9727	46.266	21.9727	46.1833	21.9727	46.0404	21.9727	45.8698	21.9727	45.7808	21.9727	45.4926	21.9727	45.4896	21.9727	45.0592	21.9727	45.1699	21.9727	44.5831	21.9727	44.8264	21.9727	44.0833	21.9727	44.4656	21.9727	43.5848	21.9727	44.0961	21.9727	43.1164	21.9727	43.7281	21.9727	42.7074	21.9727	43.3722	21.9727	42.3832	21.9727	43.0385	21.9727	42.1607	21.9727	42.7363	21.9727	42.0454	21.9727	42.474	21.9727	42.0323	21.9727	42.2612	21.9727	42.1092
23.4375	48.3949	23.4375	48.3973	23.4375	48.3602	23.4375	48.3658	23.4375	48.2952	23.4375	48.2983	23.4375	48.2012	23.4375	48.1929	23.4375	48.0799	23.4375	48.0478	23.4375	47.9329	23.4375	47.862	23.4375	47.7617	23.4375	47.6356	23.4375	47.5681	23.4375	47.3709	23.4375	47.3539	23.4375	47.072	23.4375	47.1211	23.4375	46.7467	23.4375	46.8718	23.4375	46.4059	23.4375	46.6087	23.4375	46.0647	23.4375	46.3358	23.4375	45.7413	23.4375	46.0591	23.4375	45.4566	23.4375	45.7874	23.4375	45.2306	23.4375	45.5333	23.4375	45.0803	23.4375	45.3123	23.4375	45.0157	23.4375	45.1417	23.4375	45.0384
24.9023	50.923	24.9023	50.9145	24.9023	50.9145	24.9023	50.888	24.9023	50.8905	24.9023	50.8426	24.9023	50.8522	24.9023	50.7781	24.9023	50.8014	24.9023	50.6946	24.9023	50.7393	24.9023	50.5931	24.9023	50.6674	24.9023	50.4753	24.9023	50.5869	24.9023	50.3442	24.9023	50.4986	24.9023	50.2037	24.9023	50.4036	24.9023	50.0591	24.9023	50.3026	24.9023	49.9166	24.9023	50.1964	24.9023	49.7832	24.9023	50.0862	24.9023	49.6664	24.9023	49.9738	24.9023	49.5729	24.9023	49.8618	24.9023	49.5085	24.9023	49.7542	24.9023	49.4767	24.9023	49.656	24.9023	49.4785	24.9023	49.5732	24.9023	49.5121
26.3672	52.6969	26.3672	52.6671	26.3672	52.7161	26.3672	52.6274	26.3672	52.7244	26.3672	52.5789	26.3672	52.7221	26.3672	52.5233	26.3672	52.7094	26.3672	52.463	26.3672	52.6872	26.3672	52.4008	26.3672	52.6567	26.3672	52.3399	26.3672	52.6192	26.3672	52.2834	26.3672	52.5766	26.3672	52.2337	26.3672	52.5308	26.3672	52.1924	26.3672	52.4837	26.3672	52.1603	26.3672	52.4366	26.3672	52.1371	26.3672	52.3907	26.3672	52.1224	26.3672	52.3464	26.3672	52.1155	26.3672	52.304	26.3672	52.1162	26.3672	52.2637	26.3672	52.1245	26.3672	52.2261	26.3672	52.1402	26.3672	52.1921	26.3672	52.1631
27.832	54.8628	27.832	54.8532	27.832	54.865	27.832	54.836	27.832	54.8598	27.832	54.8118	27.832	54.8479	27.832	54.7812	27.832	54.8297	27.832	54.7453	27.832	54.8063	27.832	54.7057	27.832	54.7786	27.832	54.6644	27.832	54.7481	27.832	54.6234	27.832	54.716	27.832	54.5849	27.832	54.6839	27.832	54.5509	27.832	54.6532	27.832	54.5229	27.832	54.6251	27.832	54.5019	27.832	54.6	27.832	54.4882	27.832	54.5782	27.832	54.4814	27.832	54.5593	27.832	54.4805	27.832	54.5428	27.832	54.4845	27.832	54.528	27.832	54.4922	27.832	54.5145	27.832	54.5025
29.2969	57.2464	29.2969	57.2275	29.2969	57.2548	29.2969	57.1982	29.2969	57.2523	29.2969	57.1596	29.2969	57.2393	29.2969	57.1128	29.2969	57.2166	29.2969	57.0594	29.2969	57.185	29.2969	57.0017	29.2969	57.146	29.2969	56.9419	29.2969	57.1013	29.2969	56.8824	29.2969	57.0527	29.2969	56.8258	29.2969	57.0021	29.2969	56.7741	29.2969	56.9512	29.2969	56.7289	29.2969	56.9014	29.2969	56.6914	29.2969	56.8537	29.2969	56.6624	29.2969	56.8088	29.2969	56.6421	29.2969	56.7673	29.2969	56.6306	29.2969	56.7296	29.2969	56.6279	29.2969	56.6965	29.2969	56.6338	29.2969	56.6689	29.2969	56.6477
30.7617	59.1921	30.7617	59.1942	30.7617	59.1782	30.7617	59.1848	30.7617	59.1526	30.7617	59.1643	30.7617	59.1156	30.7617	59.1337	30.7617	59.068	30.7617	59.0937	30.7617	59.0109	30.7617	59.0458	30.7617	58.9458	30.7617	58.9914	30.7617	58.8745	30.7617	58.932	30.7617	58.7993	30.7617	58.8694	30.7617	58.7227	30.7617	58.8051	30.7617	58.6475	30.7617	58.7405	30.7617	58.5764	30.7617	58.6769	30.7617	58.5124	30.7617	58.6152	30.7617	58.458	30.7617	58.5568	30.7617	58.4156	30.7617	58.5031	30.7617	58.3869	30.7617	58.4559	30.7617	58.3729	30.7617	58.4171	30.7617	58.3739	30.7617	58.3891
32.2266	60.7715	32.2266	60.7666	32.2266	60.7657	32.2266	60.7509	32.2266	60.7491	32.2266	60.7252	32.2266	60.722	32.2266	60.69	32.2266	60.685	32.2266	60.6464	32.2266	60.639	32.2266	60.5959	32.2266	60.5853	32.2266	60.5401	32.2266	60.5256	32.2266	60.4812	32.2266	60.4618	32.2266	60.4211	32.2266	60.3964	32.2266	60.3621	32.2266	60.3319	32.2266	60.3061	32.2266	60.2706	32.2266	60.2546	32.2266	60.2151	32.2266	60.2088	32.2266	60.1673	32.2266	60.1691	32.2266	60.1288	32.2266	60.136	32.2266	60.1008	32.2266	60.1097	32.2266	60.0834	32.2266	60.0904	32.2266	60.0764	32.2266	60.079
33.6914	62.4882	33.6914	62.4808	33.6914	62.4867	33.6914	62.4646	33.6914	62.4762	33.6914	62.4403	33.6914	62.457	33.6914	62.4084	33.6914	62.4297	33.6914	62.3699	33.6914	62.395	33.6914	62.3259	33.6914	62.354	33.6914	62.2779	33.6914	62.308	33.6914	62.2275	33.6914	62.2587	33.6914	62.1764	33.6914	62.2074	33.6914	62.1264	33.6914	62.156	33.6914	62.0792	33.6914	62.106	33.6914	62.0362	33.6914	62.0591	33.6914	61.9985	33.6914	62.0166	33.6914	61.967	33.6914	61.9801	33.6914	61.9422	33.6914	61.9507	33.6914	61.9242	33.6914	61.9291	33.6914	61.9136	33.6914	61.9157	33.6914	61.9106
35.1562	63.9454	35.1562	63.9362	35.1562	63.9456	35.1562	63.9183	35.1562	63.9368	35.1562	63.8923	35.1562	63.9191	35.1562	63.8593	35.1562	63.8933	35.1562	63.8204	35.1562	63.8602	35.1562	63.7772	35.1562	63.8212	35.1562	63.7314	35.1562	63.7777	35.1562	63.6848	35.1562	63.7314	35.1562	63.6391	35.1562	63.6841	35.1562	63.5962	35.1562	63.6375	35.1562	63.5573	35.1562	63.5933	35.1562	63.5233	35.1562	63.5528	35.1562	63.4949	35.1562	63.5174	35.1562	63.4721	35.1562	63.4877	35.1562	63.4547	35.1562	63.4646	35.1562	63.4426	35.1562	63.448	35.1562	63.4356	35.1562	63.4379	35.1562	63.4339
36.6211	65.6622	36.6211	65.6527	36.6211	65.6626	36.6211	65.6346	36.6211	65.654	36.6211	65.6083	36.6211	65.6365	36.6211	65.5747	36.6211	65.6107	36.6211	65.535	36.6211	65.5775	36.6211	65.4903	36.6211	65.5378	36.6211	65.4423	36.6211	65.493	36.6211	65.3925	36.6211	65.4445	36.6211	65.3427	36.6211	65.3939	36.6211	65.2946	36.6211	65.3429	36.6211	65.2496	36.6211	65.2931	36.6211	65.2092	36.6211	65.2462	36.6211	65.174	36.6211	65.2036	36.6211	65.1449	36.6211	65.1668	36.6211	65.1221	36.6211	65.137	36.6211	65.1059	36.6211	65.1149	36.6211	65.0967	36.6211	65.1009	36.6211	65.0949
38.0859	67.0207	38.0859	67.0124	38.0859	67.0191	38.0859	66.9944	38.0859	67.0078	38.0859	66.9673	38.0859	66.9871	38.0859	66.9318	38.0859	66.9578	38.0859	66.8891	38.0859	66.9207	38.0859	66.8407	38.0859	66.8772	38.0859	66.7881	38.0859	66.8286	38.0859	66.7333	38.0859	66.7764	38.0859	66.6782	38.0859	66.7224	38.0859	66.6249	38.0859	66.6682	38.0859	66.5751	38.0859	66.6155	38.0859	66.5303	38.0859	66.5659	38.0859	66.4917	38.0859	66.5211	38.0859	66.4598	38.0859	66.4824	38.0859	66.4352	38.0859	66.451	38.0859	66.4179	38.0859	66.4277	38.0859	66.4082	38.0859	66.4128	38.0859	66.4064
39.5508	68.3578	39.5508	68.3493	39.5508	68.357	39.5508	68.3318	39.5508	68.3468	39.5508	68.3059	39.5508	68.3277	39.5508	68.2724	39.5508	68.3001	39.5508	68.2326	39.5508	68.2652	39.5508	68.1878	39.5508	68.224	39.5508	68.1395	39.5508	68.1781	39.5508	68.0895	39.5508	68.129	39.5508	68.0395	39.5508	68.0784	39.5508	67.9913	39.5508	68.028	39.5508	67.9465	39.5508	67.9795	39.5508	67.9064	39.5508	67.9343	39.5508	67.8719	39.5508	67.8941	39.5508	67.8436	39.5508	67.8599	39.5508	67.8217	39.5508	67.8326	39.5508	67.8064	39.5508	67.8128	39.5508	67.7976	39.5508	67.8004	39.5508	67.7955
41.0156	69.3787	41.0156	69.3817	41.0156	69.3662	41.0156	69.3756	41.0156	69.3446	41.0156	69.361	41.0156	69.3145	41.0156	69.3388	41.0156	69.277	41.0156	69.3105	41.0156	69.2337	41.0156	69.2775	41.0156	69.1868	41.0156	69.2419	41.0156	69.1386	41.0156	69.2053	41.0156	69.0915	41.0156	69.1698	41.0156	69.0481	41.0156	69.1369	41.0156	69.0103	41.0156	69.1078	41.0156	68.9799	41.0156	69.0829	41.0156	68.9579	41.0156	69.062	41.0156	68.9446	41.0156	69.0442	41.0156	68.9399	41.0156	69.0281	41.0156	68.9427	41.0156	69.0126	41.0156	68.9518	41.0156	68.9967	41.0156	68.965	41.0156	68.9805
42.4805	70.6165	42.4805	70.6126	42.4805	70.6079	42.4805	70.5964	42.4805	70.5869	42.4805	70.5683	42.4805	70.5543	42.4805	70.5292	42.4805	70.5107	42.4805	70.4802	42.4805	70.4576	42.4805	70.423	42.4805	70.3964	42.4805	70.3595	42.4805	70.329	42.4805	70.2917	42.4805	70.2576	42.4805	70.2221	42.4805	70.1848	42.4805	70.1528	42.4805	70.1132	42.4805	70.0861	42.4805	70.0451	42.4805	70.024	42.4805	69.9832	42.4805	69.968	42.4805	69.9292	42.4805	69.9195	42.4805	69.8849	42.4805	69.8795	42.4805	69.8512	42.4805	69.8487	42.4805	69.8286	42.4805	69.8278	42.4805	69.8174	42.4805	69.8172
43.9453	71.8086	43.9453	71.8009	43.9453	71.8044	43.9453	71.7815	43.9453	71.7884	43.9453	71.7511	43.9453	71.761	43.9453	71.7105	43.9453	71.7232	43.9453	71.661	43.9453	71.676	43.9453	71.6044	43.9453	71.621	43.9453	71.5424	43.9453	71.5599	43.9453	71.4772	43.9453	71.4949	43.9453	71.411	43.9453	71.4281	43.9453	71.346	43.9453	71.3617	43.9453	71.2841	43.9453	71.298	43.9453	71.2272	43.9453	71.2389	43.9453	71.1769	43.9453	71.1863	43.9453	71.1343	43.9453	71.1415	43.9453	71.1005	43.9453	71.1057	43.9453	71.0761	43.9453	71.0794	43.9453	71.0616	43.9453	71.0632	43.9453	71.0572
45.4102	72.8973	45.4102	72.8866	45.4102	72.8965	45.4102	72.8647	45.4102	72.8844	45.4102	72.8322	45.4102	72.8614	45.4102	72.7903	45.4102	72.8284	45.4102	72.7405	45.4102	72.7866	45.4102	72.6845	45.4102	72.7376	45.4102	72.6245	45.4102	72.6831	45.4102	72.5628	45.4102	72.625	45.4102	72.5017	45.4102	72.5654	45.4102	72.4435	45.4102	72.5063	45.4102	72.3899	45.4102	72.4496	45.4102	72.3424	45.4102	72.397	45.4102	72.3023	45.4102	72.3499	45.4102	72.2701	45.4102	72.3094	45.4102	72.2462	45.4102	72.2762	45.4102	72.2306	45.4102	72.2509	45.4102	72.2233	45.4102	72.2335	45.4102	72.2243
46.875	73.9798	46.875	73.9728	46.875	73.9745	46.875	73.9535	46.875	73.9572	46.875	73.9226	46.875	73.9284	46.875	73.8811	46.875	73.8893	46.875	73.8304	46.875	73.8413	46.875	73.7722	46.875	73.7859	46.875	73.7088	46.875	73.7253	46.875	73.6425	46.875	73.6614	46.875	73.5758	46.875	73.5964	46.875	73.5111	46.875	73.5326	46.875	73.4505	46.875	73.4718	46.875	73.396	46.875	73.416	46.875	73.349	46.875	73.3665	46.875	73.3102	46.875	73.3247	46.875	73.2803	46.875	73.2913	46.875	73.2594	46.875	73.2668	46.875	73.2477	46.875	73.2513	46.875	73.2449
48.3398	74.9833	48.3398	74.9777	48.3398	74.9763	48.3398	74.9598	48.3398	74.9571	48.3398	74.9302	48.3398	74.9263	48.3398	74.8899	48.3398	74.8849	48.3398	74.8402	48.3398	74.8345	48.3398	74.783	48.3398	74.7767	48.3398	74.7203	48.3398	74.7135	48.3398	74.6542	48.3398	74.6472	48.3398	74.5872	48.3398	74.58	48.3398	74.5216	48.3398	74.5143	48.3398	74.4594	48.3398	74.452	48.3398	74.4025	48.3398	74.3952	48.3398	74.3524	48.3398	74.3453	48.3398	74.3101	48.3398	74.3037	48.3398	74.2765	48.3398	74.271	48.3398	74.2519	48.3398	74.2479	48.3398	74.2366	48.3398	74.2345	48.3398	74.2307
51.2695	76.6284	51.2695	76.6225	51.2695	76.6213	51.2695	76.6036	51.2695	76.6014	51.2695	76.5726	51.2695	76.5694	51.2695	76.5305	51.2695	76.5266	51.2695	76.479	51.2695	76.4746	51.2695	76.42	51.2695	76.4153	51.2695	76.3558	51.2695	76.351	51.2695	76.2888	51.2695	76.284	51.2695	76.2215	51.2695	76.2168	51.2695	76.1562	51.2695	76.1517	51.2695	76.0952	51.2695	76.0909	51.2695	76.0401	51.2695	76.036	51.2695	75.9923	51.2695	75.9885	51.2695	75.9526	51.2695	75.9492	51.2695	75.9215	51.2695	75.9187	51.2695	75.8992	51.2695	75.8971	51.2695	75.8855	51.2695	75.8845	51.2695	75.8806
52.7344	77.3889	52.7344	77.383	52.7344	77.3816	52.7344	77.364	52.7344	77.3614	52.7344	77.3326	52.7344	77.3288	52.7344	77.29	52.7344	77.2853	52.7344	77.2378	52.7344	77.2323	52.7344	77.178	52.7344	77.1719	52.7344	77.1129	52.7344	77.1063	52.7344	77.045	52.7344	77.0379	52.7344	76.9768	52.7344	76.9693	52.7344	76.9107	52.7344	76.9028	52.7344	76.849	52.7344	76.8408	52.7344	76.7933	52.7344	76.785	52.7344	76.7449	52.7344	76.7369	52.7344	76.7047	52.7344	76.6974	52.7344	76.6731	52.7344	76.667	52.7344	76.6501	52.7344	76.6457	52.7344	76.6359	52.7344	76.6336	52.7344	76.6304
54.1992	78.0585	54.1992	78.0528	54.1992	78.0509	54.1992	78.0337	54.1992	78.03	54.1992	78.0022	54.1992	77.9968	54.1992	77.9593	54.1992	77.9525	54.1992	77.9068	54.1992	77.8986	54.1992	77.8466	54.1992	77.8374	54.1992	77.7813	54.1992	77.771	54.1992	77.7132	54.1992	77.702	54.1992	77.6451	54.1992	77.633	54.1992	77.5794	54.1992	77.5664	54.1992	77.5181	54.1992	77.5046	54.1992	77.463	54.1992	77.4493	54.1992	77.4153	54.1992	77.402	54.1992	77.3757	54.1992	77.3636	54.1992	77.3445	54.1992	77.3344	54.1992	77.3217	54.1992	77.3144	54.1992	77.3072	54.1992	77.3034	54.1992	77.3011
55.6641	78.6772	55.6641	78.6708	55.6641	78.6697	55.6641	78.6508	55.6641	78.6487	55.6641	78.6178	55.6641	78.6149	55.6641	78.5732	55.6641	78.5696	55.6641	78.5186	55.6641	78.5144	55.6641	78.4561	55.6641	78.4516	55.6641	78.3881	55.6641	78.3834	55.6641	78.3173	55.6641	78.3125	55.6641	78.2463	55.6641	78.2413	55.6641	78.1777	55.6641	78.1726	55.6641	78.1138	55.6641	78.1085	55.6641	78.0563	55.6641	78.0509	55.6641	78.0067	55.6641	78.0013	55.6641	77.9656	55.6641	77.9607	55.6641	77.9336	55.6641	77.9294	55.6641	77.9105	55.6641	77.9075	55.6641	77.8964	55.6641	77.8948	55.6641	77.8912
58.5938	79.7021	58.5938	79.6954	58.5938	79.6944	58.5938	79.6745	58.5938	79.6727	58.5938	79.6404	58.5938	79.6379	58.5938	79.5941	58.5938	79.5912	58.5938	79.5377	58.5938	79.5345	58.5938	79.4731	58.5938	79.47	58.5938	79.4031	58.5938	79.4001	58.5938	79.3304	58.5938	79.3277	58.5938	79.2577	58.5938	79.2553	58.5938	79.1877	58.5938	79.1855	58.5938	79.1227	58.5938	79.1207	58.5938	79.0646	58.5938	79.0627	58.5938	79.0148	58.5938	79.0128	58.5938	78.9738	58.5938	78.972	58.5938	78.9422	58.5938	78.9406	58.5938	78.9197	58.5938	78.9185	58.5938	78.9062	58.5938	78.9055	58.5938	78.9015
60.0586	80.1045	60.0586	80.0978	60.0586	80.0969	60.0586	80.0771	60.0586	80.0753	60.0586	80.0431	60.0586	80.0405	60.0586	79.9974	60.0586	79.994	60.0586	79.9416	60.0586	79.9377	60.0586	79.8782	60.0586	79.8737	60.0586	79.8097	60.0586	79.8047	60.0586	79.7388	60.0586	79.7333	60.0586	79.6684	60.0586	79.6624	60.0586	79.601	60.0586	79.5945	60.0586	79.5387	60.0586	79.5318	60.0586	79.4833	60.0586	79.4762	60.0586	79.4359	60.0586	79.4288	60.0586	79.3971	60.0586	79.3905	60.0586	79.3669	60.0586	79.3614	60.0586	79.3454	60.0586	79.3413	60.0586	79.3321	60.0586	79.33	60.0586	79.327
62.9883	80.8407	62.9883	80.8328	62.9883	80.8334	62.9883	80.8101	62.9883	80.8113	62.9883	80.7735	62.9883	80.7753	62.9883	80.7244	62.9883	80.7269	62.9883	80.6649	62.9883	80.668	62.9883	80.5975	62.9883	80.601	62.9883	80.5251	62.9883	80.5287	62.9883	80.4505	62.9883	80.4541	62.9883	80.3769	62.9883	80.38	62.9883	80.3069	62.9883	80.3092	62.9883	80.2429	62.9883	80.2441	62.9883	80.1865	62.9883	80.1866	62.9883	80.1388	62.9883	80.138	62.9883	80.1003	62.9883	80.0988	62.9883	80.0709	62.9883	80.0691	62.9883	80.0502	62.9883	80.0487	62.9883	80.0378	62.9883	80.0369	62.9883	80.0333
64.4531	81.086	64.4531	81.0776	64.4531	81.0789	64.4531	81.0541	64.4531	81.0567	64.4531	81.0164	64.4531	81.0203	64.4531	80.9662	64.4531	80.9712	64.4531	80.9055	64.4531	80.9114	64.4531	80.837	64.4531	80.8434	64.4531	80.7634	64.4531	80.7699	64.4531	80.6881	64.4531	80.6942	64.4531	80.6139	64.4531	80.6191	64.4531	80.5436	64.4531	80.5475	64.4531	80.4796	64.4531	80.4818	64.4531	80.4235	64.4531	80.4241	64.4531	80.3763	64.4531	80.3755	64.4531	80.3384	64.4531	80.3365	64.4531	80.3095	64.4531	80.3073	64.4531	80.2892	64.4531	80.2872	64.4531	80.2769	64.4531	80.2758	64.4531	80.2725
67.3828	81.4957	67.3828	81.486	67.3828	81.4897	67.3828	81.461	67.3828	81.4683	67.3828	81.4216	67.3828	81.4324	67.3828	81.3695	67.3828	81.3835	67.3828	81.3069	67.3828	81.3237	67.3828	81.2363	67.3828	81.2555	67.3828	81.1609	67.3828	81.1816	67.3828	81.0838	67.3828	81.1052	67.3828	81.0082	67.3828	81.0293	67.3828	80.937	67.3828	80.9569	67.3828	80.8725	67.3828	80.8903	67.3828	80.8165	67.3828	80.8316	67.3828	80.7698	67.3828	80.782	67.3828	80.7328	67.3828	80.7421	67.3828	80.7052	67.3828	80.7117	67.3828	80.6864	67.3828	80.6905	67.3828	80.6758	67.3828	80.6777	67.3828	80.6729
68.8477	81.6398	68.8477	81.6296	68.8477	81.6341	68.8477	81.6038	68.8477	81.6129	68.8477	81.5635	68.8477	81.5769	68.8477	81.5104	68.8477	81.5279	68.8477	81.4467	68.8477	81.4678	68.8477	81.3752	68.8477	81.3993	68.8477	81.2991	68.8477	81.3252	68.8477	81.2218	68.8477	81.2487	68.8477	81.1465	68.8477	81.1729	68.8477	81.0762	68.8477	81.1008	68.8477	81.0132	68.8477	81.0349	68.8477	80.9592	68.8477	80.9772	68.8477	80.9148	68.8477	80.9288	68.8477	80.8801	68.8477	80.8903	68.8477	80.8546	68.8477	80.8614	68.8477	80.8375	68.8477	80.8415	68.8477	80.8279	68.8477	80.8297	68.8477	80.8253
71.7773	82.0838	71.7773	82.0723	71.7773	82.0789	71.7773	82.0446	71.7773	82.0578	71.7773	82.0018	71.7773	82.0216	71.7773	81.9458	71.7773	81.972	71.7773	81.8788	71.7773	81.9112	71.7773	81.8039	71.7773	81.8418	71.7773	81.7246	71.7773	81.7671	71.7773	81.6443	71.7773	81.6902	71.7773	81.5666	71.7773	81.6144	71.7773	81.4948	71.7773	81.5426	71.7773	81.4315	71.7773	81.4773	71.7773	81.3783	71.7773	81.4203	71.7773	81.3361	71.7773	81.3726	71.7773	81.3045	71.7773	81.3345	71.7773	81.2828	71.7773	81.3055	71.7773	81.2697	71.7773	81.2848	71.7773	81.2639	71.7773	81.2714	71.7773	81.2645
74.707	82.4585	74.707	82.4489	74.707	82.451	74.707	82.4225	74.707	82.4269	74.707	82.3805	74.707	82.3872	74.707	82.3245	74.707	82.3339	74.707	82.257	74.707	82.2694	74.707	82.1811	74.707	82.1967	74.707	82.1002	74.707	82.119	74.707	82.018	74.707	82.0399	74.707	81.9381	74.707	81.9627	74.707	81.8639	74.707	81.8905	74.707	81.7982	74.707	81.8257	74.707	81.7429	74.707	81.7699	74.707	81.6988	74.707	81.7239	74.707	81.666	74.707	81.6878	74.707	81.6434	74.707	81.6607	74.707	81.6297	74.707	81.6417	74.707	81.6234	74.707	81.6296	74.707	81.6236
77.6367	82.6878	77.6367	82.681	77.6367	82.6759	77.6367	82.6559	77.6367	82.6456	77.6367	82.6135	77.6367	82.5985	77.6367	82.5558	77.6367	82.5364	77.6367	82.4855	77.6367	82.4622	77.6367	82.4059	77.6367	82.3792	77.6367	82.3205	77.6367	82.2912	77.6367	82.2334	77.6367	82.2022	77.6367	82.1483	77.6367	82.116	77.6367	82.0687	77.6367	82.0361	77.6367	81.9973	77.6367	81.9653	77.6367	81.9359	77.6367	81.9056	77.6367	81.8855	77.6367	81.8579	77.6367	81.8459	77.6367	81.8221	77.6367	81.8163	77.6367	81.7973	77.6367	81.7955	77.6367	81.7822	77.6367	81.7822	77.6367	81.7754	77.6367	81.7755
79.1016	82.87	79.1016	82.8629	79.1016	82.8576	79.1016	82.8365	79.1016	82.8259	79.1016	82.7924	79.1016	82.7761	79.1016	82.7323	79.1016	82.7103	79.1016	82.6591	79.1016	82.631	79.1016	82.5761	79.1016	82.5417	79.1016	82.487	79.1016	82.4461	79.1016	82.3955	79.1016	82.3484	79.1016	82.3054	79.1016	82.2529	79.1016	82.2202	79.1016	82.1633	79.1016	82.1425	79.1016	82.0832	79.1016	82.0744	79.1016	82.015	79.1016	82.0168	79.1016	81.9602	79.1016	81.9698	79.1016	81.9192	79.1016	81.9329	79.1016	81.8914	79.1016	81.9051	79.1016	81.8756	79.1016	81.8855	79.1016	81.8702	79.1016	81.8738
82.0312	83.1164	82.0312	83.098	82.0312	83.1168	82.0312	83.0622	82.0312	83.0995	82.0312	83.0105	82.0312	83.0654	82.0312	82.9452	82.0312	83.0163	82.0312	82.8694	82.0312	82.9545	82.0312	82.7865	82.0312	82.8829	82.0312	82.7003	82.0312	82.8046	82.0312	82.6145	82.0312	82.7226	82.0312	82.5326	82.0312	82.6402	82.0312	82.4573	82.0312	82.56	82.0312	82.3906	82.0312	82.4847	82.0312	82.3338	82.0312	82.4162	82.0312	82.2874	82.0312	82.3561	82.0312	82.2512	82.0312	82.3054	82.0312	82.2249	82.0312	82.2646	82.0312	82.2082	82.0312	82.2339	82.0312	82.2006	82.0312	82.2133	82.0312	82.2023
84.9609	82.9614	84.9609	82.9345	84.9609	82.9738	84.9609	82.8939	84.9609	82.9721	84.9609	82.8412	84.9609	82.9575	84.9609	82.7791	84.9609	82.9321	84.9609	82.7113	84.9609	82.8983	84.9609	82.6418	84.9609	82.8588	84.9609	82.5749	84.9609	82.8164	84.9609	82.5148	84.9609	82.7734	84.9609	82.4649	84.9609	82.7318	84.9609	82.4272	84.9609	82.6928	84.9609	82.4026	84.9609	82.6571	84.9609	82.3906	84.9609	82.6245	84.9609	82.3895	84.9609	82.5948	84.9609	82.3972	84.9609	82.5674	84.9609	82.411	84.9609	82.5417	84.9609	82.4289	84.9609	82.5173	84.9609	82.4493	84.9609	82.4938	84.9609	82.4711
87.8906	83.1822	87.8906	83.1731	87.8906	83.1773	87.8906	83.15	87.8906	83.1594	87.8906	83.1144	87.8906	83.1306	87.8906	83.0687	87.8906	83.0941	87.8906	83.0165	87.8906	83.054	87.8906	82.9621	87.8906	83.0147	87.8906	82.9106	87.8906	82.9807	87.8906	82.8669	87.8906	82.9559	87.8906	82.8355	87.8906	82.943	87.8906	82.8196	87.8906	82.943	87.8906	82.8208	87.8906	82.955	87.8906	82.8383	87.8906	82.976	87.8906	82.8693	87.8906	83.002	87.8906	82.9091	87.8906	83.0281	87.8906	82.9524	87.8906	83.0496	87.8906	82.9937	87.8906	83.0623	87.8906	83.0281	87.8906	83.0636	87.8906	83.052
90.8203	83.8321	90.8203	83.8332	90.8203	83.8073	90.8203	83.8113	90.8203	83.7592	90.8203	83.7682	90.8203	83.6893	90.8203	83.7062	90.8203	83.6005	90.8203	83.629	90.8203	83.4967	90.8203	83.5406	90.8203	83.3833	90.8203	83.4458	90.8203	83.2668	90.8203	83.35	90.8203	83.1541	90.8203	83.2582	90.8203	83.0525	90.8203	83.1754	90.8203	82.968	90.8203	83.1053	90.8203	82.9053	90.8203	83.0501	90.8203	82.8661	90.8203	83.01	90.8203	82.8494	90.8203	82.9832	90.8203	82.8513	90.8203	82.9661	90.8203	82.8661	90.8203	82.954	90.8203	82.8872	90.8203	82.9425	90.8203	82.9091	90.8203	82.928
95.2148	84.0666	95.2148	84.0506	95.2148	84.059	95.2148	84.0117	95.2148	84.0285	95.2148	83.9517	95.2148	83.9766	95.2148	83.8734	95.2148	83.9059	95.2148	83.7808	95.2148	83.8197	95.2148	83.6788	95.2148	83.7221	95.2148	83.5726	95.2148	83.6179	95.2148	83.468	95.2148	83.5117	95.2148	83.3699	95.2148	83.4084	95.2148	83.2827	95.2148	83.3126	95.2148	83.209	95.2148	83.2279	95.2148	83.1502	95.2148	83.157	95.2148	83.1055	95.2148	83.1015	95.2148	83.0731	95.2148	83.0614	95.2148	83.0505	95.2148	83.0354	95.2148	83.0348	95.2148	83.0212	95.2148	83.0242	95.2148	83.0162	95.2148	83.0178
98.1445	84.2699	98.1445	84.2564	98.1445	84.2589	98.1445	84.219	98.1445	84.2242	98.1445	84.1593	98.1445	84.1681	98.1445	84.0803	98.1445	84.0936	98.1445	83.9861	98.1445	84.005	98.1445	83.8815	98.1445	83.907	98.1445	83.7723	98.1445	83.8048	98.1445	83.664	98.1445	83.7036	98.1445	83.5621	98.1445	83.6079	98.1445	83.4711	98.1445	83.5215	98.1445	83.3942	98.1445	83.4468	98.1445	83.333	98.1445	83.3849	98.1445	83.2875	98.1445	83.3357	98.1445	83.2564	98.1445	83.2982	98.1445	83.2374	98.1445	83.2705	98.1445	83.2279	98.1445	83.2508	98.1445	83.2256	98.1445	83.2373	98.1445	83.229
101.074	84.4049	101.074	84.3932	101.074	84.3922	101.074	84.3579	101.074	84.3555	101.074	84.301	101.074	84.2966	101.074	84.2258	101.074	84.2186	101.074	84.1367	101.074	84.1256	101.074	84.0387	101.074	84.0227	101.074	83.9374	101.074	83.9155	101.074	83.8384	101.074	83.8098	101.074	83.7468	101.074	83.7111	101.074	83.6664	101.074	83.6239	101.074	83.5997	101.074	83.5516	101.074	83.5474	101.074	83.4959	101.074	83.5087	101.074	83.4567	101.074	83.4811	101.074	83.4325	101.074	83.4619	101.074	83.4207	101.074	83.4481	101.074	83.4181	101.074	83.4373	101.074	83.4215	101.074	83.4284
105.469	84.5702	105.469	84.5504	105.469	84.5654	105.469	84.5063	105.469	84.5369	105.469	84.4397	105.469	84.4871	105.469	84.3538	105.469	84.4191	105.469	84.2532	105.469	84.3374	105.469	84.1438	105.469	84.247	105.469	84.0322	105.469	84.1533	105.469	83.9254	105.469	84.0616	105.469	83.83	105.469	83.977	105.469	83.7514	105.469	83.9034	105.469	83.693	105.469	83.8433	105.469	83.6559	105.469	83.7975	105.469	83.6384	105.469	83.765	105.469	83.637	105.469	83.7433	105.469	83.6467	105.469	83.7291	105.469	83.6624	105.469	83.7183	105.469	83.6796	105.469	83.7078	105.469	83.6951
108.398	84.7026	108.398	84.6909	108.398	84.6892	108.398	84.6546	108.398	84.652	108.398	84.5954	108.398	84.5933	108.398	84.5161	108.398	84.5167	108.398	84.4212	108.398	84.4269	108.398	84.316	108.398	84.3295	108.398	84.2068	108.398	84.2303	108.398	84.1002	108.398	84.1355	108.398	84.0026	108.398	84.0505	108.398	83.9195	108.398	83.9794	108.398	83.8548	108.398	83.9247	108.398	83.8104	108.398	83.8865	108.398	83.7857	108.398	83.8629	108.398	83.778	108.398	83.8502	108.398	83.7829	108.398	83.844	108.398	83.7953	108.398	83.8396	108.398	83.8102	108.398	83.8335	108.398	83.8237
112.793	85.2165	112.793	85.2068	112.793	85.1993	112.793	85.171	112.793	85.1558	112.793	85.1114	112.793	85.0879	112.793	85.0312	112.793	84.9989	112.793	84.9349	112.793	84.8933	112.793	84.8279	112.793	84.777	112.793	84.7162	112.793	84.6567	112.793	84.6061	112.793	84.5393	112.793	84.5036	112.793	84.4315	112.793	84.4135	112.793	84.3388	112.793	84.3392	112.793	84.2648	112.793	84.2819	112.793	84.211	112.793	84.2407	112.793	84.1764	112.793	84.2132	112.793	84.1581	112.793	84.1956	112.793	84.1522	112.793	84.1841	112.793	84.1542	112.793	84.1755	112.793	84.1602	112.793	84.1678
117.188	85.3472	117.188	85.3282	117.188	85.3392	117.188	85.2832	117.188	85.3047	117.188	85.2152	117.188	85.2458	117.188	85.1282	117.188	85.1661	117.188	85.028	117.188	85.0708	117.188	84.9211	117.188	84.966	117.188	84.8148	117.188	84.8588	117.188	84.7162	117.188	84.7564	117.188	84.6317	117.188	84.6655	117.188	84.5661	117.188	84.5916	117.188	84.5218	117.188	84.5384	117.188	84.4987	117.188	84.5068	117.188	84.4939	117.188	84.4949	117.188	84.5023	117.188	84.4985	117.188	84.5177	117.188	84.5117	117.188	84.5335	117.188	84.5279	117.188	84.5446	117.188	84.5412	117.188	84.5474
120.117	85.7546	120.117	85.7309	120.117	85.747	120.117	85.6767	120.117	85.7091	120.117	85.5945	120.117	85.6435	120.117	85.4887	120.117	85.5545	120.117	85.3653	120.117	85.448	120.117	85.2319	120.117	85.3309	120.117	85.0968	120.117	85.2109	120.117	84.9691	120.117	85.0959	120.117	84.8571	120.117	84.9932	120.117	84.7676	120.117	84.9083	120.117	84.705	120.117	84.8448	120.117	84.6702	120.117	84.8032	120.117	84.6607	120.117	84.7813	120.117	84.6713	120.117	84.7741	120.117	84.6945	120.117	84.7754	120.117	84.7226	120.117	84.7783	120.117	84.7485	120.117	84.7768	120.117	84.7672
124.512	85.9771	124.512	85.9685	124.512	85.9531	124.512	85.9281	124.512	85.8978	124.512	85.8579	124.512	85.8142	124.512	85.762	124.512	85.7068	124.512	85.6461	124.512	85.5818	124.512	85.5173	124.512	85.4468	124.512	85.3839	124.512	85.3103	124.512	85.2547	124.512	85.1811	124.512	85.1379	124.512	85.0674	124.512	85.0405	124.512	84.9754	124.512	84.9668	124.512	84.9088	124.512	84.9179	124.512	84.8681	124.512	84.8917	124.512	84.8504	124.512	84.8833	124.512	84.8506	124.512	84.886	124.512	84.8617	124.512	84.893	124.512	84.8769	124.512	84.8983	124.512	84.8903	124.512	84.8979
128.906	86.0906	128.906	86.0698	128.906	86.0794	128.906	86.0182	128.906	86.0367	128.906	85.9382	128.906	85.9641	128.906	85.8335	128.906	85.8649	128.906	85.7092	128.906	85.7441	128.906	85.5717	128.906	85.6081	128.906	85.4284	128.906	85.4646	128.906	85.2875	128.906	85.3223	128.906	85.157	128.906	85.19	128.906	85.0441	128.906	85.0752	128.906	84.9539	128.906	84.9833	128.906	84.889	128.906	84.9166	128.906	84.8486	128.906	84.8741	128.906	84.8289	128.906	84.8514	128.906	84.8244	128.906	84.8427	128.906	84.8284	128.906	84.8414	128.906	84.8349	128.906	84.8417	128.906	84.8399
133.301	86.2118	133.301	86.1988	133.301	86.1937	133.301	86.1553	133.301	86.1456	133.301	86.0836	133.301	86.0701	133.301	85.9875	133.301	85.9714	133.301	85.8724	133.301	85.855	133.301	85.7451	133.301	85.7281	133.301	85.6134	133.301	85.5984	133.301	85.4856	133.301	85.4743	133.301	85.3697	133.301	85.3637	133.301	85.2727	133.301	85.2729	133.301	85.1991	133.301	85.2058	133.301	85.1507	133.301	85.1634	133.301	85.1259	133.301	85.1432	133.301	85.1204	133.301	85.1398	133.301	85.1279	133.301	85.1464	133.301	85.1413	133.301	85.1558	133.301	85.1543	133.301	85.1622	133.301	85.162
139.16	86.3624	139.16	86.3528	139.16	86.3375	139.16	86.3097	139.16	86.279	139.16	86.2359	139.16	86.1895	139.16	86.1362	139.16	86.0737	139.16	86.0169	139.16	85.9381	139.16	85.8856	139.16	85.791	139.16	85.7512	139.16	85.6417	139.16	85.6225	139.16	85.5003	139.16	85.5081	139.16	85.3765	139.16	85.4143	139.16	85.2782	139.16	85.3451	139.16	85.2102	139.16	85.301	139.16	85.1733	139.16	85.2792	139.16	85.1646	139.16	85.274	139.16	85.1774	139.16	85.2783	139.16	85.2033	139.16	85.2844	139.16	85.2333	139.16	85.2858	139.16	85.2599	139.16	85.2781
143.555	86.5104	143.555	86.4914	143.555	86.4933	143.555	86.4373	143.555	86.4406	143.555	86.3513	143.555	86.3551	143.555	86.2387	143.555	86.2414	143.555	86.1063	143.555	86.1061	143.555	85.963	143.555	85.9575	143.555	85.8185	143.555	85.8051	143.555	85.683	143.555	85.6596	143.555	85.5658	143.555	85.531	143.555	85.4739	143.555	85.4279	143.555	85.4109	143.555	85.3558	143.555	85.3765	143.555	85.316	143.555	85.3665	143.555	85.3055	143.555	85.3738	143.555	85.3177	143.555	85.3898	143.555	85.3433	143.555	85.406	143.555	85.3728	143.555	85.4151	143.555	85.398	143.555	85.4129
147.949	86.6396	147.949	86.6188	147.949	86.623	147.949	86.5617	147.949	86.5697	147.949	86.4715	147.949	86.4823	147.949	86.3533	147.949	86.3657	147.949	86.2144	147.949	86.2264	147.949	86.0637	147.949	86.073	147.949	85.9114	147.949	85.9154	147.949	85.7685	147.949	85.7644	147.949	85.6451	147.949	85.6305	147.949	85.5489	147.949	85.5227	147.949	85.4839	147.949	85.4468	147.949	85.4499	147.949	85.4043	147.949	85.4419	147.949	85.3922	147.949	85.4522	147.949	85.4037	147.949	85.4712	147.949	85.4293	147.949	85.4898	147.949	85.4592	147.949	85.5007	147.949	85.4846	147.949	85.4993
153.809	86.8231	153.809	86.7953	153.809	86.8094	153.809	86.7272	153.809	86.755	153.809	86.6221	153.809	86.663	153.809	86.4858	153.809	86.539	153.809	86.3262	153.809	86.3902	153.809	86.1535	153.809	86.2264	153.809	85.9795	153.809	86.0585	153.809	85.8168	153.809	85.8986	153.809	85.6774	153.809	85.758	153.809	85.571	153.809	85.6461	153.809	85.503	153.809	85.5687	153.809	85.4734	153.809	85.5267	153.809	85.4765	153.809	85.5161	153.809	85.5024	153.809	85.529	153.809	85.5392	153.809	85.5549	153.809	85.5751	153.809	85.5832	153.809	85.6009	153.809	85.6041	153.809	85.611
159.668	87.0536	159.668	87.0312	159.668	87.0334	159.668	86.9675	159.668	86.9713	159.668	86.8661	159.668	86.8703	159.668	86.7326	159.668	86.7355	159.668	86.5748	159.668	86.5746	159.668	86.4026	159.668	86.3971	159.668	86.2273	159.668	86.2149	159.668	86.061	159.668	86.0406	159.668	85.9153	159.668	85.8868	159.668	85.7995	159.668	85.764	159.668	85.7189	159.668	85.6785	159.668	85.6741	159.668	85.6316	159.668	85.6604	159.668	85.619	159.668	85.6694	159.668	85.6322	159.668	85.6905	159.668	85.66	159.668	85.7129	159.668	85.6913	159.668	85.7278	159.668	85.7167	159.668	85.7296
165.527	87.2894	165.527	87.2624	165.527	87.2719	165.527	87.1923	165.527	87.2109	165.527	87.0826	165.527	87.1093	165.527	86.9394	165.527	86.9724	165.527	86.7709	165.527	86.8077	165.527	86.5882	165.527	86.6251	165.527	86.4039	165.527	86.4366	165.527	86.2318	165.527	86.2557	165.527	86.085	165.527	86.0958	165.527	85.9737	165.527	85.9688	165.527	85.9034	165.527	85.8824	165.527	85.8734	165.527	85.839	165.527	85.8771	165.527	85.8342	165.527	85.9036	165.527	85.8586	165.527	85.9399	165.527	85.8994	165.527	85.9735	165.527	85.9431	165.527	85.9944	165.527	85.9781	165.527	85.9964
171.387	87.2827	171.387	87.2511	171.387	87.2693	171.387	87.1756	171.387	87.2117	171.387	87.0598	171.387	87.113	171.387	86.9098	171.387	86.9786	171.387	86.7341	171.387	86.8162	171.387	86.5438	171.387	86.6356	171.387	86.3523	171.387	86.449	171.387	86.1742	171.387	86.2695	171.387	86.0241	171.387	86.1108	171.387	85.9133	171.387	85.9848	171.387	85.8484	171.387	85.8996	171.387	85.8288	171.387	85.8579	171.387	85.8468	171.387	85.8558	171.387	85.8897	171.387	85.8839	171.387	85.9422	171.387	85.9287	171.387	85.9898	171.387	85.9758	171.387	86.0209	171.387	86.0123	171.387	86.0287
177.246	87.3498	177.246	87.3254	177.246	87.3283	177.246	87.2558	177.246	87.2623	177.246	87.1441	177.246	87.1554	177.246	86.9958	177.246	87.0136	177.246	86.8189	177.246	86.8452	177.246	86.6242	177.246	86.6607	177.246	86.4247	177.246	86.4726	177.246	86.2349	177.246	86.2943	177.246	86.0695	177.246	86.1387	177.246	85.9408	177.246	86.0167	177.246	85.8568	177.246	85.9348	177.246	85.8189	177.246	85.8939	177.246	85.8217	177.246	85.8891	177.246	85.8542	177.246	85.9105	177.246	85.9021	177.246	85.9452	177.246	85.9509	177.246	85.9799	177.246	85.9885	177.246	86.003	177.246	86.0068
183.105	87.2697	183.105	87.245	183.105	87.2448	183.105	87.1724	183.105	87.1717	183.105	87.0561	183.105	87.0543	183.105	86.903	183.105	86.8995	183.105	86.7229	183.105	86.717	183.105	86.5284	183.105	86.5195	183.105	86.334	183.105	86.3217	183.105	86.1551	183.105	86.1391	183.105	86.006	183.105	85.9864	183.105	85.8977	183.105	85.8748	183.105	85.8354	183.105	85.8097	183.105	85.8173	183.105	85.7899	183.105	85.8354	183.105	85.8076	183.105	85.8767	183.105	85.8506	183.105	85.9269	183.105	85.9046	183.105	85.9723	183.105	85.9559	183.105	86.0021	183.105	85.9934	183.105	86.0098
188.965	87.4171	188.965	87.3965	188.965	87.3825	188.965	87.3216	188.965	87.2945	188.965	87.1958	188.965	87.1576	188.965	87.0259	188.965	86.9792	188.965	86.8217	188.965	86.7701	188.965	86.597	188.965	86.544	188.965	86.3689	188.965	86.318	188.965	86.1569	188.965	86.1107	188.965	85.9803	188.965	85.9403	188.965	85.8551	188.965	85.8215	188.965	85.7897	188.965	85.7616	188.965	85.783	188.965	85.759	188.965	85.8239	188.965	85.8031	188.965	85.895	188.965	85.877	188.965	85.976	188.965	85.9614	188.965	86.048	188.965	86.0375	188.965	86.0962	188.965	86.0907	188.965	86.1115
196.289	87.6668	196.289	87.6418	196.289	87.6366	196.289	87.5633	196.289	87.5518	196.289	87.4354	196.289	87.4156	196.289	87.2649	196.289	87.2335	196.289	87.0613	196.289	87.0147	196.289	86.8374	196.289	86.7713	196.289	86.6083	196.289	86.5194	196.289	86.3915	196.289	86.2777	196.289	86.2043	196.289	86.0661	196.289	86.0613	196.289	85.9023	196.289	85.9711	196.289	85.7983	196.289	85.9339	196.289	85.7568	196.289	85.9411	196.289	85.771	196.289	85.9777	196.289	85.8257	196.289	86.0254	196.289	85.9017	196.289	86.0667	196.289	85.9795	196.289	86.0878	196.289	86.0428	196.289	86.0805
203.613	87.6731	203.613	87.6396	203.613	87.6466	203.613	87.5477	203.613	87.5603	203.613	87.4017	203.613	87.4172	203.613	87.2081	203.613	87.223	203.613	86.9766	203.613	86.987	203.613	86.7199	203.613	86.7223	203.613	86.4542	203.613	86.4464	203.613	86.1992	203.613	86.1808	203.613	85.976	203.613	85.9486	203.613	85.8042	203.613	85.7707	203.613	85.697	203.613	85.6606	203.613	85.6571	203.613	85.6206	203.613	85.6752	203.613	85.6405	203.613	85.7325	203.613	85.7012	203.613	85.806	203.613	85.7799	203.613	85.8739	203.613	85.8549	203.613	85.9192	203.613	85.9092	203.613	85.932
210.938	87.6449	210.938	87.6242	210.938	87.606	210.938	87.5451	210.938	87.5086	210.938	87.4115	210.938	87.3562	210.938	87.2298	210.938	87.1549	210.938	87.0091	210.938	86.9135	210.938	86.7615	210.938	86.6443	210.938	86.502	210.938	86.3629	210.938	86.248	210.938	86.089	210.938	86.018	210.938	85.8443	210.938	85.83	210.938	85.6502	210.938	85.6975	210.938	85.5226	210.938	85.6265	210.938	85.4676	210.938	85.613	210.938	85.4784	210.938	85.6431	210.938	85.5371	210.938	85.6965	210.938	85.6196	210.938	85.7511	210.938	85.7018	210.938	85.7879	210.938	85.7639	210.938	85.7938
218.262	87.4948	218.262	87.4693	218.262	87.4618	218.262	87.3878	218.262	87.3702	218.262	87.2555	218.262	87.2222	218.262	87.0798	218.262	87.0233	218.262	86.8707	218.262	86.7822	218.262	86.6407	218.262	86.5114	218.262	86.405	218.262	86.2275	218.262	86.1807	218.262	85.951	218.262	85.9851	218.262	85.7046	218.262	85.8333	218.262	85.5103	218.262	85.7345	218.262	85.3844	218.262	85.6897	218.262	85.3335	218.262	85.6907	218.262	85.3517	218.262	85.7213	218.262	85.4221	218.262	85.7621	218.262	85.5215	218.262	85.7937	218.262	85.6259	218.262	85.8012	218.262	85.7152	218.262	85.7756
225.586	87.5099	225.586	87.4797	225.586	87.476	225.586	87.3872	225.586	87.3788	225.586	87.2372	225.586	87.2217	225.586	87.0378	225.586	87.0109	225.586	86.8008	225.586	86.7564	225.586	86.5415	225.586	86.4725	225.586	86.2791	225.586	86.1782	225.586	86.0348	225.586	85.897	225.586	85.8295	225.586	85.6542	225.586	85.6806	225.586	85.4728	225.586	85.5976	225.586	85.3675	225.586	85.5795	225.586	85.3408	225.586	85.614	225.586	85.3822	225.586	85.6805	225.586	85.4712	225.586	85.7551	225.586	85.5829	225.586	85.8156	225.586	85.693	225.586	85.8451	225.586	85.7813	225.586	85.8341
232.91	87.5072	232.91	87.4574	232.91	87.4926	232.91	87.3448	232.91	87.4142	232.91	87.1734	232.91	87.2742	232.91	86.95	232.91	87.0767	232.91	86.6849	232.91	86.8284	232.91	86.3928	232.91	86.539	232.91	86.0925	232.91	86.2237	232.91	85.807	232.91	85.9039	232.91	85.5615	232.91	85.608	232.91	85.379	232.91	85.3671	232.91	85.2749	232.91	85.2082	232.91	85.2514	232.91	85.1438	232.91	85.2958	232.91	85.1671	232.91	85.3835	232.91	85.2539	232.91	85.4846	232.91	85.3714	232.91	85.5711	232.91	85.4878	232.91	85.6218	232.91	85.5777	232.91	85.6248
241.699	87.4023	241.699	87.3547	241.699	87.3825	241.699	87.2407	241.699	87.2978	241.699	87.0648	241.699	87.1537	241.699	86.8352	241.699	86.9587	241.699	86.5634	241.699	86.7225	241.699	86.2642	241.699	86.4562	241.699	85.9554	241.699	86.1716	241.699	85.6569	241.699	85.8825	241.699	85.3901	241.699	85.6055	241.699	85.1756	241.699	85.3609	241.699	85.03	241.699	85.1702	241.699	84.9612	241.699	85.0505	241.699	84.9647	241.699	85.0075	241.699	85.0228	241.699	85.0311	241.699	85.1087	241.699	85.0978	241.699	85.1932	241.699	85.1773	241.699	85.2518	241.699	85.2412	241.699	85.2689
250.488	87.026	250.488	86.9848	250.488	86.9889	250.488	86.8683	250.488	86.8749	250.488	86.6838	250.488	86.6903	250.488	86.4426	250.488	86.4468	250.488	86.1593	250.488	86.1611	250.488	85.8522	250.488	85.8538	250.488	85.5415	250.488	85.5468	250.488	85.2474	250.488	85.2609	250.488	84.9884	250.488	85.0139	250.488	84.7789	250.488	84.8192	250.488	84.6288	250.488	84.6857	250.488	84.5431	250.488	84.6165	250.488	84.5206	250.488	84.6069	250.488	84.5523	250.488	84.6432	250.488	84.6206	250.488	84.7041	250.488	84.7013	250.488	84.765	250.488	84.7697	250.488	84.8041	250.488	84.8068
259.277	87.4412	259.277	87.3891	259.277	87.4123	259.277	87.2588	259.277	87.3035	259.277	87.0573	259.277	87.12	259.277	86.796	259.277	86.8716	259.277	86.4917	259.277	86.5728	259.277	86.1667	259.277	86.2437	259.277	85.8474	259.277	85.9076	259.277	85.5604	259.277	85.5884	259.277	85.3275	259.277	85.307	259.277	85.1594	259.277	85.0778	259.277	85.0535	259.277	84.9083	259.277	84.9967	259.277	84.8003	259.277	84.9719	259.277	84.7504	259.277	84.9643	259.277	84.7498	259.277	84.9633	259.277	84.7842	259.277	84.9611	259.277	84.8358	259.277	84.9511	259.277	84.8875	259.277	84.9273
268.066	86.8228	268.066	86.7749	268.066	86.7809	268.066	86.6423	268.066	86.6495	268.066	86.4353	268.066	86.4348	268.066	86.1707	268.066	86.1491	268.066	85.8715	268.066	85.8121	268.066	85.5665	268.066	85.4509	268.066	85.2879	268.066	85.0978	268.066	85.0648	268.066	84.7858	268.066	84.9161	268.066	84.5415	268.066	84.8438	268.066	84.3796	268.066	84.8339	268.066	84.3011	268.066	84.8622	268.066	84.2967	268.066	84.9038	268.066	84.3504	268.066	84.9393	268.066	84.4438	268.066	84.9571	268.066	84.5574	268.066	84.9514	268.066	84.6736	268.066	84.9198	268.066	84.7781	268.066	84.8617
276.855	86.7491	276.855	86.6871	276.855	86.7229	276.855	86.5369	276.855	86.6089	276.855	86.3007	276.855	86.4087	276.855	85.9852	276.855	86.1281	276.855	85.606	276.855	85.7821	276.855	85.1917	276.855	85.4004	276.855	84.7866	276.855	85.029	276.855	84.4471	276.855	84.7237	276.855	84.2273	276.855	84.5311	276.855	84.1564	276.855	84.4669	276.855	84.2228	276.855	84.5088	276.855	84.3799	276.855	84.6113	276.855	84.5692	276.855	84.7298	276.855	84.7434	276.855	84.8352	276.855	84.8762	276.855	84.9155	276.855	84.961	276.855	84.9703	276.855	85.0038	276.855	85.0029	276.855	85.0151
287.109	87.6305	287.109	87.6175	287.109	87.5336	287.109	87.4909	287.109	87.3352	287.109	87.2539	287.109	87.0475	287.109	86.9168	287.109	86.684	287.109	86.4991	287.109	86.2584	287.109	86.0303	287.109	85.7868	287.109	85.5516	287.109	85.2923	287.109	85.1146	287.109	84.8138	287.109	84.7756	287.109	84.41	287.109	84.5816	287.109	84.148	287.109	84.5528	287.109	84.0745	287.109	84.6709	287.109	84.1856	287.109	84.8857	287.109	84.4281	287.109	85.1341	287.109	84.7297	287.109	85.3589	287.109	85.0282	287.109	85.5199	287.109	85.2831	287.109	85.5952	287.109	85.4709	287.109	85.5778
297.363	87.4098	297.363	87.3214	297.363	87.3891	297.363	87.1292	297.363	87.2574	297.363	86.8422	297.363	87.0168	297.363	86.4734	297.363	86.6747	297.363	86.0434	297.363	86.2444	297.363	85.583	297.363	85.7469	297.363	85.136	297.363	85.2144	297.363	84.7561	297.363	84.6942	297.363	84.4957	297.363	84.251	297.363	84.3879	297.363	83.9571	297.363	84.4329	297.363	83.8659	297.363	84.5987	297.363	83.9821	297.363	84.8359	297.363	84.2553	297.363	85.0927	297.363	84.6059	297.363	85.3248	297.363	84.9582	297.363	85.4981	297.363	85.257	297.363	85.5885	297.363	85.4697	297.363	85.5812
307.617	87.6268	307.617	87.6096	307.617	87.5374	307.617	87.4761	307.617	87.3519	307.617	87.2202	307.617	87.0814	307.617	86.8416	307.617	86.7383	307.617	86.3512	307.617	86.338	307.617	85.7768	307.617	85.901	307.617	85.1702	307.617	85.4535	307.617	84.6097	307.617	85.0263	307.617	84.1869	307.617	84.6533	307.617	83.9739	307.617	84.371	307.617	83.9868	307.617	84.2144	307.617	84.1797	307.617	84.2054	307.617	84.4739	307.617	84.3375	307.617	84.7925	307.617	84.5716	307.617	85.0766	307.617	84.8484	307.617	85.2871	307.617	85.1081	307.617	85.4005	307.617	85.3038	307.617	85.4059
319.336	87.5203	319.336	87.4573	319.336	87.4755	319.336	87.2872	319.336	87.3228	319.336	87.0106	319.336	87.0626	319.336	86.6286	319.336	86.6971	319.336	86.1446	319.336	86.2321	319.336	85.5701	319.336	85.6818	319.336	84.9348	319.336	85.0771	319.336	84.2985	319.336	84.4725	319.336	83.7553	319.336	83.947	319.336	83.4104	319.336	83.5872	319.336	83.3277	319.336	83.4522	319.336	83.488	319.336	83.5425	319.336	83.8055	319.336	83.8011	319.336	84.1801	319.336	84.1438	319.336	84.5328	319.336	84.4901	319.336	84.8121	319.336	84.7785	319.336	84.9871	319.336	84.9694	319.336	85.0412
329.59	87.7512	329.59	87.6946	329.59	87.6995	329.59	87.5291	329.59	87.539	329.59	87.254	329.59	87.2693	329.59	86.8689	329.59	86.8912	329.59	86.3757	329.59	86.4087	329.59	85.7829	329.59	85.8332	329.59	85.1111	329.59	85.1884	329.59	84.4045	329.59	84.5191	329.59	83.7418	329.59	83.8971	329.59	83.2349	329.59	83.4162	329.59	82.9922	329.59	83.1622	329.59	83.0508	329.59	83.1669	329.59	83.3445	329.59	83.3861	329.59	83.7491	329.59	83.7267	329.59	84.1483	329.59	84.0918	329.59	84.4648	329.59	84.4066	329.59	84.6575	329.59	84.6221	329.59	84.7101
341.309	87.4396	341.309	87.3902	341.309	87.3886	341.309	87.2409	341.309	87.2366	341.309	86.9927	341.309	86.984	341.309	86.648	341.309	86.632	341.309	86.2127	341.309	86.1841	341.309	85.6983	341.309	85.649	341.309	85.1267	341.309	85.0464	341.309	84.535	341.309	84.4154	341.309	83.9815	341.309	83.8231	341.309	83.5452	341.309	83.3619	341.309	83.3076	341.309	83.1238	341.309	83.3141	341.309	83.1513	341.309	83.5403	341.309	83.4067	341.309	83.9	341.309	83.7928	341.309	84.2871	341.309	84.2023	341.309	84.6131	341.309	84.5517	341.309	84.8205	341.309	84.7876	341.309	84.8808
353.027	87.6711	353.027	87.5971	353.027	87.6242	353.027	87.4005	353.027	87.4582	353.027	87.0812	353.027	87.1748	353.027	86.6413	353.027	86.7735	353.027	86.0871	353.027	86.252	353.027	85.4329	353.027	85.609	353.027	84.7084	353.027	84.8517	353.027	83.9665	353.027	84.0099	353.027	83.2903	353.027	83.1572	353.027	82.785	353.027	82.4242	353.027	82.543	353.027	81.9724	353.027	82.5907	353.027	81.9037	353.027	82.8672	353.027	82.1795	353.027	83.259	353.027	82.6549	353.027	83.652	353.027	83.1765	353.027	83.9604	353.027	83.6349	353.027	84.1305	353.027	83.9654	353.027	84.1345
366.211	87.6336	366.211	87.5057	366.211	87.6492	366.211	87.2672	366.211	87.5511	366.211	86.921	366.211	87.3381	366.211	86.4702	366.211	87.0083	366.211	85.9185	366.211	86.5586	366.211	85.2711	366.211	85.986	366.211	84.542	366.211	85.2898	366.211	83.7676	366.211	84.4787	366.211	83.0261	366.211	83.5861	366.211	82.4444	366.211	82.6965	366.211	82.1561	366.211	81.9678	366.211	82.2108	366.211	81.5951	366.211	82.5264	366.211	81.6755	366.211	82.9517	366.211	82.1056	366.211	83.3542	366.211	82.6715	366.211	83.6515	366.211	83.1939	366.211	83.8003	366.211	83.575	366.211	83.7785
379.395	87.9197	379.395	87.8698	379.395	87.8765	379.395	87.7197	379.395	87.7424	379.395	87.4585	379.395	87.5143	379.395	87.073	379.395	87.1853	379.395	86.5521	379.395	86.747	379.395	85.8911	379.395	86.1929	379.395	85.0995	379.395	85.525	379.395	84.214	379.395	84.764	379.395	83.3175	379.395	83.9642	379.395	82.5543	379.395	83.2262	379.395	82.1033	379.395	82.6861	379.395	82.0748	379.395	82.458	379.395	82.4129	379.395	82.5566	379.395	82.9379	379.395	82.8873	379.395	83.4676	379.395	83.313	379.395	83.8809	379.395	83.716	379.395	84.1174	379.395	84.0152	379.395	84.1591
392.578	87.483	392.578	87.4428	392.578	87.4313	392.578	87.3076	392.578	87.289	392.578	87.0729	392.578	87.0545	392.578	86.7333	392.578	86.7235	392.578	86.2824	392.578	86.2891	392.578	85.714	392.578	85.7447	392.578	85.0256	392.578	85.0896	392.578	84.2281	392.578	84.3391	392.578	83.3645	392.578	83.5412	392.578	82.5394	392.578	82.7955	392.578	81.9317	392.578	82.2542	392.578	81.7272	392.578	82.0624	392.578	81.9657	392.578	82.2482	392.578	82.491	392.578	82.6888	392.578	83.0833	392.578	83.2029	392.578	83.5824	392.578	83.6458	392.578	83.9067	392.578	83.9332	392.578	84.025
405.762	87.1926	405.762	87.0977	405.762	87.1749	405.762	86.8931	405.762	87.0398	405.762	86.5789	405.762	86.782	405.762	86.1507	405.762	86.3959	405.762	85.6001	405.762	85.8762	405.762	84.92	405.762	85.221	405.762	84.1171	405.762	84.438	405.762	83.2356	405.762	83.5582	405.762	82.386	405.762	82.6597	405.762	81.7496	405.762	81.8914	405.762	81.5036	405.762	81.4538	405.762	81.6848	405.762	81.4788	405.762	82.1601	405.762	81.9033	405.762	82.7434	405.762	82.5211	405.762	83.2921	405.762	83.1353	405.762	83.7215	405.762	83.6271	405.762	83.986	405.762	83.9425	405.762	84.0628
420.41	87.911	420.41	87.8351	420.41	87.8662	420.41	87.6375	420.41	87.701	420.41	87.3159	420.41	87.4152	420.41	86.8658	420.41	87.0075	420.41	86.2791	420.41	86.4742	420.41	85.5432	420.41	85.8085	420.41	84.6441	420.41	85.0033	420.41	83.5805	420.41	84.0587	420.41	82.404	420.41	82.9999	420.41	81.2922	420.41	81.9115	420.41	80.5872	420.41	80.9869	420.41	80.5872	420.41	80.5212	420.41	81.1961	420.41	80.7057	420.41	82.0397	420.41	81.3962	420.41	82.8207	420.41	82.2526	420.41	83.3988	420.41	83.0069	420.41	83.7213	420.41	83.5271	420.41	83.7672
435.059	87.454	435.059	87.3642	435.059	87.444	435.059	87.1776	435.059	87.3331	435.059	86.8956	435.059	87.1216	435.059	86.514	435.059	86.8081	435.059	86.0217	435.059	86.3836	435.059	85.4022	435.059	85.8295	435.059	84.6403	435.059	85.1227	435.059	83.7352	435.059	84.252	435.059	82.7285	435.059	83.2487	435.059	81.7526	435.059	82.2296	435.059	81.0636	435.059	81.4206	435.059	80.9257	435.059	81.0702	435.059	81.3454	435.059	81.2441	435.059	82.0496	435.059	81.7663	435.059	82.7478	435.059	82.3968	435.059	83.2726	435.059	82.9669	435.059	83.5575	435.059	83.3821	435.059	83.5894
451.172	87.6384	451.172	87.573	451.172	87.5973	451.172	87.3957	451.172	87.4514	451.172	87.0981	451.172	87.198	451.172	86.6685	451.172	86.8298	451.172	86.0918	451.172	86.336	451.172	85.3469	451.172	85.7026	451.172	84.4075	451.172	84.9154	451.172	83.2503	451.172	83.9667	451.172	81.8906	451.172	82.8768	451.172	80.4784	451.172	81.7428	451.172	79.4482	451.172	80.8092	451.172	79.3638	451.172	80.4333	451.172	80.1986	451.172	80.7704	451.172	81.3575	451.172	81.562	451.172	82.3949	451.172	82.4277	451.172	83.1496	451.172	83.1308	451.172	83.593	451.172	83.5752	451.172	83.732
465.82	87.6633	465.82	87.5858	465.82	87.632	465.82	87.3982	465.82	87.4924	465.82	87.0978	465.82	87.2439	465.82	86.6783	465.82	86.8815	465.82	86.1272	465.82	86.3956	465.82	85.4266	465.82	85.7713	465.82	84.5593	465.82	84.9906	465.82	83.5194	465.82	84.0396	465.82	82.3306	465.82	82.9265	465.82	81.0827	465.82	81.7241	465.82	80.0005	465.82	80.6396	465.82	79.4633	465.82	80.0269	465.82	79.7353	465.82	80.1371	465.82	80.6061	465.82	80.8113	465.82	81.6167	465.82	81.6653	465.82	82.4445	465.82	82.4132	465.82	82.952	465.82	82.9144	465.82	83.105
483.398	87.5743	483.398	87.5196	483.398	87.5393	483.398	87.3759	483.398	87.4099	483.398	87.1371	483.398	87.1798	483.398	86.7883	483.398	86.8409	483.398	86.3054	483.398	86.3796	483.398	85.6553	483.398	85.774	483.398	84.7983	483.398	84.9947	483.398	83.6981	483.398	84.0136	483.398	82.3527	483.398	82.8267	483.398	80.8758	483.398	81.5055	483.398	79.6406	483.398	80.297	483.398	79.2303	483.398	79.6652	483.398	79.789	483.398	79.9233	483.398	80.8	483.398	80.7902	483.398	81.7754	483.398	81.7563	483.398	82.5145	483.398	82.5201	483.398	82.9678	483.398	82.9809	483.398	83.1263
499.512	87.3921	499.512	87.2812	499.512	87.4069	499.512	87.0812	499.512	87.3199	499.512	86.7982	499.512	87.1258	499.512	86.4325	499.512	86.8171	499.512	85.9725	499.512	86.382	499.512	85.3915	499.512	85.8018	499.512	84.6495	499.512	85.0508	499.512	83.7013	499.512	84.0996	499.512	82.5171	499.512	82.9306	499.512	81.136	499.512	81.5789	499.512	79.7849	499.512	80.2272	499.512	78.9758	499.512	79.3081	499.512	79.1437	499.512	79.2773	499.512	80.0394	499.512	80.0292	499.512	81.0927	499.512	81.0343	499.512	81.9554	499.512	81.9015	499.512	82.4942	499.512	82.4643	499.512	82.6666
517.09	87.6033	517.09	87.5623	517.09	87.5675	517.09	87.4318	517.09	87.462	517.09	87.1943	517.09	87.2854	517.09	86.829	517.09	87.025	517.09	86.3118	517.09	86.6551	517.09	85.6147	517.09	86.1382	517.09	84.7056	517.09	85.4307	517.09	83.5548	517.09	84.491	517.09	82.1652	517.09	83.2973	517.09	80.6613	517.09	81.895	517.09	79.4608	517.09	80.5141	517.09	79.2175	517.09	79.6894	517.09	80.0339	517.09	79.9016	517.09	81.2734	517.09	80.8843	517.09	82.4002	517.09	82.0138	517.09	83.2116	517.09	82.9304	517.09	83.6658	517.09	83.5212	517.09	83.7668
536.133	86.468	536.133	86.4469	536.133	86.4503	536.133	86.3962	536.133	86.3864	536.133	86.3167	536.133	86.272	536.133	86.1893	536.133	86.0981	536.133	85.9698	536.133	85.8353	536.133	85.5908	536.133	85.4257	536.133	84.9649	536.133	84.7894	536.133	83.9894	536.133	83.8435	536.133	82.5559	536.133	82.5298	536.133	80.6049	536.133	80.8765	536.133	78.3946	536.133	79.1856	536.133	77.2037	536.133	78.3069	536.133	78.2705	536.133	78.958	536.133	80.2875	536.133	80.5029	536.133	82.0429	536.133	82.0464	536.133	83.2783	536.133	83.2276	536.133	83.9946	536.133	83.9572	536.133	84.216
555.176	87.2672	555.176	87.1661	555.176	87.2936	555.176	87.0068	555.176	87.2421	555.176	86.8126	555.176	87.1212	555.176	86.5971	555.176	86.942	555.176	86.3461	555.176	86.7039	555.176	86.0096	555.176	86.3766	555.176	85.5097	555.176	85.889	555.176	84.7501	555.176	85.1297	555.176	83.6165	555.176	83.9558	555.176	81.9705	555.176	82.2	555.176	79.6943	555.176	79.7122	555.176	77.0905	555.176	76.7627	555.176	76.1394	555.176	75.6005	555.176	77.998	555.176	77.6338	555.176	80.2575	555.176	80.0318	555.176	81.8471	555.176	81.7049	555.176	82.7284	555.176	82.6577	555.176	82.9867
574.219	87.416	574.219	87.363	574.219	87.3873	574.219	87.2368	574.219	87.2722	574.219	87.0443	574.219	87.0758	574.219	86.7892	574.219	86.811	574.219	86.4693	574.219	86.4863	574.219	86.0635	574.219	86.0897	574.219	85.5159	574.219	85.5779	574.219	84.7341	574.219	84.875	574.219	83.6032	574.219	83.8809	574.219	82.0039	574.219	82.4917	574.219	79.8583	574.219	80.6569	574.219	77.4272	574.219	78.5954	574.219	76.2386	574.219	77.3108	574.219	77.6214	574.219	77.9377	574.219	79.7489	574.219	79.6047	574.219	81.3492	574.219	81.1128	574.219	82.2412	574.219	82.0882	574.219	82.4717
594.727	86.8335	594.727	86.7439	594.727	86.7922	594.727	86.5403	594.727	86.6384	594.727	86.2693	594.727	86.415	594.727	85.9825	594.727	86.1644	594.727	85.705	594.727	85.9002	594.727	85.4132	594.727	85.5919	594.727	85.0342	594.727	85.1729	594.727	84.4639	594.727	84.5584	594.727	83.5925	594.727	83.652	594.727	82.3342	594.727	82.3408	594.727	80.6879	594.727	80.5214	594.727	78.932	594.727	78.3282	594.727	77.9491	594.727	76.9268	594.727	78.5298	594.727	77.8499	594.727	79.969	594.727	79.7929	594.727	81.2957	594.727	81.332	594.727	82.149	594.727	82.2043	594.727	82.4591
615.234	87.1906	615.234	87.0496	615.234	87.1755	615.234	86.7677	615.234	87.0139	615.234	86.3889	615.234	86.7358	615.234	85.9779	615.234	86.387	615.234	85.588	615.234	86.0113	615.234	85.2198	615.234	85.6178	615.234	84.8014	615.234	85.156	615.234	84.2046	615.234	84.5262	615.234	83.2779	615.234	83.6082	615.234	81.8777	615.234	82.2792	615.234	79.9235	615.234	80.4276	615.234	77.6293	615.234	78.068	615.234	76.195	615.234	75.9635	615.234	77.0131	615.234	76.0927	615.234	78.8682	615.234	78.0654	615.234	80.4091	615.234	79.9286	615.234	81.3101	615.234	81.096	615.234	81.5434
637.207	87.0881	637.207	86.9535	637.207	87.0836	637.207	86.7085	637.207	86.9332	637.207	86.3884	637.207	86.6601	637.207	86.0243	637.207	86.3148	637.207	85.6375	637.207	85.9575	637.207	85.2339	637.207	85.6237	637.207	84.7867	637.207	85.2827	637.207	84.2151	637.207	84.8279	637.207	83.3766	637.207	84.1114	637.207	82.0817	637.207	82.992	637.207	80.1526	637.207	81.3653	637.207	77.7154	637.207	79.2333	637.207	76.2415	637.207	77.0907	637.207	77.4632	637.207	76.5826	637.207	79.5699	637.207	78.1992	637.207	81.1394	637.207	80.1345	637.207	81.9718	637.207	81.4757	637.207	82.0842
659.18	87.0139	659.18	86.924	659.18	86.936	659.18	86.6549	659.18	86.7291	659.18	86.2334	659.18	86.4385	659.18	85.7186	659.18	86.0947	659.18	85.1758	659.18	85.7039	659.18	84.6371	659.18	85.2556	659.18	84.0733	659.18	84.7332	659.18	83.4039	659.18	84.1032	659.18	82.5284	659.18	83.284	659.18	81.3416	659.18	82.1297	659.18	79.7332	659.18	80.463	659.18	77.6984	659.18	78.2044	659.18	75.9243	659.18	75.8904	659.18	76.1411	659.18	75.3994	659.18	77.9836	659.18	77.0411	659.18	79.6644	659.18	78.8947	659.18	80.598	659.18	80.1715	659.18	80.7515
682.617	87.2479	682.617	87.0831	682.617	87.215	682.617	86.7487	682.617	86.9786	682.617	86.292	682.617	86.5668	682.617	85.7774	682.617	86.0531	682.617	85.2704	682.617	85.5383	682.617	84.8025	682.617	85.0805	682.617	84.3331	682.617	84.633	682.617	83.7403	682.617	84.0714	682.617	82.8541	682.617	83.2663	682.617	81.5014	682.617	82.1087	682.617	79.5519	682.617	80.4837	682.617	77.0919	682.617	78.2999	682.617	75.1931	682.617	75.9494	682.617	75.819	682.617	75.4218	682.617	77.9029	682.617	77.3379	682.617	79.6751	682.617	79.3699	682.617	80.7278	682.617	80.615	682.617	81.0457
707.52	87.247	707.52	87.1214	707.52	87.2113	707.52	86.8413	707.52	87.0231	707.52	86.4318	707.52	86.6986	707.52	85.9353	707.52	86.2595	707.52	85.4111	707.52	85.7527	707.52	84.9214	707.52	85.2601	707.52	84.4872	707.52	84.8397	707.52	84.0278	707.52	84.4314	707.52	83.3456	707.52	83.8591	707.52	82.1765	707.52	82.9272	707.52	80.2509	707.52	81.4782	707.52	77.396	707.52	79.3891	707.52	74.3401	707.52	76.7385	707.52	74.4318	707.52	74.982	707.52	77.0891	707.52	76.4307	707.52	79.3305	707.52	78.8786	707.52	80.657	707.52	80.4922	707.52	81.061
732.422	87.3683	732.422	87.1883	732.422	87.2969	732.422	86.7933	732.422	86.9909	732.422	86.2595	732.422	86.5211	732.422	85.6808	732.422	85.9862	732.422	85.134	732.422	85.4626	732.422	84.6383	732.422	84.9738	732.422	84.1418	732.422	84.5095	732.422	83.5525	732.422	84.0371	732.422	82.7689	732.422	83.4614	732.422	81.6585	732.422	82.5902	732.422	80.013	732.422	81.1704	732.422	77.592	732.422	78.986	732.422	74.7599	732.422	76.2256	732.422	74.3886	732.422	74.7635	732.422	76.8401	732.422	76.2312	732.422	78.9575	732.422	78.2847	732.422	80.0678	732.422	79.6711	732.422	80.2723
757.324	87.7586	757.324	87.5779	757.324	87.7064	757.324	87.1698	757.324	87.4179	757.324	86.5662	757.324	86.9031	757.324	85.8605	757.324	86.2272	757.324	85.2032	757.324	85.5428	757.324	84.7116	757.324	85.0202	757.324	84.3587	757.324	84.6764	757.324	83.9765	757.324	84.3365	757.324	83.3461	757.324	83.7821	757.324	82.2379	757.324	82.841	757.324	80.3813	757.324	81.3468	757.324	77.4329	757.324	79.1035	757.324	73.5712	757.324	76.1728	757.324	73.3069	757.324	74.4927	757.324	76.7825	757.324	76.2892	757.324	79.3076	757.324	78.6841	757.324	80.5842	757.324	80.2272	757.324	80.8548
785.156	87.8528	785.156	87.6961	785.156	87.7354	785.156	87.2622	785.156	87.3804	785.156	86.5947	785.156	86.8343	785.156	85.7849	785.156	86.1407	785.156	84.9753	785.156	85.3607	785.156	84.3461	785.156	84.6196	785.156	83.9959	785.156	84.0905	785.156	83.7885	785.156	83.8208	785.156	83.4248	785.156	83.5914	785.156	82.6392	785.156	83.0557	785.156	81.2534	785.156	81.9235	785.156	79.1064	785.156	79.9689	785.156	76.0952	785.156	77.0415	785.156	73.4324	785.156	74.0949	785.156	74.6257	785.156	74.8146	785.156	77.2813	785.156	77.4071	785.156	78.9716	785.156	79.0561	785.156	79.5485
811.523	87.5881	811.523	87.3624	811.523	87.541	811.523	86.9028	811.523	87.2008	811.523	86.2424	811.523	86.6069	811.523	85.4298	811.523	85.8682	811.523	84.5711	811.523	85.1196	811.523	83.8205	811.523	84.4499	811.523	83.2952	811.523	83.8761	811.523	82.9726	811.523	83.3739	811.523	82.6516	811.523	82.8807	811.523	82.0182	811.523	82.2605	811.523	80.7594	811.523	81.3049	811.523	78.6466	811.523	79.7821	811.523	75.826	811.523	77.5763	811.523	74.2988	811.523	75.414	811.523	76.0979	811.523	75.6802	811.523	78.4071	811.523	77.8128	811.523	79.793	811.523	79.4875	811.523	80.1507
840.82	88.092	840.82	87.9534	840.82	87.941	840.82	87.5005	840.82	87.5357	840.82	86.7454	840.82	86.897	840.82	85.7534	840.82	86.0477	840.82	84.6728	840.82	85.0759	840.82	83.7413	840.82	84.1678	840.82	83.1414	840.82	83.4982	840.82	82.7947	840.82	83.0408	840.82	82.4347	840.82	82.5669	840.82	81.7918	840.82	81.8085	840.82	80.5748	840.82	80.5343	840.82	78.3881	840.82	78.5361	840.82	74.8837	840.82	75.82	840.82	72.1549	840.82	74.0105	840.82	74.9009	840.82	75.717	840.82	78.1281	840.82	78.354	840.82	80.006	840.82	80.0693	840.82	80.6291
870.117	87.6327	870.117	87.493	870.117	87.5098	870.117	87.0874	870.117	87.1426	870.117	86.4362	870.117	86.5512	870.117	85.5852	870.117	85.7477	870.117	84.604	870.117	84.7561	870.117	83.6021	870.117	83.6837	870.117	82.7584	870.117	82.7689	870.117	82.2285	870.117	82.2113	870.117	81.9091	870.117	81.8906	870.117	81.4383	870.117	81.4366	870.117	80.4329	870.117	80.4845	870.117	78.5752	870.117	78.7477	870.117	75.6754	870.117	76.1189	870.117	73.1732	870.117	73.8273	870.117	74.9101	870.117	74.9831	870.117	77.6823	870.117	77.4954	870.117	79.2606	870.117	79.1223	870.117	79.6959
900.879	87.6758	900.879	87.5197	900.879	87.5561	900.879	87.0843	900.879	87.1461	900.879	86.3557	900.879	86.4395	900.879	85.3472	900.879	85.479	900.879	84.1518	900.879	84.3706	900.879	82.9827	900.879	83.2573	900.879	82.1181	900.879	82.2926	900.879	81.6591	900.879	81.6089	900.879	81.3695	900.879	81.1819	900.879	80.8639	900.879	80.7164	900.879	79.7735	900.879	79.7803	900.879	77.6778	900.879	77.9405	900.879	74.0636	900.879	74.7821	900.879	70.8193	900.879	71.5182	900.879	74.1849	900.879	73.8616	900.879	77.7094	900.879	77.406	900.879	79.5539	900.879	79.4083	900.879	80.0741
933.105	86.9433	933.105	86.7635	933.105	86.8441	933.105	86.3248	933.105	86.4561	933.105	85.6329	933.105	85.7767	933.105	84.6743	933.105	84.8002	933.105	83.4794	933.105	83.5612	933.105	82.2174	933.105	82.2391	933.105	81.1947	933.105	81.1837	933.105	80.6275	933.105	80.6395	933.105	80.3869	933.105	80.4188	933.105	80.0722	933.105	80.0677	933.105	79.2154	933.105	79.1463	933.105	77.3179	933.105	77.2119	933.105	73.746	933.105	73.6563	933.105	69.1629	933.105	68.7172	933.105	71.965	933.105	70.5699	933.105	75.9638	933.105	74.7507	933.105	77.878	933.105	77.16	933.105	78.1838
965.332	85.887	965.332	85.6551	965.332	85.7839	965.332	85.1052	965.332	85.3605	965.332	84.2798	965.332	84.6357	965.332	83.2074	965.332	83.6196	965.332	81.9225	965.332	82.3485	965.332	80.6154	965.332	80.957	965.332	79.7212	965.332	79.7502	965.332	79.4468	965.332	79.0756	965.332	79.346	965.332	78.8888	965.332	78.8876	965.332	78.7173	965.332	77.7958	965.332	78.0525	965.332	75.805	965.332	76.3874	965.332	72.351	965.332	72.9538	965.332	67.9562	965.332	67.4627	965.332	70.7243	965.332	70.0553	965.332	74.6652	965.332	74.4498	965.332	76.5647	965.332	76.4786	965.332	77.0723
1,000.49	87.0071	1,000.49	86.8402	1,000.49	86.9708	1,000.49	86.4412	1,000.49	86.6939	1,000.49	85.7117	1,000.49	86.1452	1,000.49	84.5827	1,000.49	85.2993	1,000.49	83.083	1,000.49	84.0934	1,000.49	81.3431	1,000.49	82.5098	1,000.49	79.7082	1,000.49	80.8442	1,000.49	78.8879	1,000.49	79.8218	1,000.49	79.1464	1,000.49	79.6856	1,000.49	79.5865	1,000.49	79.6549	1,000.49	79.1798	1,000.49	79.0041	1,000.49	77.163	1,000.49	77.3004	1,000.49	72.4646	1,000.49	73.7255	1,000.49	63.3703	1,000.49	64.3529	1,000.49	70.6866	1,000.49	67.1111	1,000.49	75.9508	1,000.49	75.2337	1,000.49	78.4809	1,000.49	78.384	1,000.49	79.2783
1,035.64	88.9185	1,035.64	88.6293	1,035.64	88.967	1,035.64	88.1447	1,035.64	88.7299	1,035.64	87.4834	1,035.64	88.1942	1,035.64	86.5847	1,035.64	87.3848	1,035.64	85.3097	1,035.64	86.3165	1,035.64	83.6025	1,035.64	84.9836	1,035.64	81.7502	1,035.64	83.467	1,035.64	80.4821	1,035.64	82.1188	1,035.64	80.3073	1,035.64	81.4906	1,035.64	80.731	1,035.64	81.6127	1,035.64	80.8341	1,035.64	81.7254	1,035.64	79.8637	1,035.64	80.9713	1,035.64	76.9604	1,035.64	78.6196	1,035.64	69.547	1,035.64	73.2898	1,035.64	65.3013	1,035.64	46.164	1,035.64	75.2049	1,035.64	72.0506	1,035.64	78.4625	1,035.64	77.2761	1,035.64	79.0251
1,072.27	88.3683	1,072.27	88.1699	1,072.27	88.3429	1,072.27	87.7451	1,072.27	88.0806	1,072.27	87.0567	1,072.27	87.5817	1,072.27	86.0732	1,072.27	86.8205	1,072.27	84.7644	1,072.27	85.7341	1,072.27	83.0802	1,072.27	84.3038	1,072.27	81.1508	1,072.27	82.6646	1,072.27	79.7335	1,072.27	81.2438	1,072.27	79.6945	1,072.27	80.6912	1,072.27	80.3638	1,072.27	81.0069	1,072.27	80.5398	1,072.27	81.2624	1,072.27	79.4999	1,072.27	80.6077	1,072.27	76.5995	1,072.27	78.5219	1,072.27	70.1353	1,072.27	74.2119	1,072.27	59.6981	1,072.27	65.4889	1,072.27	71.9055	1,072.27	70.0679	1,072.27	75.8239	1,072.27	75.2592	1,072.27	76.792
1,108.89	88.808	1,108.89	88.5639	1,108.89	88.7425	1,108.89	88.0488	1,108.89	88.3452	1,108.89	87.3161	1,108.89	87.6244	1,108.89	86.3609	1,108.89	86.6517	1,108.89	85.1107	1,108.89	85.4605	1,108.89	83.5154	1,108.89	83.9602	1,108.89	81.5209	1,108.89	82.1232	1,108.89	79.1402	1,108.89	80.2347	1,108.89	77.4546	1,108.89	78.9765	1,108.89	78.0645	1,108.89	79.0476	1,108.89	79.2174	1,108.89	79.8801	1,108.89	79.2832	1,108.89	80.1721	1,108.89	77.7713	1,108.89	79.1576	1,108.89	73.9005	1,108.89	76.1538	1,108.89	67.3496	1,108.89	70.1432	1,108.89	71.9085	1,108.89	71.1559	1,108.89	76.0249	1,108.89	75.8086	1,108.89	77.179
1,148.44	89.4422	1,148.44	89.2446	1,148.44	89.3452	1,148.44	88.7472	1,148.44	88.9826	1,148.44	87.9909	1,148.44	88.3394	1,148.44	86.9994	1,148.44	87.3992	1,148.44	85.7628	1,148.44	86.2132	1,148.44	84.2798	1,148.44	84.8223	1,148.44	82.5489	1,148.44	83.1887	1,148.44	80.6745	1,148.44	81.3971	1,148.44	79.3102	1,148.44	79.9863	1,148.44	79.1893	1,148.44	79.6021	1,148.44	79.4726	1,148.44	79.8339	1,148.44	78.9187	1,148.44	79.6832	1,148.44	76.8366	1,148.44	78.3898	1,148.44	72.1813	1,148.44	74.9812	1,148.44	64.3279	1,148.44	68.2732	1,148.44	72.0505	1,148.44	72.2626	1,148.44	76.481	1,148.44	76.7277	1,148.44	77.8391
1,189.45	88.8446	1,189.45	88.6572	1,189.45	88.7665	1,189.45	88.2191	1,189.45	88.3937	1,189.45	87.5003	1,189.45	87.7278	1,189.45	86.4781	1,189.45	86.8132	1,189.45	85.2145	1,189.45	85.6626	1,189.45	83.7459	1,189.45	84.2085	1,189.45	81.9186	1,189.45	82.4209	1,189.45	79.6298	1,189.45	80.4231	1,189.45	77.6399	1,189.45	78.6072	1,189.45	77.625	1,189.45	77.986	1,189.45	78.7508	1,189.45	78.7262	1,189.45	79.058	1,189.45	79.1457	1,189.45	77.5863	1,189.45	77.9749	1,189.45	73.1026	1,189.45	74.2495	1,189.45	64.8334	1,189.45	64.937	1,189.45	72.5074	1,189.45	70.1816	1,189.45	76.4892	1,189.45	75.8498	1,189.45	77.4446
1,230.47	88.4446	1,230.47	88.1948	1,230.47	88.2832	1,230.47	87.6273	1,230.47	87.7789	1,230.47	86.9008	1,230.47	87.0737	1,230.47	86.0729	1,230.47	86.1714	1,230.47	85.0218	1,230.47	84.9903	1,230.47	83.6064	1,230.47	83.5811	1,230.47	81.8837	1,230.47	81.9352	1,230.47	80.0929	1,230.47	79.8161	1,230.47	78.5025	1,230.47	77.5344	1,230.47	77.487	1,230.47	76.4896	1,230.47	77.3409	1,230.47	76.7355	1,230.47	77.3074	1,230.47	76.8369	1,230.47	76.0405	1,230.47	75.7857	1,230.47	72.0301	1,230.47	72.3509	1,230.47	62.4511	1,230.47	63.3182	1,230.47	70.2032	1,230.47	69.1533	1,230.47	74.9659	1,230.47	74.6115	1,230.47	76.1484
1,274.41	87.419	1,274.41	87.1639	1,274.41	87.3181	1,274.41	86.6764	1,274.41	86.75	1,274.41	85.936	1,274.41	85.8049	1,274.41	84.9043	1,274.41	84.6774	1,274.41	83.6237	1,274.41	83.373	1,274.41	82.158	1,274.41	81.7573	1,274.41	80.5844	1,274.41	79.9711	1,274.41	78.8674	1,274.41	78.3307	1,274.41	77.1152	1,274.41	76.8726	1,274.41	76.5808	1,274.41	75.8722	1,274.41	77.3535	1,274.41	75.9769	1,274.41	77.553	1,274.41	76.5822	1,274.41	76.3204	1,274.41	76.3588	1,274.41	72.703	1,274.41	73.9992	1,274.41	64.5434	1,274.41	66.1993	1,274.41	68.744	1,274.41	65.6064	1,274.41	73.1325	1,274.41	72.8789	1,274.41	74.3551
1,319.82	86.6395	1,319.82	86.3993	1,319.82	86.4501	1,319.82	85.8244	1,319.82	85.8949	1,319.82	84.9749	1,319.82	85.0645	1,319.82	83.7791	1,319.82	83.9813	1,319.82	82.3019	1,319.82	82.7095	1,319.82	80.8668	1,319.82	81.2742	1,319.82	79.5173	1,319.82	79.7234	1,319.82	77.7043	1,319.82	78.0765	1,319.82	75.236	1,319.82	76.0336	1,319.82	73.5206	1,319.82	74.5677	1,319.82	74.1858	1,319.82	75.0946	1,319.82	75.3011	1,319.82	75.7366	1,319.82	74.7051	1,319.82	75.4178	1,319.82	70.7234	1,319.82	72.9888	1,319.82	58.7425	1,319.82	65.5182	1,319.82	69.0993	1,319.82	65.9462	1,319.82	74.0161	1,319.82	72.4724	1,319.82	74.8082
1,366.7	85.9908	1,366.7	85.7636	1,366.7	85.7695	1,366.7	85.1483	1,366.7	85.1524	1,366.7	84.2187	1,366.7	84.2587	1,366.7	83.0169	1,366.7	83.2057	1,366.7	81.6358	1,366.7	82.107	1,366.7	80.1661	1,366.7	80.8522	1,366.7	78.476	1,366.7	79.2095	1,366.7	76.3899	1,366.7	77.2553	1,366.7	74.2898	1,366.7	75.0806	1,366.7	73.2229	1,366.7	73.1193	1,366.7	73.729	1,366.7	72.4379	1,366.7	74.6655	1,366.7	72.603	1,366.7	74.3661	1,366.7	72.6906	1,366.7	71.2694	1,366.7	70.7003	1,366.7	60.4196	1,366.7	61.9786	1,366.7	64.4896	1,366.7	60.7544	1,366.7	71.216	1,366.7	69.3396	1,366.7	72.1275
1,413.57	84.8987	1,413.57	84.6585	1,413.57	84.7465	1,413.57	83.924	1,413.57	84.244	1,413.57	82.6189	1,413.57	83.4083	1,413.57	80.9316	1,413.57	82.3068	1,413.57	79.2475	1,413.57	80.945	1,413.57	77.6481	1,413.57	79.135	1,413.57	75.548	1,413.57	77.1907	1,413.57	72.7992	1,413.57	75.4867	1,413.57	71.177	1,413.57	73.3897	1,413.57	70.8451	1,413.57	71.7505	1,413.57	71.2136	1,413.57	71.8048	1,413.57	72.4883	1,413.57	72.7367	1,413.57	72.3538	1,413.57	73.0879	1,413.57	69.2264	1,413.57	71.271	1,413.57	58.7012	1,413.57	65.3406	1,413.57	61.5316	1,413.57	55.5015	1,413.57	68.103	1,413.57	66.6769	1,413.57	69.0284
1,463.38	84.8886	1,463.38	84.234	1,463.38	84.7309	1,463.38	83.1876	1,463.38	84.0651	1,463.38	82.3574	1,463.38	83.397	1,463.38	81.5368	1,463.38	82.7812	1,463.38	80.2751	1,463.38	81.8473	1,463.38	78.652	1,463.38	80.2077	1,463.38	76.581	1,463.38	78.051	1,463.38	73.4986	1,463.38	75.5631	1,463.38	69.5673	1,463.38	71.8772	1,463.38	67.6778	1,463.38	68.8224	1,463.38	69.6589	1,463.38	70.7661	1,463.38	71.5573	1,463.38	72.9177	1,463.38	71.5719	1,463.38	73.7602	1,463.38	69.4031	1,463.38	72.3	1,463.38	62.4252	1,463.38	67.7839	1,463.38	57.3687	1,463.38	62.0462	1,463.38	66.4363	1,463.38	66.0869	1,463.38	67.9475
1,516.11	87.2393	1,516.11	86.5207	1,516.11	87.198	1,516.11	85.2632	1,516.11	86.4136	1,516.11	83.8149	1,516.11	85.0888	1,516.11	82.4206	1,516.11	83.6384	1,516.11	80.9717	1,516.11	82.4582	1,516.11	79.7737	1,516.11	81.3324	1,516.11	79.1015	1,516.11	79.9988	1,516.11	77.6442	1,516.11	78.3911	1,516.11	74.6504	1,516.11	75.8631	1,516.11	70.42	1,516.11	71.6574	1,516.11	65.0396	1,516.11	67.7028	1,516.11	69.3775	1,516.11	70.3911	1,516.11	72.1537	1,516.11	73.0046	1,516.11	71.4428	1,516.11	71.7157	1,516.11	65.9576	1,516.11	66.2381	1,516.11	61.9268	1,516.11	61.9843	1,516.11	72.3101	1,516.11	70.2286	1,516.11	73.8713
1,568.85	87.1593	1,568.85	86.8005	1,568.85	86.9849	1,568.85	85.7918	1,568.85	86.2736	1,568.85	84.1906	1,568.85	84.8397	1,568.85	82.3552	1,568.85	82.8289	1,568.85	80.5069	1,568.85	80.8509	1,568.85	78.6485	1,568.85	79.1144	1,568.85	77.1267	1,568.85	77.6224	1,568.85	75.8577	1,568.85	75.9702	1,568.85	74.6137	1,568.85	73.0939	1,568.85	72.6144	1,568.85	69.494	1,568.85	69.1303	1,568.85	66.7227	1,568.85	69.7419	1,568.85	67.9234	1,568.85	71.1776	1,568.85	70.1205	1,568.85	70.6914	1,568.85	68.1515	1,568.85	67.8022	1,568.85	60.0312	1,568.85	47.8907	1,568.85	60.7448	1,568.85	68.7289	1,568.85	70.7118	1,568.85	72.8426
1,624.51	85.7195	1,624.51	85.2406	1,624.51	85.413	1,624.51	83.9364	1,624.51	84.6354	1,624.51	82.1609	1,624.51	83.3343	1,624.51	80.5596	1,624.51	81.4389	1,624.51	79.3244	1,624.51	79.389	1,624.51	77.9829	1,624.51	77.2728	1,624.51	76.8954	1,624.51	75.4179	1,624.51	76.3643	1,624.51	73.9632	1,624.51	75.7447	1,624.51	71.7355	1,624.51	74.4983	1,624.51	69.4629	1,624.51	71.4264	1,624.51	69.034	1,624.51	71.838	1,624.51	70.1842	1,624.51	73.4961	1,624.51	71.8644	1,624.51	73.1319	1,624.51	70.1302	1,624.51	70.3187	1,624.51	63.0398	1,624.51	54.6276	1,624.51	55.528	1,624.51	68.3651	1,624.51	68.8135	1,624.51	71.7755
1,681.64	83.9666	1,681.64	83.5749	1,681.64	83.9106	1,681.64	83.1318	1,681.64	83.2476	1,681.64	82.1572	1,681.64	82.1511	1,681.64	80.5712	1,681.64	80.2427	1,681.64	79.3998	1,681.64	77.7993	1,681.64	78.8891	1,681.64	75.3076	1,681.64	78.4988	1,681.64	72.8975	1,681.64	77.8016	1,681.64	72.5806	1,681.64	76.4427	1,681.64	72.9189	1,681.64	75.3926	1,681.64	71.3768	1,681.64	72.2134	1,681.64	68.0144	1,681.64	68.9895	1,681.64	65.1373	1,681.64	72.8082	1,681.64	69.0999	1,681.64	73.4969	1,681.64	69.983	1,681.64	70.8092	1,681.64	67.4324	1,681.64	60.3529	1,681.64	57.3375	1,681.64	67.1658	1,681.64	68.6669	1,681.64	71.5923
1,741.7	84.2101	1,741.7	84.1943	1,741.7	84.2536	1,741.7	84.2913	1,741.7	83.6031	1,741.7	83.649	1,741.7	82.7338	1,741.7	82.4191	1,741.7	81.5404	1,741.7	81.2527	1,741.7	79.9228	1,741.7	80.1517	1,741.7	78.7141	1,741.7	79.6753	1,741.7	78.0753	1,741.7	79.6916	1,741.7	78.2147	1,741.7	79.1908	1,741.7	78.6076	1,741.7	78.8381	1,741.7	77.5886	1,741.7	77.1195	1,741.7	74.8839	1,741.7	73.916	1,741.7	71.9864	1,741.7	75.1067	1,741.7	73.2388	1,741.7	76.1493	1,741.7	74.9679	1,741.7	73.7394	1,741.7	75.0589	1,741.7	64.9388	1,741.7	70.9472	1,741.7	68.7543	1,741.7	57.3745	1,741.7	70.3215
1,803.22	80.1041	1,803.22	80.7945	1,803.22	79.5767	1,803.22	79.9619	1,803.22	79.5375	1,803.22	78.8117	1,803.22	78.8924	1,803.22	79.2724	1,803.22	78.5442	1,803.22	79.4008	1,803.22	78.9286	1,803.22	77.577	1,803.22	78.7337	1,803.22	75.6858	1,803.22	77.905	1,803.22	76.0686	1,803.22	77.0914	1,803.22	75.0113	1,803.22	76.0735	1,803.22	73.3565	1,803.22	76.4731	1,803.22	72.5301	1,803.22	75.4972	1,803.22	71.1368	1,803.22	69.684	1,803.22	73.8128	1,803.22	65.6782	1,803.22	73.3507	1,803.22	67.7595	1,803.22	69.5331	1,803.22	69.0715	1,803.22	66.6077	1,803.22	65.8862	1,803.22	64.6618	1,803.22	63.1771	1,803.22	66.4499
1,866.21	83.997	1,866.21	83.8443	1,866.21	83.7199	1,866.21	83.0083	1,866.21	82.7795	1,866.21	81.8297	1,866.21	81.6293	1,866.21	80.6117	1,866.21	81.272	1,866.21	79.512	1,866.21	80.0073	1,866.21	78.0138	1,866.21	78.4495	1,866.21	75.8734	1,866.21	77.1487	1,866.21	74.0411	1,866.21	74.8246	1,866.21	71.8712	1,866.21	73.5794	1,866.21	68.1844	1,866.21	72.1906	1,866.21	65.1827	1,866.21	71.5949	1,866.21	59.9871	1,866.21	69.379	1,866.21	54.0132	1,866.21	67.1018	1,866.21	57.8534	1,866.21	66.4798	1,866.21	58.534	1,866.21	65.3403	1,866.21	48.7915	1,866.21	60.8865	1,866.21	51.4354	1,866.21	54.3317	1,866.21	54.0035
1,932.13	84.7661	1,932.13	84.3423	1,932.13	84.2393	1,932.13	83.2083	1,932.13	82.9957	1,932.13	81.9493	1,932.13	81.1138	1,932.13	80.3131	1,932.13	79.2287	1,932.13	78.5378	1,932.13	77.2158	1,932.13	77.1244	1,932.13	75.2482	1,932.13	75.425	1,932.13	73.7364	1,932.13	72.7409	1,932.13	71.9375	1,932.13	70.3964	1,932.13	70.6263	1,932.13	70.0188	1,932.13	69.4365	1,932.13	68.5589	1,932.13	65.4941	1,932.13	66.3484	1,932.13	62.4921	1,932.13	66.8163	1,932.13	65.3265	1,932.13	66.3831	1,932.13	66.1248	1,932.13	63.8045	1,932.13	63.7063	1,932.13	51.7137	1,932.13	58.6655	1,932.13	62.9172	1,932.13	60.906	1,932.13	65.9316
1,999.51	83.5577	1,999.51	82.7922	1,999.51	83.4956	1,999.51	81.8949	1,999.51	82.386	1,999.51	80.7612	1,999.51	80.3898	1,999.51	78.5977	1,999.51	78.4156	1,999.51	76.8905	1,999.51	76.2619	1,999.51	76.0226	1,999.51	74.3326	1,999.51	74.2893	1,999.51	73.0058	1,999.51	73.0176	1,999.51	71.3139	1,999.51	72.0491	1,999.51	70.3362	1,999.51	70.3744	1,999.51	69.1975	1,999.51	69.0335	1,999.51	66.9455	1,999.51	64.0591	1,999.51	64.6258	1,999.51	65.9387	1,999.51	66.525	1,999.51	69.8935	1,999.51	69.3038	1,999.51	68.4191	1,999.51	68.9945	1,999.51	60.2282	1,999.51	64.4424	1,999.51	66.0681	1,999.51	58.9818	1,999.51	66.7891
2,069.82	83.6333	2,069.82	82.8763	2,069.82	83.718	2,069.82	82.6111	2,069.82	82.6584	2,069.82	81.4736	2,069.82	81.208	2,069.82	79.5334	2,069.82	79.6154	2,069.82	78.1609	2,069.82	77.9051	2,069.82	76.0113	2,069.82	76.2299	2,069.82	73.9764	2,069.82	74.4099	2,069.82	73.7411	2,069.82	73.7529	2,069.82	73.1222	2,069.82	73.4694	2,069.82	72.2793	2,069.82	70.6008	2,069.82	70.4942	2,069.82	67.0242	2,069.82	65.628	2,069.82	66.491	2,069.82	63.5542	2,069.82	66.0471	2,069.82	70.6554	2,069.82	69.3981	2,069.82	70.6566	2,069.82	68.7354	2,069.82	64.4657	2,069.82	60.6657	2,069.82	67.9492	2,069.82	64.4136	2,069.82	68.8749
2,143.07	84.0221	2,143.07	83.8176	2,143.07	83.7888	2,143.07	83.0308	2,143.07	83.2289	2,143.07	82.0169	2,143.07	82.1484	2,143.07	80.4183	2,143.07	80.8079	2,143.07	78.4008	2,143.07	78.8268	2,143.07	75.8969	2,143.07	77.5622	2,143.07	74.381	2,143.07	76.709	2,143.07	73.8838	2,143.07	74.8693	2,143.07	71.4521	2,143.07	73.6755	2,143.07	72.0687	2,143.07	73.9575	2,143.07	70.9738	2,143.07	73.5383	2,143.07	67.8135	2,143.07	68.9565	2,143.07	64.0493	2,143.07	68.6427	2,143.07	70.7965	2,143.07	70.8295	2,143.07	71.4631	2,143.07	71.4653	2,143.07	57.7129	2,143.07	68.5995	2,143.07	60.9847	2,143.07	56.9104	2,143.07	64.6201
2,219.24	85.1594	2,219.24	84.6979	2,219.24	84.7666	2,219.24	83.3292	2,219.24	84.0668	2,219.24	81.5016	2,219.24	82.9121	2,219.24	79.9118	2,219.24	81.4599	2,219.24	78.8401	2,219.24	80.2644	2,219.24	76.8081	2,219.24	78.7401	2,219.24	74.95	2,219.24	76.2722	2,219.24	75.0289	2,219.24	75.2372	2,219.24	73.6697	2,219.24	74.8601	2,219.24	68.7402	2,219.24	75.1737	2,219.24	69.5607	2,219.24	73.4831	2,219.24	69.5211	2,219.24	70.8309	2,219.24	67.7458	2,219.24	67.7522	2,219.24	70.5688	2,219.24	70.612	2,219.24	70.6754	2,219.24	71.6518	2,219.24	65.7808	2,219.24	70.0745	2,219.24	62.9931	2,219.24	63.2396	2,219.24	62.4959
2,296.88	83.6734	2,296.88	83.6247	2,296.88	83.516	2,296.88	82.5537	2,296.88	82.9556	2,296.88	81.1617	2,296.88	81.8144	2,296.88	80.1208	2,296.88	80.7305	2,296.88	78.5848	2,296.88	78.6467	2,296.88	77.505	2,296.88	76.8034	2,296.88	76.8541	2,296.88	74.5176	2,296.88	75.094	2,296.88	72.7418	2,296.88	74.4321	2,296.88	73.1797	2,296.88	72.9404	2,296.88	71.7099	2,296.88	68.8797	2,296.88	72.3167	2,296.88	69.3329	2,296.88	71.6111	2,296.88	68.5404	2,296.88	68.5588	2,296.88	70.5696	2,296.88	68.3929	2,296.88	71.0376	2,296.88	72.4638	2,296.88	68.9943	2,296.88	67.6149	2,296.88	60.3528	2,296.88	65.2311	2,296.88	58.4833
2,378.91	82.3317	2,378.91	81.9572	2,378.91	82.4778	2,378.91	80.2911	2,378.91	82.288	2,378.91	79.3739	2,378.91	81.1702	2,378.91	78.5042	2,378.91	79.34	2,378.91	78.0309	2,378.91	78.6897	2,378.91	78.4947	2,378.91	78.4834	2,378.91	76.8922	2,378.91	77.315	2,378.91	74.7867	2,378.91	74.732	2,378.91	73.5927	2,378.91	72.1638	2,378.91	72.1182	2,378.91	72.1738	2,378.91	70.6731	2,378.91	70.1474	2,378.91	70.1504	2,378.91	69.05	2,378.91	60.8931	2,378.91	68.0955	2,378.91	62.8584	2,378.91	67.8228	2,378.91	66.8536	2,378.91	69.1465	2,378.91	66.9939	2,378.91	67.1327	2,378.91	63.3312	2,378.91	62.6614	2,378.91	62.1747
2,462.4	82.59	2,462.4	82.0743	2,462.4	82.5574	2,462.4	81.0671	2,462.4	82.0669	2,462.4	80.052	2,462.4	81.3944	2,462.4	79.5258	2,462.4	80.7962	2,462.4	78.8679	2,462.4	80.1075	2,462.4	78.1543	2,462.4	79.4105	2,462.4	76.4289	2,462.4	78.3364	2,462.4	73.9518	2,462.4	76.2008	2,462.4	73.2923	2,462.4	74.7485	2,462.4	71.7835	2,462.4	73.7231	2,462.4	69.3323	2,462.4	71.8355	2,462.4	70.0648	2,462.4	71.4137	2,462.4	67.2847	2,462.4	72.2501	2,462.4	66.8157	2,462.4	69.9314	2,462.4	69.3334	2,462.4	70.4184	2,462.4	66.9407	2,462.4	69.0909	2,462.4	65.4322	2,462.4	68.1664	2,462.4	65.8253
2,548.83	81.9381	2,548.83	81.5105	2,548.83	82.1867	2,548.83	81.7127	2,548.83	81.7227	2,548.83	81.8275	2,548.83	81.5831	2,548.83	81.6141	2,548.83	80.9084	2,548.83	80.8417	2,548.83	80.21	2,548.83	79.892	2,548.83	79.6591	2,548.83	78.7433	2,548.83	78.637	2,548.83	76.1071	2,548.83	76.7346	2,548.83	73.4919	2,548.83	74.6213	2,548.83	73.8795	2,548.83	74.3763	2,548.83	71.4314	2,548.83	71.8891	2,548.83	70.036	2,548.83	71.1886	2,548.83	71.7242	2,548.83	71.1889	2,548.83	68.6834	2,548.83	68.7488	2,548.83	68.6019	2,548.83	68.7719	2,548.83	64.1881	2,548.83	66.8791	2,548.83	63.0427	2,548.83	67.9978	2,548.83	69.2957
2,639.65	79.9741	2,639.65	80.3738	2,639.65	79.7042	2,639.65	80.8261	2,639.65	79.8845	2,639.65	81.4261	2,639.65	80.0593	2,639.65	81.4022	2,639.65	79.9742	2,639.65	80.8636	2,639.65	79.0173	2,639.65	79.9255	2,639.65	78.0801	2,639.65	79.2738	2,639.65	77.6927	2,639.65	77.4642	2,639.65	76.2566	2,639.65	75.1554	2,639.65	73.2546	2,639.65	74.3823	2,639.65	72.6907	2,639.65	73.1578	2,639.65	72.2775	2,639.65	72.1253	2,639.65	69.668	2,639.65	70.581	2,639.65	69.7492	2,639.65	69.0812	2,639.65	68.5074	2,639.65	70.5148	2,639.65	68.6365	2,639.65	68.449	2,639.65	66.7913	2,639.65	68.3232	2,639.65	59.1587	2,639.65	70.3243
2,731.93	78.0493	2,731.93	78.7192	2,731.93	77.6241	2,731.93	80.0765	2,731.93	78.1878	2,731.93	81.3172	2,731.93	79.1003	2,731.93	81.2524	2,731.93	79.9919	2,731.93	80.4918	2,731.93	79.5314	2,731.93	78.8234	2,731.93	78.0112	2,731.93	77.7317	2,731.93	77.1476	2,731.93	76.4012	2,731.93	76.4514	2,731.93	73.3801	2,731.93	74.3047	2,731.93	73.9533	2,731.93	72.7456	2,731.93	72.7137	2,731.93	72.2843	2,731.93	70.7697	2,731.93	70.0753	2,731.93	71.463	2,731.93	68.4246	2,731.93	69.4255	2,731.93	65.4961	2,731.93	70.5643	2,731.93	68.1231	2,731.93	66.2822	2,731.93	67.4849	2,731.93	59.2066	2,731.93	55.1526	2,731.93	65.3561
2,828.61	77.3552	2,828.61	78.7298	2,828.61	77.4901	2,828.61	79.8983	2,828.61	78.7708	2,828.61	81.0015	2,828.61	79.7861	2,828.61	81.5732	2,828.61	80.7988	2,828.61	80.5163	2,828.61	80.8453	2,828.61	79.0559	2,828.61	79.5532	2,828.61	77.9987	2,828.61	77.7821	2,828.61	76.1529	2,828.61	76.0475	2,828.61	73.8091	2,828.61	74.7913	2,828.61	71.799	2,828.61	73.4393	2,828.61	71.1794	2,828.61	72.3088	2,828.61	68.8515	2,828.61	69.9913	2,828.61	65.4282	2,828.61	70.788	2,828.61	66.2803	2,828.61	68.7465	2,828.61	69.1217	2,828.61	68.718	2,828.61	68.4119	2,828.61	68.9634	2,828.61	65.7238	2,828.61	60.6311	2,828.61	64.8673
2,928.22	78.4867	2,928.22	79.2123	2,928.22	78.9616	2,928.22	80.4654	2,928.22	79.5561	2,928.22	81.0095	2,928.22	80.3304	2,928.22	81.3449	2,928.22	80.9021	2,928.22	80.6374	2,928.22	80.6693	2,928.22	79.0606	2,928.22	79.4393	2,928.22	77.2097	2,928.22	77.0977	2,928.22	75.2035	2,928.22	75.4179	2,928.22	73.0621	2,928.22	73.7462	2,928.22	72.6168	2,928.22	72.3758	2,928.22	70.081	2,928.22	71.0893	2,928.22	67.6827	2,928.22	68.0295	2,928.22	70.0285	2,928.22	68.9306	2,928.22	67.0457	2,928.22	69.2543	2,928.22	68.69	2,928.22	68.6289	2,928.22	66.0934	2,928.22	68.9213	2,928.22	44.7618	2,928.22	62.3325	2,928.22	54.4466
3,030.76	80.4232	3,030.76	80.943	3,030.76	80.3931	3,030.76	81.8387	3,030.76	81.0098	3,030.76	82.2567	3,030.76	81.6232	3,030.76	82.0395	3,030.76	81.575	3,030.76	81.3609	3,030.76	80.8528	3,030.76	79.5624	3,030.76	79.5081	3,030.76	77.0577	3,030.76	77.6079	3,030.76	75.5408	3,030.76	75.4375	3,030.76	73.5276	3,030.76	72.7608	3,030.76	72.0208	3,030.76	71.1745	3,030.76	70.7825	3,030.76	70.858	3,030.76	70.1815	3,030.76	69.2509	3,030.76	70.426	3,030.76	69.0508	3,030.76	67.3514	3,030.76	68.9129	3,030.76	70.4231	3,030.76	68.1377	3,030.76	67.5075	3,030.76	69.3918	3,030.76	58.0594	3,030.76	62.4114	3,030.76	63.6
3,137.7	81.5887	3,137.7	82.1703	3,137.7	81.6374	3,137.7	82.7712	3,137.7	82.5124	3,137.7	83.1257	3,137.7	82.8679	3,137.7	82.5903	3,137.7	82.7263	3,137.7	81.5985	3,137.7	81.9657	3,137.7	80.1064	3,137.7	80.5853	3,137.7	77.8825	3,137.7	78.726	3,137.7	76.2351	3,137.7	76.8379	3,137.7	74.2612	3,137.7	75.2445	3,137.7	72.1011	3,137.7	72.3411	3,137.7	72.0961	3,137.7	71.5161	3,137.7	67.3946	3,137.7	70.3461	3,137.7	70.7431	3,137.7	70.3371	3,137.7	69.9009	3,137.7	69.7629	3,137.7	70.464	3,137.7	69.7101	3,137.7	68.4095	3,137.7	71.0828	3,137.7	65.6558	3,137.7	62.6241	3,137.7	65.9505
3,249.02	82.6407	3,249.02	82.8603	3,249.02	83.0566	3,249.02	83.4481	3,249.02	83.4883	3,249.02	83.1395	3,249.02	84.1151	3,249.02	82.4161	3,249.02	84.0009	3,249.02	81.6728	3,249.02	83.0057	3,249.02	80.1251	3,249.02	81.4934	3,249.02	77.386	3,249.02	79.5484	3,249.02	76.0495	3,249.02	77.625	3,249.02	74.0195	3,249.02	75.8847	3,249.02	72.3987	3,249.02	73.0741	3,249.02	71.3501	3,249.02	72.4747	3,249.02	68.7378	3,249.02	70.1439	3,249.02	69.9407	3,249.02	71.5611	3,249.02	67.7596	3,249.02	71.5109	3,249.02	70.8235	3,249.02	70.6157	3,249.02	70.7968	3,249.02	72.3779	3,249.02	65.322	3,249.02	67.1892	3,249.02	66.6698
3,363.28	83.0594	3,363.28	83.4627	3,363.28	83.1841	3,363.28	83.8576	3,363.28	84.1437	3,363.28	84.0657	3,363.28	84.1879	3,363.28	82.9658	3,363.28	83.3091	3,363.28	82.0359	3,363.28	82.1448	3,363.28	80.8878	3,363.28	80.419	3,363.28	78.3685	3,363.28	78.0945	3,363.28	76.6227	3,363.28	75.7662	3,363.28	74.7086	3,363.28	74.4652	3,363.28	71.9201	3,363.28	71.6567	3,363.28	71.8636	3,363.28	70.6205	3,363.28	68.8195	3,363.28	68.5621	3,363.28	70.3673	3,363.28	67.4023	3,363.28	68.1129	3,363.28	69.719	3,363.28	70.7644	3,363.28	69.1963	3,363.28	71.4377	3,363.28	71.8854	3,363.28	62.1719	3,363.28	67.1925	3,363.28	64.6871
3,481.93	83.2551	3,481.93	83.791	3,481.93	83.1622	3,481.93	84.24	3,481.93	84.0663	3,481.93	84.6056	3,481.93	84.1061	3,481.93	83.8356	3,481.93	83.3552	3,481.93	81.7944	3,481.93	81.5607	3,481.93	80.3116	3,481.93	80.2772	3,481.93	79.0821	3,481.93	78.6874	3,481.93	76.488	3,481.93	76.3617	3,481.93	75.161	3,481.93	74.7495	3,481.93	72.0119	3,481.93	72.1097	3,481.93	72.2455	3,481.93	70.3016	3,481.93	68.3766	3,481.93	69.2256	3,481.93	71.7531	3,481.93	67.9609	3,481.93	69.6344	3,481.93	70.5638	3,481.93	70.3271	3,481.93	67.8361	3,481.93	70.0598	3,481.93	71.7899	3,481.93	62.9182	3,481.93	66.8276	3,481.93	65.7892
3,604.98	84.9158	3,604.98	85.0527	3,604.98	85.4807	3,604.98	85.2884	3,604.98	85.1464	3,604.98	84.3469	3,604.98	85.1063	3,604.98	83.3677	3,604.98	84.2894	3,604.98	82.054	3,604.98	83.2511	3,604.98	80.4062	3,604.98	81.5744	3,604.98	78.1843	3,604.98	79.655	3,604.98	76.9342	3,604.98	77.1768	3,604.98	75.1893	3,604.98	75.2853	3,604.98	71.9412	3,604.98	72.8831	3,604.98	71.6136	3,604.98	71.6876	3,604.98	68.6028	3,604.98	70.6396	3,604.98	71.4016	3,604.98	68.9681	3,604.98	71.0383	3,604.98	72.8842	3,604.98	69.3992	3,604.98	69.4416	3,604.98	70.5903	3,604.98	72.6551	3,604.98	65.5306	3,604.98	67.8312	3,604.98	68.1056
3,732.42	84.3779	3,732.42	85.0474	3,732.42	84.0521	3,732.42	85.0277	3,732.42	84.5169	3,732.42	85.1438	3,732.42	84.308	3,732.42	84.3821	3,732.42	83.5165	3,732.42	83.4833	3,732.42	82.0777	3,732.42	82.2166	3,732.42	80.8856	3,732.42	80.5843	3,732.42	79.8157	3,732.42	77.7999	3,732.42	77.5562	3,732.42	75.1336	3,732.42	75.3617	3,732.42	72.9149	3,732.42	72.9178	3,732.42	70.9791	3,732.42	70.1213	3,732.42	69.8383	3,732.42	70.0175	3,732.42	68.5118	3,732.42	64.0569	3,732.42	72.1907	3,732.42	71.9284	3,732.42	69.3036	3,732.42	68.6103	3,732.42	72.3787	3,732.42	73.1986	3,732.42	66.5629	3,732.42	69.4828	3,732.42	68.2747
3,864.26	82.3543	3,864.26	83.0851	3,864.26	81.9927	3,864.26	83.3631	3,864.26	83.1047	3,864.26	84.3348	3,864.26	83.3825	3,864.26	84.5825	3,864.26	83.4568	3,864.26	83.1542	3,864.26	82.9168	3,864.26	81.7911	3,864.26	82.5516	3,864.26	80.9285	3,864.26	81.012	3,864.26	77.7567	3,864.26	79.6567	3,864.26	75.7617	3,864.26	77.3554	3,864.26	73.8775	3,864.26	74.8269	3,864.26	71.9318	3,864.26	72.3397	3,864.26	71.0521	3,864.26	72.9289	3,864.26	69.734	3,864.26	68.4835	3,864.26	72.6095	3,864.26	71.9762	3,864.26	71.0237	3,864.26	70.5632	3,864.26	73.4655	3,864.26	73.1853	3,864.26	67.1677	3,864.26	70.5096	3,864.26	67.9437
4,000.49	83.3343	4,000.49	82.9543	4,000.49	83.7631	4,000.49	84.3064	4,000.49	83.38	4,000.49	84.1824	4,000.49	84.4133	4,000.49	84.6084	4,000.49	85.0502	4,000.49	84.4764	4,000.49	85.0947	4,000.49	83.1519	4,000.49	83.8355	4,000.49	81.192	4,000.49	81.7786	4,000.49	79.7191	4,000.49	79.7605	4,000.49	77.3228	4,000.49	77.874	4,000.49	74.7111	4,000.49	75.773	4,000.49	72.0938	4,000.49	73.5009	4,000.49	72.2616	4,000.49	72.4227	4,000.49	69.1016	4,000.49	69.51	4,000.49	72.6817	4,000.49	73.1442	4,000.49	70.8914	4,000.49	72.4234	4,000.49	72.4716	4,000.49	73.3279	4,000.49	62.3035	4,000.49	70.6602	4,000.49	68.5207
4,141.11	82.6409	4,141.11	83.2754	4,141.11	82.65	4,141.11	83.4177	4,141.11	83.5664	4,141.11	84.272	4,141.11	83.9533	4,141.11	84.388	4,141.11	84.8475	4,141.11	85.0697	4,141.11	85.3177	4,141.11	83.8868	4,141.11	83.4536	4,141.11	81.3786	4,141.11	81.9098	4,141.11	80.1457	4,141.11	80.1202	4,141.11	77.8259	4,141.11	77.5674	4,141.11	76.3061	4,141.11	75.1622	4,141.11	72.4549	4,141.11	72.365	4,141.11	72.4539	4,141.11	71.3344	4,141.11	67.6463	4,141.11	69.6137	4,141.11	72.9351	4,141.11	71.9095	4,141.11	71.6995	4,141.11	73.2913	4,141.11	73.2967	4,141.11	73.0585	4,141.11	66.7375	4,141.11	70.2755	4,141.11	68.3772
4,287.6	83.4866	4,287.6	83.8463	4,287.6	83.0583	4,287.6	83.8898	4,287.6	83.9056	4,287.6	85.3568	4,287.6	83.9027	4,287.6	85.4052	4,287.6	84.3753	4,287.6	84.7329	4,287.6	83.8675	4,287.6	83.3621	4,287.6	83.4604	4,287.6	81.6911	4,287.6	82.0446	4,287.6	78.1962	4,287.6	79.8827	4,287.6	74.6068	4,287.6	76.7636	4,287.6	73.4134	4,287.6	74.5077	4,287.6	70.7438	4,287.6	72.3498	4,287.6	69.1064	4,287.6	71.2676	4,287.6	69.0715	4,287.6	69.807	4,287.6	73.2471	4,287.6	69.6876	4,287.6	72.3577	4,287.6	72.5865	4,287.6	73.4385	4,287.6	73.3755	4,287.6	67.3523	4,287.6	70.605	4,287.6	68.2251
4,438.48	83.721	4,438.48	81.8009	4,438.48	84.6783	4,438.48	83.3634	4,438.48	82.3827	4,438.48	83.4237	4,438.48	83.3444	4,438.48	83.9777	4,438.48	83.2743	4,438.48	83.6782	4,438.48	84.3258	4,438.48	82.1665	4,438.48	83.7516	4,438.48	80.3779	4,438.48	81.2672	4,438.48	78.9585	4,438.48	79.447	4,438.48	77.0098	4,438.48	77.3408	4,438.48	73.3955	4,438.48	74.467	4,438.48	72.0472	4,438.48	71.816	4,438.48	70.439	4,438.48	69.2066	4,438.48	65.0689	4,438.48	69.6772	4,438.48	71.5872	4,438.48	67.1061	4,438.48	71.2032	4,438.48	71.4823	4,438.48	73.2085	4,438.48	72.1722	4,438.48	63.4056	4,438.48	71.7657	4,438.48	68.8889
4,595.21	85.2514	4,595.21	85.5745	4,595.21	84.2698	4,595.21	82.7635	4,595.21	85.0293	4,595.21	83.4928	4,595.21	84.4268	4,595.21	83.9719	4,595.21	85.6114	4,595.21	84.53	4,595.21	85.603	4,595.21	83.1225	4,595.21	84.298	4,595.21	80.1482	4,595.21	82.4627	4,595.21	78.5046	4,595.21	79.7375	4,595.21	76.3779	4,595.21	77.7512	4,595.21	73.8323	4,595.21	75.6932	4,595.21	71.4735	4,595.21	73.0334	4,595.21	68.85	4,595.21	70.5225	4,595.21	68.6849	4,595.21	70.0895	4,595.21	68.1505	4,595.21	70.2244	4,595.21	70.0359	4,595.21	72.2738	4,595.21	72.6405	4,595.21	72.0672	4,595.21	64.8474	4,595.21	70.9582	4,595.21	61.297
4,756.35	85.2021	4,756.35	83.5631	4,756.35	84.9431	4,756.35	83.4179	4,756.35	82.8664	4,756.35	84.3286	4,756.35	83.1415	4,756.35	85.3177	4,756.35	83.5623	4,756.35	84.6751	4,756.35	83.4489	4,756.35	83.9561	4,756.35	83.2063	4,756.35	82.3704	4,756.35	81.895	4,756.35	79.1987	4,756.35	79.1159	4,756.35	76.3642	4,756.35	76.9513	4,756.35	73.6646	4,756.35	73.9484	4,756.35	70.6116	4,756.35	70.1137	4,756.35	69.6966	4,756.35	67.8745	4,756.35	69.9922	4,756.35	67.2404	4,756.35	67.3107	4,756.35	68.9752	4,756.35	70.1083	4,756.35	71.2888	4,756.35	72.0363	4,756.35	70.298	4,756.35	67.7971	4,756.35	70.5026	4,756.35	63.5663
4,924.8	85.5872	4,924.8	84.7813	4,924.8	85.1647	4,924.8	83.2553	4,924.8	83.8478	4,924.8	82.8931	4,924.8	83.7961	4,924.8	84.1714	4,924.8	84.4881	4,924.8	84.2439	4,924.8	84.7342	4,924.8	82.4811	4,924.8	83.8298	4,924.8	79.9158	4,924.8	81.6218	4,924.8	76.9384	4,924.8	79.6571	4,924.8	74.4968	4,924.8	77.043	4,924.8	70.6167	4,924.8	74.4523	4,924.8	71.0409	4,924.8	71.9174	4,924.8	68.0083	4,924.8	67.5145	4,924.8	69.2658	4,924.8	68.1434	4,924.8	69.1229	4,924.8	65.7081	4,924.8	69.0166	4,924.8	70.5374	4,924.8	70.6727	4,924.8	69.4856	4,924.8	62.6594	4,924.8	69.6811	4,924.8	61.2828
5,097.66	85.8561	5,097.66	85.577	5,097.66	84.6841	5,097.66	83.2952	5,097.66	84.2601	5,097.66	83.6716	5,097.66	83.8067	5,097.66	84.1415	5,097.66	84.6765	5,097.66	84.9902	5,097.66	84.9268	5,097.66	83.446	5,097.66	83.6766	5,097.66	80.8676	5,097.66	81.4349	5,097.66	78.5758	5,097.66	79.2765	5,097.66	76.072	5,097.66	76.2796	5,097.66	73.0431	5,097.66	73.7769	5,097.66	70.2661	5,097.66	70.4406	5,097.66	68.8018	5,097.66	69.0955	5,097.66	70.1767	5,097.66	67.2717	5,097.66	68.204	5,097.66	67.3652	5,097.66	69.5795	5,097.66	69.6009	5,097.66	71.3962	5,097.66	67.8076	5,097.66	64.2309	5,097.66	68.79	5,097.66	55.4499
5,277.83	85.0598	5,277.83	84.444	5,277.83	85.4442	5,277.83	84.8192	5,277.83	83.8873	5,277.83	84.3255	5,277.83	84.0578	5,277.83	85.0166	5,277.83	84.5341	5,277.83	84.2718	5,277.83	84.6933	5,277.83	82.6186	5,277.83	83.7803	5,277.83	80.0755	5,277.83	81.4357	5,277.83	76.293	5,277.83	78.9884	5,277.83	73.1892	5,277.83	76.8366	5,277.83	70.4626	5,277.83	73.9726	5,277.83	68.6149	5,277.83	71.8449	5,277.83	67.9273	5,277.83	69.5874	5,277.83	66.9966	5,277.83	67.5371	5,277.83	66.5088	5,277.83	66.7742	5,277.83	69.5441	5,277.83	69.4239	5,277.83	68.6459	5,277.83	68.0586	5,277.83	60.3996	5,277.83	70.6128	5,277.83	58.1359
5,463.87	83.7608	5,463.87	83.977	5,463.87	82.87	5,463.87	82.9293	5,463.87	83.1574	5,463.87	82.8605	5,463.87	83.1508	5,463.87	83.8101	5,463.87	84.0368	5,463.87	84.0468	5,463.87	84.2136	5,463.87	82.3007	5,463.87	82.9347	5,463.87	79.6946	5,463.87	80.8358	5,463.87	77.1885	5,463.87	78.6123	5,463.87	74.1902	5,463.87	75.3035	5,463.87	71.8455	5,463.87	73.2657	5,463.87	67.8969	5,463.87	70.5501	5,463.87	65.5325	5,463.87	68.8281	5,463.87	66.6458	5,463.87	65.9358	5,463.87	65.0167	5,463.87	65.5814	5,463.87	68.3369	5,463.87	68.2246	5,463.87	67.4695	5,463.87	69.1746	5,463.87	64.6157	5,463.87	69.013	5,463.87	57.6068
5,657.23	84.01	5,657.23	84.154	5,657.23	84.605	5,657.23	85.1561	5,657.23	83.9166	5,657.23	84.578	5,657.23	84.045	5,657.23	84.2996	5,657.23	84.0757	5,657.23	83.7453	5,657.23	84.3069	5,657.23	81.9232	5,657.23	83.0382	5,657.23	78.8453	5,657.23	80.6303	5,657.23	75.7235	5,657.23	78.7519	5,657.23	73.632	5,657.23	75.2537	5,657.23	70.2204	5,657.23	73.2016	5,657.23	66.778	5,657.23	70.5469	5,657.23	65.9261	5,657.23	68.5746	5,657.23	66.3059	5,657.23	66.6601	5,657.23	64.2896	5,657.23	65.6282	5,657.23	68.4363	5,657.23	68.689	5,657.23	69.1235	5,657.23	69.5161	5,657.23	62.099	5,657.23	69.6101	5,657.23	57.2227
5,856.45	84.5555	5,856.45	84.7363	5,856.45	84.5144	5,856.45	84.6004	5,856.45	84.7678	5,856.45	83.4767	5,856.45	83.6199	5,856.45	83.338	5,856.45	83.5703	5,856.45	83.2172	5,856.45	83.9057	5,856.45	81.8825	5,856.45	82.6671	5,856.45	79.564	5,856.45	80.7354	5,856.45	78.0431	5,856.45	78.5428	5,856.45	75.2776	5,856.45	75.7284	5,856.45	71.8867	5,856.45	73.4803	5,856.45	68.185	5,856.45	69.6363	5,856.45	64.4244	5,856.45	66.2585	5,856.45	62.9057	5,856.45	66.18	5,856.45	64.0383	5,856.45	64.164	5,856.45	67.2321	5,856.45	66.9601	5,856.45	67.9112	5,856.45	68.6585	5,856.45	66.2768	5,856.45	69.1728	5,856.45	54.1669
6,062.99	85.1955	6,062.99	85.4132	6,062.99	85.5842	6,062.99	84.8427	6,062.99	84.5281	6,062.99	83.4336	6,062.99	83.5351	6,062.99	82.9554	6,062.99	83.0501	6,062.99	83.2159	6,062.99	83.0692	6,062.99	82.3413	6,062.99	82.7828	6,062.99	80.0775	6,062.99	81.0399	6,062.99	76.6253	6,062.99	79.1421	6,062.99	73.7884	6,062.99	75.8078	6,062.99	71.2517	6,062.99	73.0954	6,062.99	67.8446	6,062.99	70.7287	6,062.99	63.7677	6,062.99	68.4876	6,062.99	62.4686	6,062.99	66.6252	6,062.99	63.276	6,062.99	68.0687	6,062.99	68.2507	6,062.99	64.5788	6,062.99	67.0787	6,062.99	67.42	6,062.99	63.3484	6,062.99	67.7531	6,062.99	54.023
6,276.86	85.3501	6,276.86	85.5996	6,276.86	85.5046	6,276.86	85.054	6,276.86	85.0416	6,276.86	83.0268	6,276.86	83.6373	6,276.86	83.0272	6,276.86	82.9279	6,276.86	83.2997	6,276.86	83.5887	6,276.86	82.2957	6,276.86	83.0467	6,276.86	80.439	6,276.86	80.8939	6,276.86	77.8279	6,276.86	79.2251	6,276.86	75.0077	6,276.86	75.9501	6,276.86	70.9668	6,276.86	73.6225	6,276.86	69.3338	6,276.86	70.2927	6,276.86	65.2175	6,276.86	67.8914	6,276.86	62.3629	6,276.86	65.0273	6,276.86	62.3563	6,276.86	67.5498	6,276.86	67.9541	6,276.86	66.4251	6,276.86	67.7908	6,276.86	67.3503	6,276.86	63.0909	6,276.86	68.3441	6,276.86	56.517
6,498.05	84.9414	6,498.05	85.3347	6,498.05	85.3789	6,498.05	85.017	6,498.05	84.8927	6,498.05	82.5142	6,498.05	83.7501	6,498.05	82.253	6,498.05	82.8163	6,498.05	83.023	6,498.05	83.3205	6,498.05	82.4387	6,498.05	82.9256	6,498.05	80.6271	6,498.05	81.0191	6,498.05	77.6449	6,498.05	78.9739	6,498.05	73.8189	6,498.05	75.7194	6,498.05	70.8709	6,498.05	72.7618	6,498.05	68.0022	6,498.05	70.6133	6,498.05	65.4189	6,498.05	66.8775	6,498.05	60.6066	6,498.05	64.6006	6,498.05	61.1331	6,498.05	66.5276	6,498.05	67.4209	6,498.05	65.5531	6,498.05	67.3294	6,498.05	68.8713	6,498.05	58.8894	6,498.05	66.4963	6,498.05	56.6834
6,726.56	85.066	6,726.56	85.6892	6,726.56	85.4063	6,726.56	85.5009	6,726.56	85.2103	6,726.56	83.5866	6,726.56	83.7513	6,726.56	83.0767	6,726.56	82.7816	6,726.56	83.3149	6,726.56	83.6295	6,726.56	82.5893	6,726.56	82.982	6,726.56	80.2871	6,726.56	80.7804	6,726.56	76.8965	6,726.56	78.2749	6,726.56	74.1576	6,726.56	76.0012	6,726.56	70.8165	6,726.56	73.3976	6,726.56	69.6301	6,726.56	70.1099	6,726.56	65.2779	6,726.56	67.7418	6,726.56	63.8672	6,726.56	64.5084	6,726.56	61.9133	6,726.56	64.9694	6,726.56	65.9623	6,726.56	67.2103	6,726.56	66.287	6,726.56	68.8727	6,726.56	60.4349	6,726.56	67.6523	6,726.56	47.5384
6,963.87	84.5793	6,963.87	85.0116	6,963.87	85.0939	6,963.87	84.7817	6,963.87	84.8418	6,963.87	82.3323	6,963.87	83.3573	6,963.87	81.7401	6,963.87	82.19	6,963.87	82.6674	6,963.87	82.5063	6,963.87	82.0006	6,963.87	81.8428	6,963.87	80.0166	6,963.87	79.8683	6,963.87	77.0154	6,963.87	77.6083	6,963.87	74.365	6,963.87	74.371	6,963.87	70.3829	6,963.87	71.5467	6,963.87	67.22	6,963.87	69.5594	6,963.87	64.8101	6,963.87	64.604	6,963.87	62.5313	6,963.87	61.9565	6,963.87	62.3231	6,963.87	62.789	6,963.87	64.728	6,963.87	63.3317	6,963.87	65.9918	6,963.87	67.6186	6,963.87	61.2922	6,963.87	65.2891	6,963.87	50.601
7,209.96	85.2198	7,209.96	85.5115	7,209.96	85.206	7,209.96	85.2445	7,209.96	84.9794	7,209.96	83.6885	7,209.96	83.7381	7,209.96	82.8322	7,209.96	82.4662	7,209.96	82.9683	7,209.96	83.1781	7,209.96	82.1847	7,209.96	82.2947	7,209.96	79.7774	7,209.96	79.7461	7,209.96	76.5931	7,209.96	77.297	7,209.96	74.0025	7,209.96	74.1208	7,209.96	71.2009	7,209.96	71.6422	7,209.96	68.1114	7,209.96	68.8383	7,209.96	61.6272	7,209.96	66.1101	7,209.96	60.4944	7,209.96	63.6642	7,209.96	58.9662	7,209.96	63.0151	7,209.96	66.3643	7,209.96	63.0303	7,209.96	66.8554	7,209.96	65.2117	7,209.96	60.7427	7,209.96	65.1922	7,209.96	47.8462
7,464.84	84.9467	7,464.84	84.4365	7,464.84	84.7836	7,464.84	84.0754	7,464.84	84.0983	7,464.84	82.2746	7,464.84	82.5963	7,464.84	81.6429	7,464.84	81.6264	7,464.84	82.3032	7,464.84	81.8212	7,464.84	80.9906	7,464.84	80.9594	7,464.84	79.1404	7,464.84	79.1753	7,464.84	76.7386	7,464.84	76.8602	7,464.84	73.9067	7,464.84	73.5313	7,464.84	70.9239	7,464.84	70.6514	7,464.84	69.0119	7,464.84	68.0998	7,464.84	63.0761	7,464.84	63.6382	7,464.84	62.3679	7,464.84	63.2528	7,464.84	44.9958	7,464.84	63.7453	7,464.84	65.674	7,464.84	61.811	7,464.84	64.4146	7,464.84	65.1557	7,464.84	60.526	7,464.84	63.4902	7,464.84	29.1837
7,727.05	84.8856	7,727.05	84.1786	7,727.05	84.5789	7,727.05	83.5916	7,727.05	84.0381	7,727.05	82.9659	7,727.05	83.1204	7,727.05	82.4249	7,727.05	82.079	7,727.05	81.9808	7,727.05	82.4795	7,727.05	80.7946	7,727.05	81.0683	7,727.05	78.7128	7,727.05	79.2446	7,727.05	76.3171	7,727.05	76.7344	7,727.05	73.5538	7,727.05	73.671	7,727.05	69.4847	7,727.05	71.2546	7,727.05	68.5477	7,727.05	67.5025	7,727.05	63.5899	7,727.05	64.5105	7,727.05	64.6127	7,727.05	60.5762	7,727.05	55.5822	7,727.05	59.5325	7,727.05	64.0219	7,727.05	65.3421	7,727.05	63.7988	7,727.05	67.8133	7,727.05	60.7652	7,727.05	65.0247	7,727.05	42.3993
7,999.51	84.3641	7,999.51	83.4753	7,999.51	83.7025	7,999.51	83.126	7,999.51	83.2426	7,999.51	82.2372	7,999.51	82.984	7,999.51	81.3245	7,999.51	81.2726	7,999.51	81.468	7,999.51	81.0027	7,999.51	80.2965	7,999.51	80.6546	7,999.51	77.8477	7,999.51	78.7458	7,999.51	75.3756	7,999.51	75.9635	7,999.51	72.4395	7,999.51	73.3871	7,999.51	68.2099	7,999.51	70.8812	7,999.51	67.3929	7,999.51	68.6175	7,999.51	61.4205	7,999.51	64.3908	7,999.51	63.0383	7,999.51	62.5566	7,999.51	57.4433	7,999.51	60.7418	7,999.51	64.2322	7,999.51	62.6511	7,999.51	62.6666	7,999.51	67.0279	7,999.51	58.5144	7,999.51	64.2282	7,999.51	53.7366
8,282.23	84.0457	8,282.23	83.5093	8,282.23	83.6454	8,282.23	83.3835	8,282.23	83.0228	8,282.23	82.0145	8,282.23	82.761	8,282.23	81.3687	8,282.23	81.159	8,282.23	81.1555	8,282.23	81.116	8,282.23	80.5764	8,282.23	80.9752	8,282.23	78.265	8,282.23	79.3789	8,282.23	75.7971	8,282.23	77.2143	8,282.23	72.3584	8,282.23	74.2869	8,282.23	68.916	8,282.23	71.2193	8,282.23	66.4161	8,282.23	68.6435	8,282.23	64.1394	8,282.23	65.5737	8,282.23	60.2509	8,282.23	63.7717	8,282.23	57.7494	8,282.23	56.7529	8,282.23	62.6089	8,282.23	64.5843	8,282.23	64.2956	8,282.23	65.4502	8,282.23	56.0994	8,282.23	60.3469	8,282.23	55.4899
8,573.73	84.8012	8,573.73	84.0581	8,573.73	84.3429	8,573.73	83.821	8,573.73	83.9607	8,573.73	82.2623	8,573.73	83.7618	8,573.73	80.7737	8,573.73	81.6611	8,573.73	80.9842	8,573.73	81.0623	8,573.73	80.3809	8,573.73	81.141	8,573.73	78.0799	8,573.73	79.3591	8,573.73	75.4865	8,573.73	77.6632	8,573.73	72.08	8,573.73	73.8782	8,573.73	69.1363	8,573.73	70.0121	8,573.73	65.9025	8,573.73	67.161	8,573.73	64.1999	8,573.73	64.2403	8,573.73	59.453	8,573.73	61.8682	8,573.73	55.2542	8,573.73	59.6022	8,573.73	59.9507	8,573.73	60.4464	8,573.73	61.7073	8,573.73	64.7114	8,573.73	54.8991	8,573.73	59.6025	8,573.73	56.7134
8,876.95	86.9262	8,876.95	86.1233	8,876.95	86.7466	8,876.95	85.7607	8,876.95	85.9018	8,876.95	84.1354	8,876.95	84.6372	8,876.95	82.0766	8,876.95	82.6878	8,876.95	81.4318	8,876.95	82.0339	8,876.95	80.5358	8,876.95	80.9441	8,876.95	78.0724	8,876.95	78.8746	8,876.95	74.5628	8,876.95	76.4998	8,876.95	71.3079	8,876.95	72.1709	8,876.95	68.6171	8,876.95	68.7793	8,876.95	63.5356	8,876.95	64.8422	8,876.95	62.0971	8,876.95	62.495	8,876.95	56.8492	8,876.95	59.6128	8,876.95	54.9767	8,876.95	57.9995	8,876.95	59.6406	8,876.95	57.7918	8,876.95	62.0441	8,876.95	60.6928	8,876.95	57.7843	8,876.95	53.0812	8,876.95	52.5639
9,188.96	88.2475	9,188.96	87.4893	9,188.96	87.9585	9,188.96	86.8869	9,188.96	86.9246	9,188.96	84.8916	9,188.96	85.3744	9,188.96	82.9165	9,188.96	83.4093	9,188.96	81.5784	9,188.96	82.3382	9,188.96	79.4578	9,188.96	80.1731	9,188.96	76.3708	9,188.96	76.9764	9,188.96	72.4719	9,188.96	74.083	9,188.96	67.8762	9,188.96	69.7371	9,188.96	65.2579	9,188.96	68.3322	9,188.96	62.2305	9,188.96	63.5013	9,188.96	59.8936	9,188.96	60.4108	9,188.96	57.2579	9,188.96	53.5335	9,188.96	51.6299	9,188.96	58.3158	9,188.96	57.5073	9,188.96	54.8264	9,188.96	59.9831	9,188.96	58.0477	9,188.96	54.9434	9,188.96	55.78	9,188.96	53.4634
9,514.16	88.208	9,514.16	87.6035	9,514.16	87.9416	9,514.16	86.8161	9,514.16	86.953	9,514.16	84.7804	9,514.16	85.4011	9,514.16	82.8919	9,514.16	82.908	9,514.16	81.0987	9,514.16	81.2379	9,514.16	78.8865	9,514.16	79.0144	9,514.16	74.9636	9,514.16	74.9764	9,514.16	71.5976	9,514.16	71.4962	9,514.16	67.8748	9,514.16	68.0095	9,514.16	65.2807	9,514.16	66.6718	9,514.16	62.5889	9,514.16	62.0794	9,514.16	61.6619	9,514.16	60.042	9,514.16	58.7242	9,514.16	57.5038	9,514.16	51.5279	9,514.16	54.4241	9,514.16	51.1246	9,514.16	55.2641	9,514.16	59.3416	9,514.16	58.0262	9,514.16	51.0004	9,514.16	55.0386	9,514.16	47.7267
9,849.61	88.2943	9,849.61	87.7351	9,849.61	88.0912	9,849.61	87.0599	9,849.61	87.0774	9,849.61	85.0073	9,849.61	85.0736	9,849.61	82.8838	9,849.61	82.6397	9,849.61	81.4084	9,849.61	80.9817	9,849.61	79.4671	9,849.61	79.0498	9,849.61	75.348	9,849.61	75.2666	9,849.61	72.0734	9,849.61	71.4581	9,849.61	68.6898	9,849.61	67.2605	9,849.61	65.9656	9,849.61	65.3689	9,849.61	61.9852	9,849.61	61.5962	9,849.61	61.9138	9,849.61	58.8519	9,849.61	57.8537	9,849.61	58.566	9,849.61	54.3583	9,849.61	57.509	9,849.61	52.6057	9,849.61	49.0326	9,849.61	58.9511	9,849.61	57.4441	9,849.61	48.8642	9,849.61	57.1757	9,849.61	51.0769
10,196.8	88.0866	10,196.8	87.5457	10,196.8	87.9347	10,196.8	86.9521	10,196.8	86.8949	10,196.8	84.7591	10,196.8	84.8198	10,196.8	82.435	10,196.8	82.2069	10,196.8	80.5336	10,196.8	80.4267	10,196.8	78.7536	10,196.8	78.1946	10,196.8	75.0454	10,196.8	75.0197	10,196.8	72.004	10,196.8	72.1415	10,196.8	68.9912	10,196.8	67.6094	10,196.8	65.0872	10,196.8	64.1856	10,196.8	62.4439	10,196.8	61.1812	10,196.8	61.6126	10,196.8	59.7912	10,196.8	58.3093	10,196.8	57.382	10,196.8	54.297	10,196.8	59.1799	10,196.8	50.1521	10,196.8	45.4361	10,196.8	59.4179	10,196.8	56.1358	10,196.8	45.037	10,196.8	54.4837	10,196.8	54.0194
10,555.7	87.8023	10,555.7	87.3664	10,555.7	87.5687	10,555.7	86.4954	10,555.7	86.4376	10,555.7	84.1048	10,555.7	84.4325	10,555.7	81.8968	10,555.7	81.7637	10,555.7	79.9243	10,555.7	79.499	10,555.7	78.0454	10,555.7	77.1888	10,555.7	74.7236	10,555.7	74.1143	10,555.7	71.7331	10,555.7	71.0578	10,555.7	67.9963	10,555.7	66.2671	10,555.7	64.5134	10,555.7	62.9131	10,555.7	59.9567	10,555.7	59.2078	10,555.7	60.2061	10,555.7	58.3094	10,555.7	56.3954	10,555.7	56.4656	10,555.7	49.3886	10,555.7	58.3974	10,555.7	51.3351	10,555.7	38.9265	10,555.7	57.5029	10,555.7	53.1804	10,555.7	46.3667	10,555.7	53.2265	10,555.7	52.7928
10,927.7	87.6697	10,927.7	87.3391	10,927.7	87.3281	10,927.7	86.1617	10,927.7	86.0697	10,927.7	83.9316	10,927.7	84.0896	10,927.7	81.7592	10,927.7	81.448	10,927.7	79.3879	10,927.7	78.8567	10,927.7	77.2749	10,927.7	76.7456	10,927.7	73.3137	10,927.7	72.752	10,927.7	70.5718	10,927.7	69.5893	10,927.7	66.896	10,927.7	66.0119	10,927.7	62.7789	10,927.7	62.9525	10,927.7	60.0042	10,927.7	59.1316	10,927.7	59.6338	10,927.7	56.4021	10,927.7	55.3872	10,927.7	55.7067	10,927.7	47.4325	10,927.7	56.7221	10,927.7	51.1269	10,927.7	26.2117	10,927.7	55.5173	10,927.7	52.2963	10,927.7	46.3967	10,927.7	55.1491	10,927.7	53.9286
11,313	87.4753	11,313	87.0374	11,313	87.3149	11,313	85.9765	11,313	86.0231	11,313	83.5365	11,313	84.1146	11,313	80.7328	11,313	80.8464	11,313	78.567	11,313	78.0288	11,313	76.2558	11,313	75.9747	11,313	72.3095	11,313	72.1751	11,313	69.3931	11,313	68.9689	11,313	65.4225	11,313	65.2366	11,313	61.0601	11,313	61.6364	11,313	58.5185	11,313	59.7848	11,313	58.2943	11,313	56.8197	11,313	53.5899	11,313	53.4788	11,313	46.1981	11,313	53.9184	11,313	45.1738	11,313	40.1167	11,313	52.6046	11,313	53.7628	11,313	49.588	11,313	53.0776	11,313	53.5391
11,712.9	87.1152	11,712.9	86.546	11,712.9	86.8998	11,712.9	85.3087	11,712.9	85.4285	11,712.9	82.3418	11,712.9	83.2413	11,712.9	79.1937	11,712.9	79.5821	11,712.9	76.8228	11,712.9	76.6866	11,712.9	74.1857	11,712.9	73.2719	11,712.9	70.8944	11,712.9	69.52	11,712.9	68.088	11,712.9	66.9213	11,712.9	64.2278	11,712.9	65.3937	11,712.9	59.7707	11,712.9	61.043	11,712.9	58.1453	11,712.9	58.1838	11,712.9	55.0688	11,712.9	56.9767	11,712.9	49.3337	11,712.9	51.7013	11,712.9	41.2343	11,712.9	51.0713	11,712.9	43.6082	11,712.9	44.6746	11,712.9	52.391	11,712.9	53.283	11,712.9	50.2404	11,712.9	45.7328	11,712.9	51.6346
12,126	86.8255	12,126	86.3287	12,126	86.454	12,126	84.968	12,126	84.9088	12,126	82.3136	12,126	82.5697	12,126	79.2567	12,126	78.799	12,126	75.988	12,126	75.6505	12,126	73.0434	12,126	71.9047	12,126	70.6858	12,126	70.848	12,126	68.7871	12,126	68.9515	12,126	65.4391	12,126	66.8196	12,126	61.682	12,126	62.7171	12,126	58.4352	12,126	59.8613	12,126	53.8341	12,126	57.5836	12,126	44.0986	12,126	54.3532	12,126	41.3626	12,126	52.4749	12,126	38.2064	12,126	48.2504	12,126	53.1754	12,126	54.3647	12,126	49.0845	12,126	46.6776	12,126	52.0716
12,553.7	87.5439	12,553.7	86.824	12,553.7	86.9816	12,553.7	85.683	12,553.7	85.4726	12,553.7	82.888	12,553.7	82.8876	12,553.7	79.629	12,553.7	79.2679	12,553.7	76.2847	12,553.7	76.0693	12,553.7	73.9325	12,553.7	73.0814	12,553.7	71.4685	12,553.7	72.6009	12,553.7	68.9958	12,553.7	70.1597	12,553.7	64.9885	12,553.7	68.1519	12,553.7	61.0685	12,553.7	63.2757	12,553.7	59.1819	12,553.7	61.264	12,553.7	54.188	12,553.7	57.3685	12,553.7	50.9245	12,553.7	55.8831	12,553.7	37.6155	12,553.7	52.3337	12,553.7	45.378	12,553.7	46.0508	12,553.7	52.2727	12,553.7	54.423	12,553.7	48.9537	12,553.7	43.6556	12,553.7	52.1039
12,996.1	88.2697	12,996.1	87.4205	12,996.1	87.7278	12,996.1	86.2694	12,996.1	86.0876	12,996.1	83.0405	12,996.1	83.2562	12,996.1	79.8134	12,996.1	79.3491	12,996.1	75.818	12,996.1	75.5508	12,996.1	73.9479	12,996.1	73.2554	12,996.1	71.0336	12,996.1	72.4869	12,996.1	69.9316	12,996.1	70.6468	12,996.1	66.4331	12,996.1	69.1168	12,996.1	62.0465	12,996.1	64.6554	12,996.1	60.0823	12,996.1	62.2051	12,996.1	54.8893	12,996.1	59.4942	12,996.1	50.6447	12,996.1	56.5865	12,996.1	38.1043	12,996.1	44.4743	12,996.1	46.8297	12,996.1	47.0813	12,996.1	53.4038	12,996.1	53.153	12,996.1	52.7885	12,996.1	47.0637	12,996.1	51.5128
13,454.6	88.1218	13,454.6	87.1557	13,454.6	87.5914	13,454.6	85.8574	13,454.6	85.8452	13,454.6	82.3632	13,454.6	83.061	13,454.6	78.6612	13,454.6	78.3154	13,454.6	74.6006	13,454.6	74.4041	13,454.6	72.4164	13,454.6	72.8112	13,454.6	70.5843	13,454.6	72.5748	13,454.6	69.756	13,454.6	70.8734	13,454.6	67.449	13,454.6	69.7173	13,454.6	63.1144	13,454.6	65.2883	13,454.6	59.9395	13,454.6	61.3371	13,454.6	57.079	13,454.6	59.024	13,454.6	42.14	13,454.6	57.1766	13,454.6	35.4162	13,454.6	41.7967	13,454.6	39.3458	13,454.6	48.7701	13,454.6	53.5868	13,454.6	51.0005	13,454.6	52.3165	13,454.6	51.5832	13,454.6	52.8438
13,929.2	87.8472	13,929.2	86.8296	13,929.2	87.393	13,929.2	85.0074	13,929.2	85.4855	13,929.2	80.9048	13,929.2	82.2766	13,929.2	76.5747	13,929.2	77.5028	13,929.2	71.945	13,929.2	73.7057	13,929.2	72.136	13,929.2	72.7785	13,929.2	73.4944	13,929.2	74.2573	13,929.2	71.5343	13,929.2	71.9492	13,929.2	68.429	13,929.2	69.8617	13,929.2	64.4131	13,929.2	65.2034	13,929.2	61.7768	13,929.2	62.0035	13,929.2	57.6075	13,929.2	58.2632	13,929.2	46.8959	13,929.2	56.8037	13,929.2	43.3368	13,929.2	40.6072	13,929.2	44.2676	13,929.2	42.1884	13,929.2	51.4888	13,929.2	51.8823	13,929.2	53.0888	13,929.2	54.634	13,929.2	50.7163
14,419.9	87.489	14,419.9	86.2625	14,419.9	87.0849	14,419.9	84.4328	14,419.9	85.0339	14,419.9	80.1522	14,419.9	81.7809	14,419.9	75.8006	14,419.9	76.7741	14,419.9	72.36	14,419.9	73.3448	14,419.9	75.4865	14,419.9	74.0495	14,419.9	75.3119	14,419.9	75.1143	14,419.9	72.9268	14,419.9	72.3864	14,419.9	69.4045	14,419.9	70.2952	14,419.9	65.8464	14,419.9	65.6072	14,419.9	63.4717	14,419.9	63.2052	14,419.9	58.8703	14,419.9	59.2349	14,419.9	50.8977	14,419.9	55.4441	14,419.9	41.3209	14,419.9	49.3183	14,419.9	46.3215	14,419.9	22.2723	14,419.9	47.7999	14,419.9	52.3474	14,419.9	55.266	14,419.9	55.7393	14,419.9	51.541
14,928.2	87.3952	14,928.2	86.2808	14,928.2	87.1195	14,928.2	84.266	14,928.2	85.1525	14,928.2	80.3258	14,928.2	81.6913	14,928.2	76.9451	14,928.2	77.3041	14,928.2	75.2664	14,928.2	74.9285	14,928.2	76.6481	14,928.2	75.0785	14,928.2	75.1408	14,928.2	75.2766	14,928.2	73.0825	14,928.2	72.4664	14,928.2	69.2832	14,928.2	70.0434	14,928.2	65.7417	14,928.2	65.325	14,928.2	62.1569	14,928.2	62.4351	14,928.2	57.4029	14,928.2	59.7723	14,928.2	48.9678	14,928.2	55.9192	14,928.2	42.8868	14,928.2	42.6591	14,928.2	46.5775	14,928.2	48.1604	14,928.2	44.4924	14,928.2	52.7891	14,928.2	54.3484	14,928.2	54.6784	14,928.2	53.3025
15,455.6	88.107	15,455.6	86.9887	15,455.6	87.726	15,455.6	84.8174	15,455.6	85.6977	15,455.6	80.5308	15,455.6	81.8532	15,455.6	77.3951	15,455.6	77.8937	15,455.6	76.2226	15,455.6	75.1896	15,455.6	77.2647	15,455.6	75.3372	15,455.6	76.0125	15,455.6	74.3998	15,455.6	74.1394	15,455.6	72.4567	15,455.6	69.5881	15,455.6	69.9142	15,455.6	65.5353	15,455.6	64.9544	15,455.6	61.8332	15,455.6	62.2474	15,455.6	53.936	15,455.6	58.6501	15,455.6	50.0334	15,455.6	53.074	15,455.6	36.5514	15,455.6	47.3928	15,455.6	48.5038	15,455.6	42.8766	15,455.6	44.8699	15,455.6	52.7942	15,455.6	54.3386	15,455.6	56.1116	15,455.6	52.2965
16,000.5	88.2865	16,000.5	87.2334	16,000.5	87.7668	16,000.5	84.8474	16,000.5	85.4284	16,000.5	80.4902	16,000.5	81.3916	16,000.5	78.1224	16,000.5	77.4433	16,000.5	76.1169	16,000.5	75.019	16,000.5	76.2118	16,000.5	74.0212	16,000.5	75.3431	16,000.5	74.7388	16,000.5	72.8995	16,000.5	72.6029	16,000.5	68.755	16,000.5	69.7637	16,000.5	64.4196	16,000.5	65.578	16,000.5	61.0412	16,000.5	61.9348	16,000.5	57.1587	16,000.5	58.1118	16,000.5	41.8345	16,000.5	52.602	16,000.5	39.9193	16,000.5	46.8779	16,000.5	48.4006	16,000.5	49.4423	16,000.5	49.2163	16,000.5	49.7139	16,000.5	52.0579	16,000.5	55.6639	16,000.5	43.3909
16,564.5	87.6395	16,564.5	86.6405	16,564.5	86.8871	16,564.5	84.0443	16,564.5	84.343	16,564.5	79.4818	16,564.5	80.1462	16,564.5	77.0601	16,564.5	76.5651	16,564.5	75.1699	16,564.5	74.8343	16,564.5	75.2469	16,564.5	74.6036	16,564.5	73.6248	16,564.5	74.841	16,564.5	70.6479	16,564.5	72.615	16,564.5	66.8404	16,564.5	68.616	16,564.5	61.8997	16,564.5	64.3988	16,564.5	59.3973	16,564.5	61.4482	16,564.5	54.093	16,564.5	56.0968	16,564.5	50.4679	16,564.5	50.7737	16,564.5	38.2465	16,564.5	43.8298	16,564.5	37.24	16,564.5	50.5275	16,564.5	51.2826	16,564.5	44.9636	16,564.5	47.0482	16,564.5	55.0403	16,564.5	42.5834
17,148.9	86.6213	17,148.9	85.5489	17,148.9	85.728	17,148.9	82.6633	17,148.9	83.0809	17,148.9	78.4429	17,148.9	79.1514	17,148.9	75.9208	17,148.9	75.943	17,148.9	73.973	17,148.9	74.2986	17,148.9	73.5553	17,148.9	73.7337	17,148.9	71.0918	17,148.9	72.9051	17,148.9	68.8356	17,148.9	70.29	17,148.9	64.1924	17,148.9	66.475	17,148.9	59.3483	17,148.9	62.1617	17,148.9	56.5565	17,148.9	59.4748	17,148.9	51.8841	17,148.9	53.1356	17,148.9	49.9962	17,148.9	48.2469	17,148.9	40.8271	17,148.9	34.1257	17,148.9	41.0122	17,148.9	48.1999	17,148.9	49.8899	17,148.9	44.5858	17,148.9	40.0942	17,148.9	51.3584	17,148.9	33.4699
17,752.4	84.8608	17,752.4	83.7127	17,752.4	83.8044	17,752.4	80.8329	17,752.4	80.9708	17,752.4	76.7338	17,752.4	77.0032	17,752.4	74.0846	17,752.4	74.003	17,752.4	72.2423	17,752.4	72.77	17,752.4	71.031	17,752.4	71.3943	17,752.4	69.0501	17,752.4	70.0985	17,752.4	66.3969	17,752.4	67.6313	17,752.4	61.546	17,752.4	62.8499	17,752.4	57.3401	17,752.4	59.4186	17,752.4	54.0347	17,752.4	56.5322	17,752.4	49.2668	17,752.4	50.4497	17,752.4	45.5926	17,752.4	44.7944	17,752.4	42.3819	17,752.4	26.1621	17,752.4	31.7845	17,752.4	44.1239	17,752.4	48.7059	17,752.4	44.2181	17,752.4	38.0191	17,752.4	47.4584	17,752.4	33.7388
18,379.4	83.377	18,379.4	82.3011	18,379.4	82.2422	18,379.4	79.4975	18,379.4	79.5844	18,379.4	75.8158	18,379.4	75.9496	18,379.4	72.747	18,379.4	73.0275	18,379.4	70.5431	18,379.4	71.9813	18,379.4	69.8704	18,379.4	70.4617	18,379.4	68.3057	18,379.4	69.5877	18,379.4	65.0526	18,379.4	66.146	18,379.4	59.9698	18,379.4	62.571	18,379.4	56.9592	18,379.4	57.9558	18,379.4	52.841	18,379.4	54.9948	18,379.4	49.1528	18,379.4	50.3454	18,379.4	42.6918	18,379.4	45.9532	18,379.4	34.8	18,379.4	38.7903	18,379.4	39.5774	18,379.4	39.0983	18,379.4	44.3687	18,379.4	40.7645	18,379.4	32.3669	18,379.4	45.768	18,379.4	34.3425
19,026.9	83.4437	19,026.9	82.0309	19,026.9	82.3236	19,026.9	79.3703	19,026.9	79.7019	19,026.9	75.7068	19,026.9	76.5394	19,026.9	72.1715	19,026.9	73.6532	19,026.9	70.4943	19,026.9	71.9699	19,026.9	70.1171	19,026.9	69.9754	19,026.9	68.1375	19,026.9	68.7479	19,026.9	65.9442	19,026.9	65.9035	19,026.9	61.1754	19,026.9	62.7477	19,026.9	56.9511	19,026.9	58.1857	19,026.9	53.533	19,026.9	54.8095	19,026.9	47.311	19,026.9	49.1697	19,026.9	43.2211	19,026.9	46.1489	19,026.9	39.5751	19,026.9	43.6796	19,026.9	42.7158	19,026.9	42.2985	19,026.9	46.8395	19,026.9	38.82	19,026.9	44.4667	19,026.9	46.3649	19,026.9	34.7448
19,697.8	82.8786	19,697.8	81.4773	19,697.8	81.8082	19,697.8	78.8373	19,697.8	79.3772	19,697.8	74.6313	19,697.8	75.5376	19,697.8	70.5111	19,697.8	72.7882	19,697.8	69.8412	19,697.8	70.8879	19,697.8	69.245	19,697.8	68.0117	19,697.8	68.0434	19,697.8	67.8435	19,697.8	65.9289	19,697.8	65.0825	19,697.8	61.4401	19,697.8	61.8449	19,697.8	57.0926	19,697.8	57.5232	19,697.8	53.5447	19,697.8	54.6057	19,697.8	46.8308	19,697.8	46.9148	19,697.8	43.1586	19,697.8	43.5981	19,697.8	39.3996	19,697.8	41.6415	19,697.8	41.7005	19,697.8	42.1863	19,697.8	42.8796	19,697.8	35.882	19,697.8	43.6819	19,697.8	42.9384	19,697.8	26.0253
19,999.5	82.3748	19,999.5	80.8112	19,999.5	81.5257	19,999.5	78.7498	19,999.5	78.9367	19,999.5	73.6572	19,999.5	75.0182	19,999.5	69.5898	19,999.5	71.7932	19,999.5	70.3787	19,999.5	69.6926	19,999.5	68.8539	19,999.5	67.08	19,999.5	67.6479	19,999.5	68.5074	19,999.5	65.6409	19,999.5	64.8524	19,999.5	61.4779	19,999.5	60.2365	19,999.5	57.7929	19,999.5	56.3701	19,999.5	55.8483	19,999.5	55.8247	19,999.5	38.2087	19,999.5	50.1366	19,999.5	34.1793	19,999.5	51.5262	19,999.5	44.0218	19,999.5	37.2014	19,999.5	47.0023	19,999.5	47.0673	19,999.5	47.8065	19,999.5	48.0258	19,999.5	40.224	19,999.5	46.7589	19,999.5	44.3861
