"SPL Vertical"																																																																							
"On-Axis"		"10°"		"-10°"		"20°"		"-20°"		"30°"		"-30°"		"40°"		"-40°"		"50°"		"-50°"		"60°"		"-60°"		"70°"		"-70°"		"80°"		"-80°"		"90°"		"-90°"		"100°"		"-100°"		"110°"		"-110°"		"120°"		"-120°"		"130°"		"-130°"		"140°"		"-140°"		"150°"		"-150°"		"160°"		"-160°"		"170°"		"-170°"		"180°"	
"Frequency [Hz]"	"Sound Pessure Level [dB]  / [2.83V 1m] "	"Frequency [Hz]"	"Sound Pessure Level [dB]  / [2.83V 1m] "	"Frequency [Hz]"	"Sound Pessure Level [dB]  / [2.83V 1m] "	"Frequency [Hz]"	"Sound Pessure Level [dB]  / [2.83V 1m] "	"Frequency [Hz]"	"Sound Pessure Level [dB]  / [2.83V 1m] "	"Frequency [Hz]"	"Sound Pessure Level [dB]  / [2.83V 1m] "	"Frequency [Hz]"	"Sound Pessure Level [dB]  / [2.83V 1m] "	"Frequency [Hz]"	"Sound Pessure Level [dB]  / [2.83V 1m] "	"Frequency [Hz]"	"Sound Pessure Level [dB]  / [2.83V 1m] "	"Frequency [Hz]"	"Sound Pessure Level [dB]  / [2.83V 1m] "	"Frequency [Hz]"	"Sound Pessure Level [dB]  / [2.83V 1m] "	"Frequency [Hz]"	"Sound Pessure Level [dB]  / [2.83V 1m] "	"Frequency [Hz]"	"Sound Pessure Level [dB]  / [2.83V 1m] "	"Frequency [Hz]"	"Sound Pessure Level [dB]  / [2.83V 1m] "	"Frequency [Hz]"	"Sound Pessure Level [dB]  / [2.83V 1m] "	"Frequency [Hz]"	"Sound Pessure Level [dB]  / [2.83V 1m] "	"Frequency [Hz]"	"Sound Pessure Level [dB]  / [2.83V 1m] "	"Frequency [Hz]"	"Sound Pessure Level [dB]  / [2.83V 1m] "	"Frequency [Hz]"	"Sound Pessure Level [dB]  / [2.83V 1m] "	"Frequency [Hz]"	"Sound Pessure Level [dB]  / [2.83V 1m] "	"Frequency [Hz]"	"Sound Pessure Level [dB]  / [2.83V 1m] "	"Frequency [Hz]"	"Sound Pessure Level [dB]  / [2.83V 1m] "	"Frequency [Hz]"	"Sound Pessure Level [dB]  / [2.83V 1m] "	"Frequency [Hz]"	"Sound Pessure Level [dB]  / [2.83V 1m] "	"Frequency [Hz]"	"Sound Pessure Level [dB]  / [2.83V 1m] "	"Frequency [Hz]"	"Sound Pessure Level [dB]  / [2.83V 1m] "	"Frequency [Hz]"	"Sound Pessure Level [dB]  / [2.83V 1m] "	"Frequency [Hz]"	"Sound Pessure Level [dB]  / [2.83V 1m] "	"Frequency [Hz]"	"Sound Pessure Level [dB]  / [2.83V 1m] "	"Frequency [Hz]"	"Sound Pessure Level [dB]  / [2.83V 1m] "	"Frequency [Hz]"	"Sound Pessure Level [dB]  / [2.83V 1m] "	"Frequency [Hz]"	"Sound Pessure Level [dB]  / [2.83V 1m] "	"Frequency [Hz]"	"Sound Pessure Level [dB]  / [2.83V 1m] "	"Frequency [Hz]"	"Sound Pessure Level [dB]  / [2.83V 1m] "	"Frequency [Hz]"	"Sound Pessure Level [dB]  / [2.83V 1m] "	"Frequency [Hz]"	"Sound Pessure Level [dB]  / [2.83V 1m] "
20.5078	58.408	20.5078	58.552	20.5078	58.1925	20.5078	58.626	20.5078	57.9056	20.5078	58.6329	20.5078	57.5499	20.5078	58.576	20.5078	57.1319	20.5078	58.4592	20.5078	56.6635	20.5078	58.2862	20.5078	56.1641	20.5078	58.0609	20.5078	55.6609	20.5078	57.7869	20.5078	55.187	20.5078	57.4681	20.5078	54.7751	20.5078	57.1088	20.5078	54.448	20.5078	56.7146	20.5078	54.2104	20.5078	56.2931	20.5078	54.05	20.5078	55.8553	20.5078	53.9455	20.5078	55.4166	20.5078	53.8797	20.5078	54.9967	20.5078	53.8474	20.5078	54.6188	20.5078	53.8572	20.5078	54.3055	20.5078	53.9267	20.5078	54.0733
21.9727	49.0634	21.9727	49.3284	21.9727	48.7792	21.9727	49.5155	21.9727	48.5819	21.9727	49.5989	21.9727	48.6211	21.9727	49.573	21.9727	49.032	21.9727	49.4456	21.9727	49.8392	21.9727	49.2377	21.9727	50.9303	21.9727	48.987	21.9727	52.1356	21.9727	48.753	21.9727	53.3126	21.9727	48.6201	21.9727	54.3701	21.9727	48.6844	21.9727	55.2582	21.9727	49.021	21.9727	55.9518	21.9727	49.6432	21.9727	56.44	21.9727	50.4946	21.9727	56.7201	21.9727	51.4805	21.9727	56.7945	21.9727	52.5074	21.9727	56.6697	21.9727	53.5026	21.9727	56.3553	21.9727	54.4154	21.9727	55.8638	21.9727	55.2108
23.4375	59.0415	23.4375	59.0126	23.4375	59.0606	23.4375	58.9679	23.4375	59.079	23.4375	58.9047	23.4375	59.1087	23.4375	58.8234	23.4375	59.1627	23.4375	58.7272	23.4375	59.2532	23.4375	58.6217	23.4375	59.388	23.4375	58.5149	23.4375	59.5679	23.4375	58.4168	23.4375	59.7839	23.4375	58.339	23.4375	60.0187	23.4375	58.2943	23.4375	60.2482	23.4375	58.2954	23.4375	60.4468	23.4375	58.3533	23.4375	60.5907	23.4375	58.4749	23.4375	60.6617	23.4375	58.6617	23.4375	60.649	23.4375	58.9073	23.4375	60.5504	23.4375	59.1983	23.4375	60.3715	23.4375	59.5146	23.4375	60.1256	23.4375	59.8321
24.9023	60.1889	24.9023	60.2045	24.9023	60.165	24.9023	60.2058	24.9023	60.1424	24.9023	60.1898	24.9023	60.1334	24.9023	60.156	24.9023	60.1523	24.9023	60.1062	24.9023	60.2123	24.9023	60.0443	24.9023	60.3225	24.9023	59.9756	24.9023	60.4836	24.9023	59.9068	24.9023	60.6863	24.9023	59.8463	24.9023	60.9117	24.9023	59.8034	24.9023	61.1346	24.9023	59.7881	24.9023	61.3286	24.9023	59.8099	24.9023	61.4703	24.9023	59.8771	24.9023	61.5429	24.9023	59.9941	24.9023	61.5378	24.9023	60.1607	24.9023	61.4551	24.9023	60.37	24.9023	61.3034	24.9023	60.609	24.9023	61.098	24.9023	60.859
26.3672	61.4135	26.3672	61.3638	26.3672	61.4598	26.3672	61.3054	26.3672	61.5101	26.3672	61.2359	26.3672	61.5741	26.3672	61.1554	26.3672	61.6617	26.3672	61.0662	26.3672	61.7809	26.3672	60.9724	26.3672	61.9353	26.3672	60.8801	26.3672	62.1217	26.3672	60.7969	26.3672	62.3295	26.3672	60.7317	26.3672	62.5411	26.3672	60.6944	26.3672	62.7354	26.3672	60.6953	26.3672	62.8905	26.3672	60.7439	26.3672	62.9873	26.3672	60.8474	26.3672	63.0123	26.3672	61.0086	26.3672	62.9587	26.3672	61.2249	26.3672	62.8274	26.3672	61.487	26.3672	62.627	26.3672	61.7794	26.3672	62.3719	26.3672	62.0819
27.832	64.1174	27.832	64.0397	27.832	64.2017	27.832	63.9656	27.832	64.2966	27.832	63.8933	27.832	64.4069	27.832	63.8228	27.832	64.5363	27.832	63.7553	27.832	64.6869	27.832	63.6936	27.832	64.8572	27.832	63.6415	27.832	65.042	27.832	63.6038	27.832	65.2316	27.832	63.5862	27.832	65.4128	27.832	63.5947	27.832	65.5703	27.832	63.6353	27.832	65.6891	27.832	63.7132	27.832	65.7558	27.832	63.8319	27.832	65.7615	27.832	63.9922	27.832	65.7023	27.832	64.1914	27.832	65.5801	27.832	64.4226	27.832	65.4024	27.832	64.6748	27.832	65.1817	27.832	64.9334
29.2969	65.7129	29.2969	65.6348	29.2969	65.7929	29.2969	65.5576	29.2969	65.8773	29.2969	65.4809	29.2969	65.9694	29.2969	65.406	29.2969	66.0727	29.2969	65.3347	29.2969	66.19	29.2969	65.2699	29.2969	66.3222	29.2969	65.2148	29.2969	66.4667	29.2969	65.1737	29.2969	66.6171	29.2969	65.151	29.2969	66.7632	29.2969	65.1515	29.2969	66.8917	29.2969	65.18	29.2969	66.9889	29.2969	65.2408	29.2969	67.0421	29.2969	65.3371	29.2969	67.0421	29.2969	65.4702	29.2969	66.9846	29.2969	65.6386	29.2969	66.871	29.2969	65.8373	29.2969	66.7084	29.2969	66.0573	29.2969	66.5084	29.2969	66.2861
30.7617	66.9091	30.7617	66.8334	30.7617	66.9906	30.7617	66.7612	30.7617	67.0808	30.7617	66.6908	30.7617	67.1826	30.7617	66.6222	30.7617	67.2978	30.7617	66.556	30.7617	67.4261	30.7617	66.4942	30.7617	67.5647	30.7617	66.4396	30.7617	67.708	30.7617	66.3957	30.7617	67.8477	30.7617	66.3668	30.7617	67.9734	30.7617	66.3574	30.7617	68.074	30.7617	66.3724	30.7617	68.1384	30.7617	66.4162	30.7617	68.158	30.7617	66.4925	30.7617	68.1273	30.7617	66.6034	30.7617	68.045	30.7617	66.7484	30.7617	67.9149	30.7617	66.924	30.7617	67.745	30.7617	67.123	30.7617	67.5472	30.7617	67.3351
32.2266	68.3145	32.2266	68.1976	32.2266	68.4362	32.2266	68.0864	32.2266	68.5623	32.2266	67.9819	32.2266	68.692	32.2266	67.8851	32.2266	68.8247	32.2266	67.7978	32.2266	68.9587	32.2266	67.7216	32.2266	69.0915	32.2266	67.6588	32.2266	69.219	32.2266	67.612	32.2266	69.3353	32.2266	67.5843	32.2266	69.4327	32.2266	67.5791	32.2266	69.5028	32.2266	67.6	32.2266	69.5369	32.2266	67.6504	32.2266	69.528	32.2266	67.7334	32.2266	69.4718	32.2266	67.8504	32.2266	69.3678	32.2266	68.0011	32.2266	69.2197	32.2266	68.182	32.2266	69.0355	32.2266	68.3868	32.2266	68.8264	32.2266	68.6057
33.6914	69.933	33.6914	69.8207	33.6914	70.0445	33.6914	69.7087	33.6914	70.1544	33.6914	69.5987	33.6914	70.2622	33.6914	69.4926	33.6914	70.3672	33.6914	69.3925	33.6914	70.4687	33.6914	69.301	33.6914	70.5651	33.6914	69.2211	33.6914	70.6538	33.6914	69.1559	33.6914	70.7306	33.6914	69.109	33.6914	70.7901	33.6914	69.084	33.6914	70.8257	33.6914	69.0847	33.6914	70.8311	33.6914	69.1145	33.6914	70.8007	33.6914	69.1758	33.6914	70.7314	33.6914	69.2698	33.6914	70.6233	33.6914	69.3959	33.6914	70.4799	33.6914	69.5508	33.6914	70.3084	33.6914	69.7288	33.6914	70.1185	33.6914	69.9215
35.1562	70.6163	35.1562	70.5078	35.1562	70.7266	35.1562	70.4022	35.1562	70.8377	35.1562	70.3014	35.1562	70.9488	35.1562	70.2071	35.1562	71.059	35.1562	70.1215	35.1562	71.1672	35.1562	70.0469	35.1562	71.2713	35.1562	69.9858	35.1562	71.3683	35.1562	69.9406	35.1562	71.4537	35.1562	69.9139	35.1562	71.5219	35.1562	69.9083	35.1562	71.5664	35.1562	69.9263	35.1562	71.5811	35.1562	69.97	35.1562	71.5608	35.1562	70.0408	35.1562	71.5028	35.1562	70.1394	35.1562	71.4072	35.1562	70.2648	35.1562	71.2776	35.1562	70.4142	35.1562	71.1207	35.1562	70.5827	35.1562	70.9457	35.1562	70.7629
36.6211	71.6446	36.6211	71.5309	36.6211	71.7602	36.6211	71.421	36.6211	71.8763	36.6211	71.3166	36.6211	71.9911	36.6211	71.2196	36.6211	72.1031	36.6211	71.1318	36.6211	72.21	36.6211	71.0552	36.6211	72.309	36.6211	70.9917	36.6211	72.3968	36.6211	70.9433	36.6211	72.4687	36.6211	70.9121	36.6211	72.5197	36.6211	70.9001	36.6211	72.5445	36.6211	70.9094	36.6211	72.5382	36.6211	70.9421	36.6211	72.4974	36.6211	70.9998	36.6211	72.4207	36.6211	71.0837	36.6211	72.3097	36.6211	71.1936	36.6211	72.1692	36.6211	71.3281	36.6211	72.0067	36.6211	71.4835	36.6211	71.8316	36.6211	71.654
38.0859	72.1502	38.0859	72.0342	38.0859	72.2695	38.0859	71.9229	38.0859	72.3902	38.0859	71.8181	38.0859	72.5106	38.0859	71.7214	38.0859	72.6285	38.0859	71.6345	38.0859	72.7412	38.0859	71.5594	38.0859	72.8453	38.0859	71.4977	38.0859	72.9368	38.0859	71.4515	38.0859	73.0107	38.0859	71.4227	38.0859	73.0621	38.0859	71.4132	38.0859	73.0857	38.0859	71.4251	38.0859	73.0772	38.0859	71.4603	38.0859	73.0336	38.0859	71.5204	38.0859	72.9542	38.0859	71.6062	38.0859	72.8409	38.0859	71.7178	38.0859	72.6986	38.0859	71.8534	38.0859	72.5349	38.0859	72.0097	38.0859	72.359	38.0859	72.1808
39.5508	72.8401	39.5508	72.7187	39.5508	72.9642	39.5508	72.6022	39.5508	73.0888	39.5508	72.4926	39.5508	73.2111	39.5508	72.3916	39.5508	73.3284	39.5508	72.301	39.5508	73.4372	39.5508	72.2223	39.5508	73.5339	39.5508	72.1571	39.5508	73.6143	39.5508	72.107	39.5508	73.674	39.5508	72.0736	39.5508	73.7085	39.5508	72.0585	39.5508	73.7138	39.5508	72.0636	39.5508	73.6868	39.5508	72.0904	39.5508	73.6258	39.5508	72.1406	39.5508	73.5314	39.5508	72.2154	39.5508	73.4067	39.5508	72.315	39.5508	73.2574	39.5508	72.4387	39.5508	73.0914	39.5508	72.5837	39.5508	72.9177	39.5508	72.7457
41.0156	73.6638	41.0156	73.5402	41.0156	73.7889	41.0156	73.4208	41.0156	73.9127	41.0156	73.3079	41.0156	74.032	41.0156	73.2038	41.0156	74.1434	41.0156	73.1105	41.0156	74.2438	41.0156	73.0296	41.0156	74.3299	41.0156	72.9629	41.0156	74.3986	41.0156	72.912	41.0156	74.4469	41.0156	72.8783	41.0156	74.4718	41.0156	72.8635	41.0156	74.4707	41.0156	72.869	41.0156	74.441	41.0156	72.8963	41.0156	74.3814	41.0156	72.9469	41.0156	74.2918	41.0156	73.0215	41.0156	74.1743	41.0156	73.1204	41.0156	74.0332	41.0156	73.2424	41.0156	73.8752	41.0156	73.3847	41.0156	73.7087	41.0156	73.5424
42.4805	73.6791	42.4805	73.5553	42.4805	73.8056	42.4805	73.437	42.4805	73.9317	42.4805	73.3266	42.4805	74.0545	42.4805	73.2265	42.4805	74.1709	42.4805	73.1387	42.4805	74.2779	42.4805	73.0649	42.4805	74.3723	42.4805	73.0067	42.4805	74.4508	42.4805	72.9654	42.4805	74.5096	42.4805	72.9422	42.4805	74.5452	42.4805	72.9384	42.4805	74.5541	42.4805	72.9549	42.4805	74.5332	42.4805	72.993	42.4805	74.4811	42.4805	73.0533	42.4805	74.3978	42.4805	73.1362	42.4805	74.2856	42.4805	73.2414	42.4805	74.1494	42.4805	73.3675	42.4805	73.9957	42.4805	73.5115	42.4805	73.8327	42.4805	73.6687
43.9453	74.2148	43.9453	74.0927	43.9453	74.34	43.9453	73.9765	43.9453	74.4655	43.9453	73.8687	43.9453	74.588	43.9453	73.7713	43.9453	74.704	43.9453	73.686	43.9453	74.81	43.9453	73.6145	43.9453	74.9024	43.9453	73.5579	43.9453	74.9773	43.9453	73.5177	43.9453	75.0312	43.9453	73.4948	43.9453	75.0606	43.9453	73.4903	43.9453	75.0626	43.9453	73.5051	43.9453	75.035	43.9453	73.5403	43.9453	74.9771	43.9453	73.5965	43.9453	74.89	43.9453	73.6741	43.9453	74.7764	43.9453	73.773	43.9453	74.6414	43.9453	73.8918	43.9453	74.4915	43.9453	74.0279	43.9453	74.3342	43.9453	74.1773
45.4102	74.5486	45.4102	74.4194	45.4102	74.6801	45.4102	74.2954	45.4102	74.8104	45.4102	74.1796	45.4102	74.9362	45.4102	74.0743	45.4102	75.0536	45.4102	73.9818	45.4102	75.159	45.4102	73.9039	45.4102	75.2483	45.4102	73.8421	45.4102	75.3179	45.4102	73.7978	45.4102	75.3641	45.4102	73.7719	45.4102	75.3838	45.4102	73.7654	45.4102	75.3746	45.4102	73.7789	45.4102	75.3353	45.4102	73.8131	45.4102	75.266	45.4102	73.8683	45.4102	75.1685	45.4102	73.9447	45.4102	75.0466	45.4102	74.0417	45.4102	74.9058	45.4102	74.1582	45.4102	74.7528	45.4102	74.2919	45.4102	74.5948	45.4102	74.4391
46.875	74.9316	46.875	74.803	46.875	75.0627	46.875	74.68	46.875	75.1928	46.875	74.5653	46.875	75.3181	46.875	74.4615	46.875	75.4348	46.875	74.3706	46.875	75.5389	46.875	74.2941	46.875	75.6264	46.875	74.2335	46.875	75.6934	46.875	74.1898	46.875	75.7364	46.875	74.1638	46.875	75.7525	46.875	74.1563	46.875	75.7394	46.875	74.168	46.875	75.6961	46.875	74.1992	46.875	75.6232	46.875	74.2506	46.875	75.5229	46.875	74.3223	46.875	75.3991	46.875	74.4142	46.875	75.2576	46.875	74.5253	46.875	75.1052	46.875	74.654	46.875	74.9492	46.875	74.7968
48.3398	75.051	48.3398	74.9192	48.3398	75.1885	48.3398	74.7964	48.3398	75.3279	48.3398	74.6854	48.3398	75.4648	48.3398	74.5883	48.3398	75.5944	48.3398	74.5066	48.3398	75.7119	48.3398	74.4416	48.3398	75.8128	48.3398	74.3939	48.3398	75.8925	48.3398	74.3642	48.3398	75.9472	48.3398	74.3528	48.3398	75.9738	48.3398	74.3598	48.3398	75.9702	48.3398	74.3855	48.3398	75.9357	48.3398	74.43	48.3398	75.8707	48.3398	74.4934	48.3398	75.7776	48.3398	74.5755	48.3398	75.6604	48.3398	74.6759	48.3398	75.5245	48.3398	74.7935	48.3398	75.3764	48.3398	74.9263	48.3398	75.2229	48.3398	75.071
51.2695	75.7774	51.2695	75.6399	51.2695	75.9162	51.2695	75.5075	51.2695	76.0521	51.2695	75.3835	51.2695	76.1807	51.2695	75.2707	51.2695	76.2974	51.2695	75.1713	51.2695	76.3977	51.2695	75.0871	51.2695	76.4773	51.2695	75.0194	51.2695	76.5326	51.2695	74.9691	51.2695	76.5603	51.2695	74.9368	51.2695	76.5582	51.2695	74.923	51.2695	76.5252	51.2695	74.9281	51.2695	76.4617	51.2695	74.9522	51.2695	76.3694	51.2695	74.9958	51.2695	76.2521	51.2695	75.059	51.2695	76.1147	51.2695	75.142	51.2695	75.9639	51.2695	75.2443	51.2695	75.8068	51.2695	75.3649	51.2695	75.6506	51.2695	75.5016
52.7344	76.0645	52.7344	75.9286	52.7344	76.2027	52.7344	75.7989	52.7344	76.3389	52.7344	75.6787	52.7344	76.4685	52.7344	75.5706	52.7344	76.5867	52.7344	75.4768	52.7344	76.689	52.7344	75.399	52.7344	76.7709	52.7344	75.3381	52.7344	76.8284	52.7344	75.2949	52.7344	76.8585	52.7344	75.2697	52.7344	76.8591	52.7344	75.2626	52.7344	76.8291	52.7344	75.2737	52.7344	76.769	52.7344	75.3028	52.7344	76.681	52.7344	75.3502	52.7344	76.5686	52.7344	75.4156	52.7344	76.4371	52.7344	75.499	52.7344	76.2928	52.7344	75.6	52.7344	76.1424	52.7344	75.7175	52.7344	75.9927	52.7344	75.8495
54.1992	76.3107	54.1992	76.1753	54.1992	76.4487	54.1992	76.0466	54.1992	76.5848	54.1992	75.928	54.1992	76.7142	54.1992	75.8222	54.1992	76.8321	54.1992	75.7315	54.1992	76.9338	54.1992	75.6572	54.1992	77.0149	54.1992	75.6003	54.1992	77.0716	54.1992	75.5612	54.1992	77.101	54.1992	75.5401	54.1992	77.1012	54.1992	75.5368	54.1992	77.0713	54.1992	75.551	54.1992	77.0122	54.1992	75.5826	54.1992	76.926	54.1992	75.6314	54.1992	76.8165	54.1992	75.6972	54.1992	76.6888	54.1992	75.7798	54.1992	76.5491	54.1992	75.8788	54.1992	76.4039	54.1992	75.9931	54.1992	76.2593	54.1992	76.121
55.6641	76.5398	55.6641	76.4107	55.6641	76.6706	55.6641	76.2872	55.6641	76.7991	55.6641	76.1725	55.6641	76.9207	55.6641	76.0692	55.6641	77.0307	55.6641	75.9795	55.6641	77.1246	55.6641	75.9047	55.6641	77.1981	55.6641	75.846	55.6641	77.2474	55.6641	75.8037	55.6641	77.2695	55.6641	75.7781	55.6641	77.2625	55.6641	75.7692	55.6641	77.226	55.6641	75.7768	55.6641	77.161	55.6641	75.8009	55.6641	77.0703	55.6641	75.8412	55.6641	76.9582	55.6641	75.8979	55.6641	76.8301	55.6641	75.9709	55.6641	76.6924	55.6641	76.06	55.6641	76.5515	55.6641	76.1646	55.6641	76.4134	55.6641	76.2832
58.5938	76.9958	58.5938	76.8599	58.5938	77.133	58.5938	76.7294	58.5938	77.2671	58.5938	76.6079	58.5938	77.393	58.5938	76.4982	58.5938	77.5057	58.5938	76.4028	58.5938	77.6003	58.5938	76.3231	58.5938	77.672	58.5938	76.2602	58.5938	77.717	58.5938	76.2147	58.5938	77.7324	58.5938	76.1866	58.5938	77.7166	58.5938	76.1758	58.5938	77.6697	58.5938	76.182	58.5938	77.5936	58.5938	76.2046	58.5938	77.4917	58.5938	76.2435	58.5938	77.3692	58.5938	76.2983	58.5938	77.2325	58.5938	76.369	58.5938	77.0884	58.5938	76.4556	58.5938	76.9437	58.5938	76.5577	58.5938	76.8042	58.5938	76.6745
60.0586	77.2785	60.0586	77.1408	60.0586	77.4166	60.0586	77.0079	60.0586	77.5506	60.0586	76.8833	60.0586	77.6754	60.0586	76.7699	60.0586	77.7859	60.0586	76.6702	60.0586	77.8771	60.0586	76.5858	60.0586	77.9444	60.0586	76.5177	60.0586	77.9839	60.0586	76.4665	60.0586	77.9927	60.0586	76.4322	60.0586	77.9694	60.0586	76.4146	60.0586	77.9143	60.0586	76.4136	60.0586	77.8293	60.0586	76.4287	60.0586	77.7183	60.0586	76.4599	60.0586	77.5869	60.0586	76.5074	60.0586	77.4417	60.0586	76.5715	60.0586	77.2904	60.0586	76.6527	60.0586	77.1401	60.0586	76.7512	60.0586	76.9972	60.0586	76.8665
62.9883	77.7401	62.9883	77.6025	62.9883	77.8783	62.9883	77.4698	62.9883	78.0122	62.9883	77.3458	62.9883	78.1365	62.9883	77.2336	62.9883	78.2461	62.9883	77.1357	62.9883	78.3358	62.9883	77.0537	62.9883	78.4011	62.9883	76.9885	62.9883	78.4382	62.9883	76.9407	62.9883	78.4445	62.9883	76.9101	62.9883	78.4189	62.9883	76.8964	62.9883	78.362	62.9883	76.899	62.9883	78.2762	62.9883	76.9173	62.9883	78.1659	62.9883	76.951	62.9883	78.0369	62.9883	76.9996	62.9883	77.8961	62.9883	77.0635	62.9883	77.7506	62.9883	77.1427	62.9883	77.6072	62.9883	77.2374	62.9883	77.4714	62.9883	77.3473
64.4531	77.9656	64.4531	77.8276	64.4531	78.1036	64.4531	77.6941	64.4531	78.2369	64.4531	77.569	64.4531	78.3601	64.4531	77.4554	64.4531	78.4683	64.4531	77.3561	64.4531	78.5564	64.4531	77.2726	64.4531	78.62	64.4531	77.2061	64.4531	78.6553	64.4531	77.1571	64.4531	78.6599	64.4531	77.1255	64.4531	78.6327	64.4531	77.1109	64.4531	78.5742	64.4531	77.1127	64.4531	78.4871	64.4531	77.1302	64.4531	78.3755	64.4531	77.163	64.4531	78.2455	64.4531	77.2108	64.4531	78.1038	64.4531	77.2737	64.4531	77.9578	64.4531	77.3519	64.4531	77.8141	64.4531	77.4457	64.4531	77.6785	64.4531	77.5549
67.3828	78.34	67.3828	78.2007	67.3828	78.4796	67.3828	78.0663	67.3828	78.6144	67.3828	77.9407	67.3828	78.7392	67.3828	77.8273	67.3828	78.8485	67.3828	77.7287	67.3828	78.9372	67.3828	77.6467	67.3828	79.0008	67.3828	77.5823	67.3828	79.0355	67.3828	77.5359	67.3828	79.0389	67.3828	77.5073	67.3828	79.0101	67.3828	77.4958	67.3828	78.9501	67.3828	77.5008	67.3828	78.8619	67.3828	77.5212	67.3828	78.7502	67.3828	77.5564	67.3828	78.621	67.3828	77.6058	67.3828	78.4814	67.3828	77.6694	67.3828	78.3383	67.3828	77.7472	67.3828	78.1983	67.3828	77.8394	67.3828	78.0664	67.3828	77.9461
68.8477	78.5308	68.8477	78.3876	68.8477	78.6738	68.8477	78.249	68.8477	78.8113	68.8477	78.1194	68.8477	78.9378	68.8477	78.0022	68.8477	79.0478	68.8477	77.9004	68.8477	79.1362	68.8477	77.8159	68.8477	79.1985	68.8477	77.7499	68.8477	79.231	68.8477	77.7029	68.8477	79.2316	68.8477	77.6746	68.8477	79.1998	68.8477	77.6645	68.8477	79.1368	68.8477	77.6714	68.8477	79.0461	68.8477	77.6944	68.8477	78.9325	68.8477	77.7325	68.8477	78.8024	68.8477	77.7848	68.8477	78.6628	68.8477	77.8509	68.8477	78.5205	68.8477	77.9307	68.8477	78.3816	68.8477	78.0241	68.8477	78.2507	68.8477	78.131
71.7773	78.9904	71.7773	78.8466	71.7773	79.133	71.7773	78.7065	71.7773	79.2691	71.7773	78.5746	71.7773	79.3933	71.7773	78.4544	71.7773	79.5	71.7773	78.349	71.7773	79.5844	71.7773	78.2605	71.7773	79.6418	71.7773	78.1902	71.7773	79.6689	71.7773	78.1386	71.7773	79.6636	71.7773	78.1057	71.7773	79.6254	71.7773	78.0908	71.7773	79.556	71.7773	78.093	71.7773	79.4587	71.7773	78.1113	71.7773	79.3388	71.7773	78.1445	71.7773	79.203	71.7773	78.1921	71.7773	79.0587	71.7773	78.2536	71.7773	78.913	71.7773	78.3291	71.7773	78.7723	71.7773	78.4188	71.7773	78.6412	71.7773	78.5229
74.707	79.4727	74.707	79.3294	74.707	79.6137	74.707	79.1888	74.707	79.7472	74.707	79.0553	74.707	79.8677	74.707	78.9327	74.707	79.9699	74.707	78.8239	74.707	80.0486	74.707	78.7312	74.707	80.0996	74.707	78.656	74.707	80.1196	74.707	78.599	74.707	80.1066	74.707	78.5601	74.707	80.0604	74.707	78.5389	74.707	79.983	74.707	78.5346	74.707	79.8781	74.707	78.5462	74.707	79.7514	74.707	78.5728	74.707	79.6098	74.707	78.6139	74.707	79.4611	74.707	78.6693	74.707	79.3127	74.707	78.7392	74.707	79.1711	74.707	78.8242	74.707	79.0408	74.707	78.9248
77.6367	79.7977	77.6367	79.6565	77.6367	79.9366	77.6367	79.518	77.6367	80.0679	77.6367	79.3868	77.6367	80.1861	77.6367	79.2667	77.6367	80.286	77.6367	79.1608	77.6367	80.3624	77.6367	79.0712	77.6367	80.4111	77.6367	78.9993	77.6367	80.4289	77.6367	78.9455	77.6367	80.4141	77.6367	78.9098	77.6367	80.3667	77.6367	78.8912	77.6367	80.2886	77.6367	78.8888	77.6367	80.1839	77.6367	78.9014	77.6367	80.0584	77.6367	78.9279	77.6367	79.9193	77.6367	78.9676	77.6367	79.7744	77.6367	79.0204	77.6367	79.6309	77.6367	79.0864	77.6367	79.495	77.6367	79.1665	77.6367	79.3709	77.6367	79.2612
79.1016	79.9915	79.1016	79.8485	79.1016	80.1318	79.1016	79.7082	79.1016	80.2642	79.1016	79.5751	79.1016	80.3829	79.1016	79.4533	79.1016	80.4826	79.1016	79.3458	79.1016	80.5583	79.1016	79.2552	79.1016	80.6057	79.1016	79.1826	79.1016	80.6218	79.1016	79.1287	79.1016	80.6049	79.1016	79.0932	79.1016	80.5552	79.1016	79.0753	79.1016	80.475	79.1016	79.0738	79.1016	80.3684	79.1016	79.0874	79.1016	80.2417	79.1016	79.1149	79.1016	80.1021	79.1016	79.1554	79.1016	79.9572	79.1016	79.2086	79.1016	79.8144	79.1016	79.2746	79.1016	79.6796	79.1016	79.3542	79.1016	79.5568	79.1016	79.4481
82.0312	80.5672	82.0312	80.4193	82.0312	80.708	82.0312	80.2698	82.0312	80.8361	82.0312	80.1237	82.0312	80.9458	82.0312	79.9852	82.0312	81.0314	82.0312	79.858	82.0312	81.0879	82.0312	79.7446	82.0312	81.1112	82.0312	79.6471	82.0312	81.0984	82.0312	79.5665	82.0312	81.0486	82.0312	79.5031	82.0312	80.9629	82.0312	79.4568	82.0312	80.845	82.0312	79.427	82.0312	80.7009	82.0312	79.413	82.0312	80.5386	82.0312	79.4143	82.0312	80.3676	82.0312	79.4306	82.0312	80.1973	82.0312	79.4623	82.0312	80.0362	82.0312	79.5101	82.0312	79.8908	82.0312	79.5754	82.0312	79.7649	82.0312	79.6599
84.9609	80.7917	84.9609	80.6491	84.9609	80.9255	84.9609	80.5028	84.9609	81.0451	84.9609	80.3578	84.9609	81.145	84.9609	80.2182	84.9609	81.2204	84.9609	80.0873	84.9609	81.2669	84.9609	79.9676	84.9609	81.281	84.9609	79.8609	84.9609	81.2602	84.9609	79.7678	84.9609	81.2033	84.9609	79.6885	84.9609	81.1107	84.9609	79.6227	84.9609	80.9846	84.9609	79.5701	84.9609	80.8291	84.9609	79.5306	84.9609	80.651	84.9609	79.5046	84.9609	80.4594	84.9609	79.4935	84.9609	80.2649	84.9609	79.4998	84.9609	80.0788	84.9609	79.5268	84.9609	79.9112	84.9609	79.5786	84.9609	79.7699	84.9609	79.6589
87.8906	80.8952	87.8906	80.7594	87.8906	81.0361	87.8906	80.6334	87.8906	81.1765	87.8906	80.521	87.8906	81.3102	87.8906	80.4248	87.8906	81.431	87.8906	80.3467	87.8906	81.5325	87.8906	80.2874	87.8906	81.6093	87.8906	80.2469	87.8906	81.6569	87.8906	80.2243	87.8906	81.6725	87.8906	80.2181	87.8906	81.6553	87.8906	80.2265	87.8906	81.6062	87.8906	80.2476	87.8906	81.5283	87.8906	80.2798	87.8906	81.4266	87.8906	80.3218	87.8906	81.3074	87.8906	80.3732	87.8906	81.1778	87.8906	80.4342	87.8906	81.045	87.8906	80.5058	87.8906	80.9156	87.8906	80.5892	87.8906	80.7947	87.8906	80.6854
90.8203	81.1863	90.8203	81.0424	90.8203	81.3341	90.8203	80.9092	90.8203	81.479	90.8203	80.7925	90.8203	81.614	90.8203	80.6969	90.8203	81.7333	90.8203	80.6255	90.8203	81.832	90.8203	80.5796	90.8203	81.9064	90.8203	80.5591	90.8203	81.9547	90.8203	80.5624	90.8203	81.976	90.8203	80.5869	90.8203	81.9711	90.8203	80.6294	90.8203	81.942	90.8203	80.6863	90.8203	81.8916	90.8203	80.7541	90.8203	81.8238	90.8203	80.8298	90.8203	81.7428	90.8203	80.9112	90.8203	81.6528	90.8203	80.9964	90.8203	81.5577	90.8203	81.0846	90.8203	81.4606	90.8203	81.1753	90.8203	81.3637	90.8203	81.2684
95.2148	81.5914	95.2148	81.4519	95.2148	81.7239	95.2148	81.3109	95.2148	81.8452	95.2148	81.1742	95.2148	81.9521	95.2148	81.0483	95.2148	82.0423	95.2148	80.9391	95.2148	82.1142	95.2148	80.8516	95.2148	82.1665	95.2148	80.7894	95.2148	82.1984	95.2148	80.7545	95.2148	82.2091	95.2148	80.747	95.2148	82.198	95.2148	80.7651	95.2148	82.1656	95.2148	80.8059	95.2148	82.1127	95.2148	80.8652	95.2148	82.0412	95.2148	80.9389	95.2148	81.954	95.2148	81.0231	95.2148	81.8548	95.2148	81.1146	95.2148	81.7478	95.2148	81.2115	95.2148	81.6371	95.2148	81.3126	95.2148	81.5263	95.2148	81.4178
98.1445	81.9389	98.1445	81.796	98.1445	82.0722	98.1445	81.649	98.1445	82.1911	98.1445	81.5033	98.1445	82.2911	98.1445	81.3646	98.1445	82.3684	98.1445	81.2383	98.1445	82.4198	98.1445	81.1292	98.1445	82.4431	98.1445	81.0412	98.1445	82.4376	98.1445	80.9769	98.1445	82.4045	98.1445	80.9379	98.1445	82.3469	98.1445	80.924	98.1445	82.2693	98.1445	80.934	98.1445	82.1772	98.1445	80.9657	98.1445	82.0762	98.1445	81.0162	98.1445	81.9704	98.1445	81.0821	98.1445	81.863	98.1445	81.1603	98.1445	81.7556	98.1445	81.2478	98.1445	81.6491	98.1445	81.3423	98.1445	81.5442	98.1445	81.4416
101.074	82.7356	101.074	82.5837	101.074	82.8772	101.074	82.4274	101.074	83.0014	101.074	82.2723	101.074	83.1015	101.074	82.123	101.074	83.1704	101.074	81.9831	101.074	83.2023	101.074	81.8557	101.074	83.1929	101.074	81.7427	101.074	83.1404	101.074	81.6454	101.074	83.0458	101.074	81.5643	101.074	82.9137	101.074	81.4995	101.074	82.7516	101.074	81.4506	101.074	82.5699	101.074	81.4171	101.074	82.38	101.074	81.3987	101.074	82.1934	101.074	81.3952	101.074	82.0195	101.074	81.4067	101.074	81.8652	101.074	81.4341	101.074	81.7339	101.074	81.4786	101.074	81.6265	101.074	81.5421
105.469	82.7947	105.469	82.6417	105.469	82.9364	105.469	82.4841	105.469	83.0607	105.469	82.3286	105.469	83.1621	105.469	82.1818	105.469	83.2361	105.469	82.0493	105.469	83.2795	105.469	81.936	105.469	83.2905	105.469	81.8451	105.469	83.2686	105.469	81.7786	105.469	83.2151	105.469	81.7367	105.469	83.1331	105.469	81.7184	105.469	83.0272	105.469	81.7213	105.469	82.904	105.469	81.7423	105.469	82.771	105.469	81.7779	105.469	82.6356	105.469	81.8248	105.469	82.5047	105.469	81.8804	105.469	82.383	105.469	81.9431	105.469	82.2733	105.469	82.0125	105.469	82.1758	105.469	82.0895
108.398	83.0976	108.398	82.9389	108.398	83.2444	108.398	82.7753	108.398	83.3727	108.398	82.614	108.398	83.4768	108.398	82.4615	108.398	83.5518	108.398	82.3237	108.398	83.5941	108.398	82.2052	108.398	83.6016	108.398	82.109	108.398	83.5738	108.398	82.0369	108.398	83.5118	108.398	81.9887	108.398	83.4191	108.398	81.9631	108.398	83.3011	108.398	81.9579	108.398	83.1651	108.398	81.9702	108.398	83.0192	108.398	81.997	108.398	82.8718	108.398	82.0358	108.398	82.73	108.398	82.0848	108.398	82.5989	108.398	82.143	108.398	82.4814	108.398	82.2105	108.398	82.3781	108.398	82.2883
112.793	83.3691	112.793	83.2172	112.793	83.5164	112.793	83.0674	112.793	83.6524	112.793	82.9259	112.793	83.7707	112.793	82.7983	112.793	83.8653	112.793	82.6895	112.793	83.9308	112.793	82.6029	112.793	83.9634	112.793	82.5406	112.793	83.9613	112.793	82.5028	112.793	83.9249	112.793	82.4885	112.793	83.8573	112.793	82.4951	112.793	83.7641	112.793	82.5194	112.793	83.6531	112.793	82.5575	112.793	83.5327	112.793	82.6058	112.793	83.411	112.793	82.6611	112.793	83.2943	112.793	82.7212	112.793	83.1866	112.793	82.7849	112.793	83.0896	112.793	82.8523	112.793	83.0027	112.793	82.9243
117.188	84.1477	117.188	83.9875	117.188	84.2939	117.188	83.8205	117.188	84.4193	117.188	83.654	117.188	84.5177	117.188	83.4948	117.188	84.5837	117.188	83.349	117.188	84.6135	117.188	83.2219	117.188	84.6049	117.188	83.1174	117.188	84.5576	117.188	83.0379	117.188	84.4737	117.188	82.9841	117.188	84.3581	117.188	82.9551	117.188	84.2182	117.188	82.9485	117.188	84.0637	117.188	82.9611	117.188	83.9056	117.188	82.9889	117.188	83.754	117.188	83.0278	117.188	83.617	117.188	83.0747	117.188	83.4987	117.188	83.1269	117.188	83.3995	117.188	83.1837	117.188	83.3167	117.188	83.2461
120.117	84.3765	120.117	84.21	120.117	84.5264	120.117	84.0341	120.117	84.6529	120.117	83.8561	120.117	84.7499	120.117	83.683	120.117	84.8123	120.117	83.5214	120.117	84.8366	120.117	83.3769	120.117	84.8209	120.117	83.254	120.117	84.7651	120.117	83.1555	120.117	84.6717	120.117	83.0828	120.117	84.5455	120.117	83.0358	120.117	84.3936	120.117	83.0128	120.117	84.2253	120.117	83.011	120.117	84.0511	120.117	83.0272	120.117	83.8814	120.117	83.0579	120.117	83.7244	120.117	83.1002	120.117	83.5858	120.117	83.152	120.117	83.4672	120.117	83.2129	120.117	83.3676	120.117	83.2839
124.512	84.6759	124.512	84.5148	124.512	84.817	124.512	84.3407	124.512	84.9318	124.512	84.161	124.512	85.0156	124.512	83.9833	124.512	85.0646	124.512	83.8147	124.512	85.0768	124.512	83.6618	124.512	85.0515	124.512	83.5296	124.512	84.9895	124.512	83.4216	124.512	84.8934	124.512	83.3399	124.512	84.7675	124.512	83.2845	124.512	84.618	124.512	83.2539	124.512	84.4531	124.512	83.2457	124.512	84.2819	124.512	83.2563	124.512	84.1136	124.512	83.2827	124.512	83.9564	124.512	83.3218	124.512	83.8158	124.512	83.3719	124.512	83.6942	124.512	83.4326	124.512	83.5913	124.512	83.505
128.906	84.8031	128.906	84.6427	128.906	84.9449	128.906	84.4705	128.906	85.062	128.906	84.2938	128.906	85.1497	128.906	84.1202	128.906	85.2043	128.906	83.9568	128.906	85.2233	128.906	83.8097	128.906	85.2058	128.906	83.6838	128.906	85.1521	128.906	83.5824	128.906	85.0644	128.906	83.5071	128.906	84.9464	128.906	83.4576	128.906	84.8042	128.906	83.4323	128.906	84.6456	128.906	83.4284	128.906	84.4795	128.906	83.4428	128.906	84.3153	128.906	83.4723	128.906	84.1607	128.906	83.5143	128.906	84.0211	128.906	83.5673	128.906	83.8992	128.906	83.6309	128.906	83.7948	128.906	83.7061
133.301	84.9537	133.301	84.7965	133.301	85.0926	133.301	84.6276	133.301	85.2076	133.301	84.4542	133.301	85.2939	133.301	84.2838	133.301	85.3483	133.301	84.1236	133.301	85.3685	133.301	83.9799	133.301	85.3535	133.301	83.8579	133.301	85.3039	133.301	83.761	133.301	85.2216	133.301	83.6909	133.301	85.1104	133.301	83.6474	133.301	84.9762	133.301	83.6288	133.301	84.8263	133.301	83.6323	133.301	84.6694	133.301	83.6542	133.301	84.5144	133.301	83.691	133.301	84.3688	133.301	83.7393	133.301	84.2375	133.301	83.797	133.301	84.1227	133.301	83.863	133.301	84.0236	133.301	83.9379
139.16	85.1892	139.16	85.0176	139.16	85.342	139.16	84.8349	139.16	85.4692	139.16	84.6495	139.16	85.565	139.16	84.4698	139.16	85.6252	139.16	84.3038	139.16	85.6471	139.16	84.1587	139.16	85.6303	139.16	84.0402	139.16	85.5763	139.16	83.9523	139.16	85.489	139.16	83.8966	139.16	85.3748	139.16	83.8725	139.16	85.2416	139.16	83.8772	139.16	85.0987	139.16	83.9064	139.16	84.9552	139.16	83.9548	139.16	84.8189	139.16	84.0168	139.16	84.6947	139.16	84.0874	139.16	84.5846	139.16	84.1623	139.16	84.4873	139.16	84.2394	139.16	84.3997	139.16	84.318
143.555	85.5075	143.555	85.339	143.555	85.6572	143.555	85.1595	143.555	85.7809	143.555	84.9772	143.555	85.8724	143.555	84.7998	143.555	85.9272	143.555	84.6345	143.555	85.9423	143.555	84.4869	143.555	85.9166	143.555	84.3615	143.555	85.8512	143.555	84.2607	143.555	85.7492	143.555	84.1856	143.555	85.6162	143.555	84.1356	143.555	85.4598	143.555	84.1092	143.555	85.2898	143.555	84.1039	143.555	85.1166	143.555	84.117	143.555	84.9501	143.555	84.1456	143.555	84.7981	143.555	84.1869	143.555	84.6648	143.555	84.239	143.555	84.5508	143.555	84.3005	143.555	84.4542	143.555	84.3717
147.949	85.6861	147.949	85.5171	147.949	85.835	147.949	85.3357	147.949	85.9566	147.949	85.1509	147.949	86.0454	147.949	84.9711	147.949	86.0977	147.949	84.8047	147.949	86.1115	147.949	84.6586	147.949	86.0866	147.949	84.538	147.949	86.025	147.949	84.4458	147.949	85.9305	147.949	84.3828	147.949	85.8087	147.949	84.3473	147.949	85.6669	147.949	84.3362	147.949	85.5135	147.949	84.3455	147.949	85.357	147.949	84.371	147.949	85.2053	147.949	84.409	147.949	85.0645	147.949	84.4567	147.949	84.9382	147.949	84.5125	147.949	84.8275	147.949	84.5761	147.949	84.7316	147.949	84.6485
153.809	85.9013	153.809	85.7185	153.809	86.0573	153.809	85.5175	153.809	86.1791	153.809	85.3078	153.809	86.261	153.809	85.0992	153.809	86.2989	153.809	84.9014	153.809	86.291	153.809	84.7233	153.809	86.2378	153.809	84.5722	153.809	86.1423	153.809	84.4535	153.809	86.0097	153.809	84.3697	153.809	85.8481	153.809	84.3206	153.809	85.6678	153.809	84.3036	153.809	85.4809	153.809	84.314	153.809	85.3001	153.809	84.3456	153.809	85.1362	153.809	84.3924	153.809	84.9957	153.809	84.4485	153.809	84.88	153.809	84.5095	153.809	84.786	153.809	84.5728	153.809	84.7075	153.809	84.638
159.668	86.1712	159.668	85.9994	159.668	86.3162	159.668	85.8083	159.668	86.4281	159.668	85.6065	159.668	86.503	159.668	85.4033	159.668	86.5387	159.668	85.2078	159.668	86.5351	159.668	85.0282	159.668	86.4933	159.668	84.8716	159.668	86.416	159.668	84.7436	159.668	86.3068	159.668	84.6473	159.668	86.1706	159.668	84.5839	159.668	86.0138	159.668	84.5524	159.668	85.8441	159.668	84.5499	159.668	85.6707	159.668	84.5722	159.668	85.5026	159.668	84.6142	159.668	85.3474	159.668	84.6709	159.668	85.2097	159.668	84.7382	159.668	85.0902	159.668	84.8132	159.668	84.9868	159.668	84.8956
165.527	86.3633	165.527	86.1893	165.527	86.5095	165.527	85.9956	165.527	86.6221	165.527	85.7915	165.527	86.697	165.527	85.5873	165.527	86.7324	165.527	85.3932	165.527	86.7281	165.527	85.2182	165.527	86.6858	165.527	85.0695	165.527	86.6089	165.527	84.9521	165.527	86.5021	165.527	84.8681	165.527	86.3718	165.527	84.8172	165.527	86.2254	165.527	84.7973	165.527	86.0712	165.527	84.8049	165.527	85.9169	165.527	84.8358	165.527	85.7693	165.527	84.8857	165.527	85.6328	165.527	84.9503	165.527	85.5089	165.527	85.0259	165.527	85.3969	165.527	85.1095	165.527	85.2944	165.527	85.199
171.387	86.3919	171.387	86.2157	171.387	86.5416	171.387	86.0214	171.387	86.658	171.387	85.8185	171.387	86.7364	171.387	85.6175	171.387	86.7739	171.387	85.4286	171.387	86.7696	171.387	85.261	171.387	86.7247	171.387	85.1217	171.387	86.6426	171.387	85.0152	171.387	86.5286	171.387	84.9427	171.387	86.3896	171.387	84.9029	171.387	86.2341	171.387	84.8921	171.387	86.0712	171.387	84.9055	171.387	85.9098	171.387	84.9375	171.387	85.7581	171.387	84.9833	171.387	85.6217	171.387	85.0384	171.387	85.5031	171.387	85.0999	171.387	85.4017	171.387	85.1661	171.387	85.3143	171.387	85.2369
177.246	86.3164	177.246	86.1256	177.246	86.4833	177.246	85.9212	177.246	86.6171	177.246	85.7141	177.246	86.7104	177.246	85.5152	177.246	86.7588	177.246	85.3342	177.246	86.7612	177.246	85.1795	177.246	86.7202	177.246	85.0569	177.246	86.642	177.246	84.9692	177.246	86.5357	177.246	84.9167	177.246	86.4116	177.246	84.8971	177.246	86.2801	177.246	84.9064	177.246	86.1493	177.246	84.9395	177.246	86.0242	177.246	84.9912	177.246	85.9067	177.246	85.0569	177.246	85.7959	177.246	85.1325	177.246	85.6905	177.246	85.2152	177.246	85.5889	177.246	85.3031	177.246	85.4904	177.246	85.3951
183.105	86.4145	183.105	86.1894	183.105	86.6034	183.105	85.9415	183.105	86.746	183.105	85.6863	183.105	86.8353	183.105	85.4407	183.105	86.8675	183.105	85.2212	183.105	86.8421	183.105	85.0426	183.105	86.7619	183.105	84.9154	183.105	86.6331	183.105	84.8444	183.105	86.4664	183.105	84.8281	183.105	86.2776	183.105	84.8595	183.105	86.087	183.105	84.9275	183.105	85.9165	183.105	85.0198	183.105	85.7841	183.105	85.1248	183.105	85.6978	183.105	85.2326	183.105	85.6522	183.105	85.3354	183.105	85.6324	183.105	85.4275	183.105	85.6199	183.105	85.504	183.105	85.5993	183.105	85.5617
188.965	86.6713	188.965	86.4731	188.965	86.8293	188.965	86.243	188.965	86.9416	188.965	85.991	188.965	87.0047	188.965	85.7297	188.965	87.0173	188.965	85.473	188.965	86.9793	188.965	85.236	188.965	86.8923	188.965	85.0336	188.965	86.759	188.965	84.8787	188.965	86.5839	188.965	84.7803	188.965	86.3748	188.965	84.7409	188.965	86.1444	188.965	84.7563	188.965	85.9111	188.965	84.8158	188.965	85.6978	188.965	84.9045	188.965	85.5264	188.965	85.0059	188.965	85.4097	188.965	85.1049	188.965	85.3456	188.965	85.1891	188.965	85.3185	188.965	85.2509	188.965	85.3061	188.965	85.2881
196.289	86.9046	196.289	86.7209	196.289	87.0486	196.289	86.506	196.289	87.1463	196.289	86.2694	196.289	87.1928	196.289	86.0218	196.289	87.1853	196.289	85.7746	196.289	87.1241	196.289	85.5395	196.289	87.0126	196.289	85.3284	196.289	86.8583	196.289	85.1522	196.289	86.6724	196.289	85.02	196.289	86.4699	196.289	84.9375	196.289	86.2671	196.289	84.9054	196.289	86.0794	196.289	84.9195	196.289	85.9178	196.289	84.9707	196.289	85.7869	196.289	85.0476	196.289	85.6848	196.289	85.1379	196.289	85.6042	196.289	85.2311	196.289	85.5356	196.289	85.3194	196.289	85.4696	196.289	85.3989
203.613	86.85	203.613	86.6525	203.613	87.0039	203.613	86.4216	203.613	87.1067	203.613	86.1687	203.613	87.1535	203.613	85.9065	203.613	87.1424	203.613	85.6473	203.613	87.0745	203.613	85.4029	203.613	86.9532	203.613	85.1836	203.613	86.784	203.613	84.9981	203.613	86.5744	203.613	84.8529	203.613	86.3349	203.613	84.7518	203.613	86.0797	203.613	84.6958	203.613	85.8272	203.613	84.6822	203.613	85.5978	203.613	84.7049	203.613	85.409	203.613	84.7547	203.613	85.2693	203.613	84.8207	203.613	85.1751	203.613	84.8918	203.613	85.1127	203.613	84.9587	203.613	85.0646	203.613	85.016
210.938	86.7807	210.938	86.5836	210.938	86.9364	210.938	86.3538	210.938	87.0441	210.938	86.1019	210.938	87.0995	210.938	85.8395	210.938	87.1008	210.938	85.5783	210.938	87.0483	210.938	85.3295	210.938	86.9441	210.938	85.1036	210.938	86.7924	210.938	84.9096	210.938	86.5993	210.938	84.7554	210.938	86.3732	210.938	84.6463	210.938	86.1261	210.938	84.5847	210.938	85.8735	210.938	84.5687	210.938	85.6333	210.938	84.5917	210.938	85.4228	210.938	84.6434	210.938	85.254	210.938	84.7115	210.938	85.1289	210.938	84.784	210.938	85.04	210.938	84.8526	210.938	84.9734	210.938	84.9144
218.262	86.733	218.262	86.5383	218.262	86.8858	218.262	86.311	218.262	86.9898	218.262	86.0622	218.262	87.0406	218.262	85.8044	218.262	87.0368	218.262	85.5505	218.262	86.9799	218.262	85.3132	218.262	86.8743	218.262	85.1038	218.262	86.7264	218.262	84.931	218.262	86.5446	218.262	84.8009	218.262	86.3383	218.262	84.7155	218.262	86.1192	218.262	84.6737	218.262	85.9008	218.262	84.6713	218.262	85.6978	218.262	84.7016	218.262	85.5228	218.262	84.7562	218.262	85.3826	218.262	84.8263	218.262	85.2755	218.262	84.9032	218.262	85.1923	218.262	84.9799	218.262	85.1214	218.262	85.0525
225.586	86.7339	225.586	86.56	225.586	86.8598	225.586	86.3477	225.586	86.931	225.586	86.109	225.586	86.9446	225.586	85.8568	225.586	86.9021	225.586	85.6045	225.586	86.8092	225.586	85.3653	225.586	86.6751	225.586	85.1514	225.586	86.5115	225.586	84.9737	225.586	86.3306	225.586	84.8411	225.586	86.1434	225.586	84.759	225.586	85.9596	225.586	84.7286	225.586	85.7876	225.586	84.7456	225.586	85.6354	225.586	84.8009	225.586	85.5103	225.586	84.8818	225.586	85.4159	225.586	84.9743	225.586	85.3495	225.586	85.0655	225.586	85.3016	225.586	85.1455	225.586	85.2591	225.586	85.2096
232.91	86.7468	232.91	86.5595	232.91	86.8806	232.91	86.3299	232.91	86.9527	232.91	86.0716	232.91	86.9588	232.91	85.7996	232.91	86.8987	232.91	85.5288	232.91	86.7766	232.91	85.2727	232.91	86.6019	232.91	85.0432	232.91	86.3892	232.91	84.8497	232.91	86.158	232.91	84.7002	232.91	85.9299	232.91	84.6007	232.91	85.7239	232.91	84.5543	232.91	85.5529	232.91	84.5601	232.91	85.4207	232.91	84.6115	232.91	85.3246	232.91	84.6966	232.91	85.2572	232.91	84.7996	232.91	85.2092	232.91	84.9045	232.91	85.1699	232.91	84.9979	232.91	85.1277	232.91	85.0724
241.699	86.7556	241.699	86.5411	241.699	86.9215	241.699	86.2906	241.699	87.0281	241.699	86.0188	241.699	87.0681	241.699	85.7406	241.699	87.0372	241.699	85.4699	241.699	86.9347	241.699	85.2187	241.699	86.7643	241.699	84.9959	241.699	86.5348	241.699	84.8079	241.699	86.2619	241.699	84.6594	241.699	85.9688	241.699	84.5542	241.699	85.6843	241.699	84.4952	241.699	85.4377	241.699	84.4833	241.699	85.2501	241.699	84.5152	241.699	85.127	241.699	84.5824	241.699	85.0578	241.699	84.6715	241.699	85.0225	241.699	84.7667	241.699	84.999	241.699	84.8537	241.699	84.9695	241.699	84.9224
250.488	86.6317	250.488	86.3693	250.488	86.8308	250.488	86.0581	250.488	86.9565	250.488	85.7165	250.488	87.0024	250.488	85.3657	250.488	86.9659	250.488	85.028	250.488	86.8477	250.488	84.7232	250.488	86.6523	250.488	84.4653	250.488	86.3898	250.488	84.2608	250.488	86.0772	250.488	84.1092	250.488	85.7395	250.488	84.0058	250.488	85.4085	250.488	83.9453	250.488	85.1162	250.488	83.9244	250.488	84.8848	250.488	83.9408	250.488	84.7193	250.488	83.9906	250.488	84.6076	250.488	84.0662	250.488	84.5297	250.488	84.1558	250.488	84.4661	250.488	84.247	250.488	84.4025	250.488	84.3304
259.277	86.8318	259.277	86.595	259.277	87.02	259.277	86.319	259.277	87.1521	259.277	86.0153	259.277	87.221	259.277	85.6978	259.277	87.2201	259.277	85.3825	259.277	87.143	259.277	85.0857	259.277	86.9843	259.277	84.8212	259.277	86.7429	259.277	84.5985	259.277	86.4255	259.277	84.4211	259.277	86.0523	259.277	84.2879	259.277	85.6619	259.277	84.1958	259.277	85.3069	259.277	84.1428	259.277	85.0368	259.277	84.1297	259.277	84.8727	259.277	84.1578	259.277	84.7956	259.277	84.2257	259.277	84.7604	259.277	84.326	259.277	84.7229	259.277	84.4441	259.277	84.6577	259.277	84.561
268.066	86.3196	268.066	86.0166	268.066	86.5555	268.066	85.6643	268.066	86.7127	268.066	85.2852	268.066	86.7857	268.066	84.9052	268.066	86.7745	268.066	84.551	268.066	86.682	268.066	84.2464	268.066	86.5117	268.066	84.0081	268.066	86.2646	268.066	83.8413	268.066	85.9412	268.066	83.7382	268.066	85.5476	268.066	83.6816	268.066	85.106	268.066	83.6524	268.066	84.6634	268.066	83.6371	268.066	84.2851	268.066	83.6321	268.066	84.0267	268.066	83.6422	268.066	83.9008	268.066	83.6732	268.066	83.8701	268.066	83.725	268.066	83.8763	268.066	83.7873	268.066	83.8735	268.066	83.8424
276.855	86.3821	276.855	86.1707	276.855	86.5306	276.855	85.9081	276.855	86.6071	276.855	85.6062	276.855	86.6087	276.855	85.2768	276.855	86.5403	276.855	84.9326	276.855	86.4143	276.855	84.5899	276.855	86.246	276.855	84.27	276.855	86.0457	276.855	83.9969	276.855	85.812	276.855	83.7899	276.855	85.5302	276.855	83.6544	276.855	85.1806	276.855	83.5779	276.855	84.7565	276.855	83.5355	276.855	84.2823	276.855	83.5003	276.855	83.8198	276.855	83.4545	276.855	83.4477	276.855	83.3935	276.855	83.2182	276.855	83.3222	276.855	83.1275	276.855	83.2486	276.855	83.1306	276.855	83.1805
287.109	86.2401	287.109	86.0322	287.109	86.3905	287.109	85.7788	287.109	86.4754	287.109	85.4947	287.109	86.4914	287.109	85.1947	287.109	86.439	287.109	84.8915	287.109	86.3219	287.109	84.596	287.109	86.1487	287.109	84.3191	287.109	85.9335	287.109	84.0754	287.109	85.6957	287.109	83.8841	287.109	85.4535	287.109	83.7646	287.109	85.2167	287.109	83.7266	287.109	84.9849	287.109	83.762	287.109	84.7546	287.109	83.845	287.109	84.5317	287.109	83.9419	287.109	84.3355	287.109	84.0232	287.109	84.19	287.109	84.0724	287.109	84.1076	287.109	84.0882	287.109	84.0799	287.109	84.0829
297.363	85.9112	297.363	85.6716	297.363	86.0884	297.363	85.3809	297.363	86.2012	297.363	85.0614	297.363	86.2531	297.363	84.744	297.363	86.2485	297.363	84.4602	297.363	86.1884	297.363	84.2306	297.363	86.0697	297.363	84.0569	297.363	85.8882	297.363	83.9234	297.363	85.6456	297.363	83.8082	297.363	85.3578	297.363	83.6983	297.363	85.0589	297.363	83.5992	297.363	84.7923	297.363	83.5329	297.363	84.5905	297.363	83.5238	297.363	84.4566	297.363	83.582	297.363	84.3686	297.363	83.6937	297.363	84.2995	297.363	83.8292	297.363	84.2322	297.363	83.9596	297.363	84.158	297.363	84.0695
307.617	86.0133	307.617	85.8307	307.617	86.1156	307.617	85.5829	307.617	86.1288	307.617	85.2888	307.617	86.0551	307.617	84.9697	307.617	85.9122	307.617	84.649	307.617	85.7341	307.617	84.3513	307.617	85.5623	307.617	84.0976	307.617	85.4271	307.617	83.899	307.617	85.3286	307.617	83.7521	307.617	85.2363	307.617	83.6424	307.617	85.1098	307.617	83.5543	307.617	84.9266	307.617	83.4818	307.617	84.6969	307.617	83.4321	307.617	84.4575	307.617	83.4198	307.617	84.2481	307.617	83.4547	307.617	84.0865	307.617	83.5329	307.617	83.9636	307.617	83.6377	307.617	83.8571	307.617	83.7496
319.336	86.3081	319.336	86.0322	319.336	86.4783	319.336	85.6727	319.336	86.5293	319.336	85.2601	319.336	86.4563	319.336	84.8311	319.336	86.2642	319.336	84.4258	319.336	85.9703	319.336	84.0827	319.336	85.6075	319.336	83.8307	319.336	85.2256	319.336	83.6809	319.336	84.8854	319.336	83.6218	319.336	84.6406	319.336	83.6235	319.336	84.5146	319.336	83.6499	319.336	84.4892	319.336	83.6739	319.336	84.5167	319.336	83.6866	319.336	84.5453	319.336	83.6984	319.336	84.5382	319.336	83.7306	319.336	84.4795	319.336	83.8025	319.336	84.3711	319.336	83.9188	319.336	84.2268	319.336	84.0678
329.59	86.5241	329.59	86.2049	329.59	86.7406	329.59	85.8028	329.59	86.8423	329.59	85.3442	329.59	86.8253	329.59	84.8608	329.59	86.6945	329.59	84.3878	329.59	86.4636	329.59	83.9622	329.59	86.1534	329.59	83.6202	329.59	85.7888	329.59	83.391	329.59	85.3958	329.59	83.2875	329.59	85.0005	329.59	83.2981	329.59	84.6324	329.59	83.3886	329.59	84.3261	329.59	83.5147	329.59	84.115	329.59	83.6397	329.59	84.012	329.59	83.7443	329.59	83.9963	329.59	83.8271	329.59	84.0227	329.59	83.8961	329.59	84.0465	329.59	83.9579	329.59	84.0432	329.59	84.0103
341.309	86.3778	341.309	86.0604	341.309	86.5863	341.309	85.6585	341.309	86.6706	341.309	85.2049	341.309	86.6253	341.309	84.7399	341.309	86.4559	341.309	84.3062	341.309	86.1805	341.309	83.9408	341.309	85.8314	341.309	83.6661	341.309	85.4541	341.309	83.4867	341.309	85.1008	341.309	83.3939	341.309	84.8173	341.309	83.3745	341.309	84.6261	341.309	83.416	341.309	84.5197	341.309	83.5066	341.309	84.4686	341.309	83.6327	341.309	84.4406	341.309	83.7781	341.309	84.4151	341.309	83.9252	341.309	84.3858	341.309	84.0591	341.309	84.3519	341.309	84.1693	341.309	84.31	341.309	84.2518
353.027	86.835	353.027	86.5187	353.027	87.0149	353.027	86.0796	353.027	87.0534	353.027	85.539	353.027	86.9534	353.027	84.9284	353.027	86.7266	353.027	84.2924	353.027	86.3919	353.027	83.6919	353.027	85.9738	353.027	83.1986	353.027	85.4998	353.027	82.8746	353.027	84.9986	353.027	82.7423	353.027	84.505	353.027	82.771	353.027	84.0694	353.027	82.8967	353.027	83.7603	353.027	83.0574	353.027	83.6347	353.027	83.2165	353.027	83.6877	353.027	83.365	353.027	83.8395	353.027	83.5105	353.027	83.9874	353.027	83.6609	353.027	84.0618	353.027	83.8134	353.027	84.0439	353.027	83.9507
366.211	86.8511	366.211	86.5437	366.211	87.0321	366.211	86.122	366.211	87.0807	366.211	85.6053	366.211	86.9967	366.211	85.022	366.211	86.7853	366.211	84.4111	366.211	86.4589	366.211	83.8225	366.211	86.0377	366.211	83.3121	366.211	85.5503	366.211	82.9282	366.211	85.0327	366.211	82.6947	366.211	84.5258	366.211	82.6017	366.211	84.0734	366.211	82.6124	366.211	83.7175	366.211	82.6818	366.211	83.4859	366.211	82.7741	366.211	83.3768	366.211	82.8706	366.211	83.3547	366.211	82.9679	366.211	83.3671	366.211	83.0685	366.211	83.3685	366.211	83.1708	366.211	83.335	366.211	83.2649
379.395	87.0924	379.395	86.8467	379.395	87.2276	379.395	86.5039	379.395	87.2419	379.395	86.0788	379.395	87.1297	379.395	85.5873	379.395	86.894	379.395	85.0494	379.395	86.5492	379.395	84.4933	379.395	86.1229	379.395	83.9583	379.395	85.6507	379.395	83.4919	379.395	85.1654	379.395	83.1367	379.395	84.6875	379.395	82.9152	379.395	84.2318	379.395	82.8226	379.395	83.8284	379.395	82.8348	379.395	83.5352	379.395	82.9224	379.395	83.4075	379.395	83.0602	379.395	83.4432	379.395	83.2282	379.395	83.568	379.395	83.4061	379.395	83.6856	379.395	83.5693	379.395	83.7315	379.395	83.6876
392.578	86.6814	392.578	86.4011	392.578	86.862	392.578	86.0373	392.578	86.9267	392.578	85.6052	392.578	86.8608	392.578	85.1206	392.578	86.6556	392.578	84.6023	392.578	86.3139	392.578	84.077	392.578	85.855	392.578	83.5818	392.578	85.3153	392.578	83.1602	392.578	84.743	392.578	82.8489	392.578	84.1876	392.578	82.6633	392.578	83.6916	392.578	82.5948	392.578	83.2907	392.578	82.6217	392.578	83.0191	392.578	82.7229	392.578	82.9057	392.578	82.8804	392.578	82.9516	392.578	83.0721	392.578	83.1108	392.578	83.2647	392.578	83.3012	392.578	83.4154	392.578	83.4416	392.578	83.4824
405.762	86.5289	405.762	86.2813	405.762	86.6571	405.762	85.9308	405.762	86.6536	405.762	85.4949	405.762	86.5138	405.762	84.9911	405.762	86.2456	405.762	84.4405	405.762	85.87	405.762	83.8737	405.762	85.4179	405.762	83.3372	405.762	84.9202	405.762	82.8886	405.762	84.3984	405.762	82.5744	405.762	83.8657	405.762	82.4032	405.762	83.3476	405.762	82.3426	405.762	82.9067	405.762	82.3461	405.762	82.6322	405.762	82.3846	405.762	82.5737	405.762	82.4552	405.762	82.6848	405.762	82.5663	405.762	82.8567	405.762	82.7142	405.762	82.9922	405.762	82.871	405.762	83.0407	405.762	82.9932
420.41	86.9964	420.41	86.7462	420.41	87.1273	420.41	86.3946	420.41	87.1256	420.41	85.9606	420.41	86.9848	420.41	85.4609	420.41	86.7085	420.41	84.9093	420.41	86.3129	420.41	84.3202	420.41	85.8261	420.41	83.7151	420.41	85.2811	420.41	83.1298	420.41	84.705	420.41	82.6131	420.41	84.1109	420.41	82.2128	420.41	83.5055	420.41	81.9572	420.41	82.9157	420.41	81.8468	420.41	82.4169	420.41	81.8636	420.41	82.1198	420.41	81.9827	420.41	82.0862	420.41	82.1728	420.41	82.2549	420.41	82.3894	420.41	82.4821	420.41	82.5752	420.41	82.6416	420.41	82.6725
435.059	86.502	435.059	86.2572	435.059	86.62	435.059	85.9042	435.059	86.6015	435.059	85.4671	435.059	86.4478	435.059	84.9712	435.059	86.1733	435.059	84.4385	435.059	85.8047	435.059	83.8873	435.059	85.3756	435.059	83.3386	435.059	84.9158	435.059	82.827	435.059	84.4409	435.059	82.4062	435.059	83.9514	435.059	82.1366	435.059	83.4487	435.059	82.0543	435.059	82.9622	435.059	82.1451	435.059	82.5662	435.059	82.3514	435.059	82.3543	435.059	82.6038	435.059	82.3714	435.059	82.8457	435.059	82.5659	435.059	83.0374	435.059	82.8243	435.059	83.1484	435.059	83.0404	435.059	83.1537
451.172	87.2115	451.172	86.9378	451.172	87.336	451.172	86.5277	451.172	87.2973	451.172	85.9903	451.172	87.0872	451.172	85.3327	451.172	86.7124	451.172	84.5667	451.172	86.2014	451.172	83.7192	451.172	85.6028	451.172	82.8431	451.172	84.9716	451.172	82.0193	451.172	84.3453	451.172	81.3439	451.172	83.7285	451.172	80.8993	451.172	83.1034	451.172	80.7269	451.172	82.4762	451.172	80.8185	451.172	81.9303	451.172	81.1258	451.172	81.621	451.172	81.5708	451.172	81.6577	451.172	82.0567	451.172	81.9773	451.172	82.4841	451.172	82.3896	451.172	82.7682	451.172	82.7154	451.172	82.852
465.82	87.1316	465.82	86.8868	465.82	87.2164	465.82	86.5012	465.82	87.1305	465.82	85.9976	465.82	86.8788	465.82	85.3986	465.82	86.4848	465.82	84.7259	465.82	85.9864	465.82	84.002	465.82	85.4258	465.82	83.2574	465.82	84.8391	465.82	82.537	465.82	84.2513	465.82	81.9001	465.82	83.6721	465.82	81.4075	465.82	83.1008	465.82	81.1009	465.82	82.551	465.82	80.9921	465.82	82.0779	465.82	81.0675	465.82	81.7692	465.82	81.293	465.82	81.6834	465.82	81.6078	465.82	81.7934	465.82	81.9265	465.82	81.9985	465.82	82.1605	465.82	82.1809	465.82	82.2493
483.398	87.1425	483.398	86.9038	483.398	87.235	483.398	86.5222	483.398	87.19	483.398	86.0184	483.398	87.0191	483.398	85.4285	483.398	86.7284	483.398	84.7924	483.398	86.3177	483.398	84.1366	483.398	85.7885	483.398	83.4629	483.398	85.1546	483.398	82.7595	483.398	84.4451	483.398	82.0329	483.398	83.6972	483.398	81.3455	483.398	82.9517	483.398	80.823	483.398	82.267	483.398	80.593	483.398	81.7388	483.398	80.6863	483.398	81.4764	483.398	81.0158	483.398	81.5158	483.398	81.4483	483.398	81.766	483.398	81.866	483.398	82.0677	483.398	82.1792	483.398	82.2815	483.398	82.3262
499.512	87.0808	499.512	86.8173	499.512	87.2003	499.512	86.4261	499.512	87.165	499.512	85.9289	499.512	86.9726	499.512	85.3509	499.512	86.6297	499.512	84.7195	499.512	86.1544	499.512	84.0618	499.512	85.5757	499.512	83.4016	499.512	84.932	499.512	82.7584	499.512	84.2631	499.512	82.1535	499.512	83.5966	499.512	81.6189	499.512	82.9456	499.512	81.2035	499.512	82.3361	499.512	80.9638	499.512	81.8516	499.512	80.938	499.512	81.6221	499.512	81.1194	499.512	81.702	499.512	81.4493	499.512	81.9789	499.512	81.8334	499.512	82.2625	499.512	82.1715	499.512	82.4147	499.512	82.3818
517.09	87.2251	517.09	87.0244	517.09	87.2786	517.09	86.7005	517.09	87.1793	517.09	86.2875	517.09	86.9437	517.09	85.8184	517.09	86.6045	517.09	85.3139	517.09	86.198	517.09	84.7769	517.09	85.749	517.09	84.1946	517.09	85.2624	517.09	83.5514	517.09	84.7232	517.09	82.8537	517.09	84.1062	517.09	82.161	517.09	83.4	517.09	81.5961	517.09	82.6456	517.09	81.2939	517.09	81.9758	517.09	81.3077	517.09	81.5967	517.09	81.5763	517.09	81.6444	517.09	81.983	517.09	82.028	517.09	82.41	517.09	82.4952	517.09	82.7501	517.09	82.8238	517.09	82.9092
536.133	87.027	536.133	86.658	536.133	87.1552	536.133	86.0863	536.133	87.0379	536.133	85.3896	536.133	86.6957	536.133	84.6775	536.133	86.1714	536.133	84.0572	536.133	85.5374	536.133	83.5835	536.133	84.8971	536.133	83.2315	536.133	84.3547	536.133	82.9254	536.133	83.9496	536.133	82.5964	536.133	83.6181	536.133	82.2266	536.133	83.241	536.133	81.8615	536.133	82.7454	536.133	81.5937	536.133	82.1916	536.133	81.5253	536.133	81.7894	536.133	81.7116	536.133	81.7632	536.133	82.1112	536.133	82.1166	536.133	82.5891	536.133	82.6163	536.133	82.976	536.133	83.0055	536.133	83.1359
555.176	87.4796	555.176	87.0738	555.176	87.6598	555.176	86.4806	555.176	87.5988	555.176	85.7613	555.176	87.3005	555.176	84.9935	555.176	86.7873	555.176	84.2493	555.176	86.102	555.176	83.5653	555.176	85.3103	555.176	82.9282	555.176	84.4983	555.176	82.2976	555.176	83.75	555.176	81.6585	555.176	83.107	555.176	81.0654	555.176	82.5495	555.176	80.6315	555.176	82.0308	555.176	80.4521	555.176	81.5292	555.176	80.525	555.176	81.0765	555.176	80.7653	555.176	80.7705	555.176	81.0745	555.176	80.7348	555.176	81.366	555.176	80.9765	555.176	81.5495	555.176	81.3167	555.176	81.541
574.219	87.1046	574.219	86.7426	574.219	87.271	574.219	86.2037	574.219	87.2374	574.219	85.5244	574.219	87.007	574.219	84.7595	574.219	86.5895	574.219	83.979	574.219	86.0088	574.219	83.2514	574.219	85.3167	574.219	82.6085	574.219	84.5883	574.219	82.0245	574.219	83.8898	574.219	81.4443	574.219	83.2395	574.219	80.851	574.219	82.6047	574.219	80.3261	574.219	81.9492	574.219	80.043	574.219	81.3069	574.219	80.1323	574.219	80.8288	574.219	80.5365	574.219	80.7086	574.219	81.067	574.219	80.9761	574.219	81.5509	574.219	81.4274	574.219	81.8761	574.219	81.8097	574.219	81.9724
594.727	86.9668	594.727	86.6678	594.727	87.0551	594.727	86.1773	594.727	86.9262	594.727	85.5316	594.727	86.5783	594.727	84.7796	594.727	86.0189	594.727	83.9753	594.727	85.2858	594.727	83.175	594.727	84.4658	594.727	82.437	594.727	83.6758	594.727	81.8113	594.727	83.0106	594.727	81.3152	594.727	82.4973	594.727	80.9234	594.727	82.0844	594.727	80.6018	594.727	81.6766	594.727	80.3707	594.727	81.2194	594.727	80.3285	594.727	80.8002	594.727	80.5712	594.727	80.6617	594.727	81.0621	594.727	80.9613	594.727	81.6231	594.727	81.5189	594.727	82.0491	594.727	82.0008	594.727	82.1948
615.234	86.8342	615.234	86.447	615.234	87.0051	615.234	85.8704	615.234	86.9367	615.234	85.1452	615.234	86.6197	615.234	84.3379	615.234	86.0817	615.234	83.5405	615.234	85.3981	615.234	82.8454	615.234	84.6548	615.234	82.3045	615.234	83.8924	615.234	81.906	615.234	83.1017	615.234	81.5896	615.234	82.29	615.234	81.2829	615.234	81.5443	615.234	80.943	615.234	80.9805	615.234	80.5894	615.234	80.5832	615.234	80.3154	615.234	80.2224	615.234	80.2456	615.234	79.9219	615.234	80.4324	615.234	79.941	615.234	80.7794	615.234	80.3671	615.234	81.085	615.234	80.8815	615.234	81.1519
637.207	86.6067	637.207	86.1913	637.207	86.7944	637.207	85.5713	637.207	86.7498	637.207	84.7893	637.207	86.4916	637.207	83.917	637.207	86.0541	637.207	83.0612	637.207	85.4648	637.207	82.3442	637.207	84.7416	637.207	81.8331	637.207	83.9217	637.207	81.4635	637.207	83.0624	637.207	81.064	637.207	82.1978	637.207	80.4994	637.207	81.3453	637.207	79.8202	637.207	80.5942	637.207	79.3157	637.207	80.0866	637.207	79.3224	637.207	79.8235	637.207	79.8555	637.207	79.7197	637.207	80.6062	637.207	79.8828	637.207	81.2594	637.207	80.4326	637.207	81.6189	637.207	81.1223	637.207	81.5766
659.18	86.6339	659.18	86.3462	659.18	86.7209	659.18	85.8557	659.18	86.6139	659.18	85.177	659.18	86.3148	659.18	84.3547	659.18	85.817	659.18	83.4627	659.18	85.121	659.18	82.5876	659.18	84.2776	659.18	81.8103	659.18	83.4153	659.18	81.1962	659.18	82.6876	659.18	80.7732	659.18	82.1518	659.18	80.4862	659.18	81.6904	659.18	80.2	659.18	81.1004	659.18	79.8012	659.18	80.316	659.18	79.3419	659.18	79.5729	659.18	79.0923	659.18	79.279	659.18	79.299	659.18	79.524	659.18	79.8286	659.18	79.9917	659.18	80.3135	659.18	80.3763	659.18	80.5104
682.617	86.7533	682.617	86.3801	682.617	86.8385	682.617	85.7416	682.617	86.6428	682.617	84.8973	682.617	86.1977	682.617	83.9454	682.617	85.5559	682.617	83.0071	682.617	84.7885	682.617	82.196	682.617	83.9744	682.617	81.5867	682.617	83.1848	682.617	81.1937	682.617	82.476	682.617	80.9577	682.617	81.8708	682.617	80.763	682.617	81.343	682.617	80.5056	682.617	80.8562	682.617	80.1848	682.617	80.3867	682.617	79.955	682.617	79.903	682.617	80.045	682.617	79.4746	682.617	80.5066	682.617	79.4435	682.617	81.0972	682.617	80.0492	682.617	81.4852	682.617	80.893	682.617	81.4391
707.52	86.7576	707.52	86.2743	707.52	86.9383	707.52	85.4784	707.52	86.8458	707.52	84.431	707.52	86.4975	707.52	83.3034	707.52	85.9055	707.52	82.3456	707.52	85.1167	707.52	81.7366	707.52	84.2322	707.52	81.4268	707.52	83.347	707.52	81.1944	707.52	82.457	707.52	80.8651	707.52	81.4713	707.52	80.448	707.52	80.3896	707.52	80.0635	707.52	79.4823	707.52	79.7586	707.52	79.0627	707.52	79.4761	707.52	78.9959	707.52	79.254	707.52	79.0159	707.52	79.3358	707.52	79.2593	707.52	79.8457	707.52	79.8784	707.52	80.4681	707.52	80.5255	707.52	80.7634
732.422	86.9061	732.422	86.596	732.422	86.8644	732.422	85.9375	732.422	86.5241	732.422	85.0014	732.422	85.9771	732.422	83.917	732.422	85.3177	732.422	82.8287	732.422	84.5954	732.422	81.858	732.422	83.8004	732.422	81.123	732.422	82.9041	732.422	80.7115	732.422	81.918	732.422	80.5463	732.422	80.9554	732.422	80.4054	732.422	80.2457	732.422	80.1325	732.422	79.9051	732.422	79.7402	732.422	79.6874	732.422	79.3634	732.422	79.2908	732.422	79.1755	732.422	78.8313	732.422	79.2934	732.422	78.8244	732.422	79.6727	732.422	79.3929	732.422	80.0897	732.422	80.0127	732.422	80.2635
757.324	87.2756	757.324	86.7959	757.324	87.3693	757.324	85.9767	757.324	87.0688	757.324	84.8846	757.324	86.4261	757.324	83.6122	757.324	85.5535	757.324	82.3135	757.324	84.5875	757.324	81.2172	757.324	83.6395	757.324	80.497	757.324	82.7595	757.324	80.1232	757.324	81.9192	757.324	79.9811	757.324	81.038	757.324	79.9891	757.324	80.0953	757.324	80.0103	757.324	79.2803	757.324	79.8613	757.324	78.8926	757.324	79.4949	757.324	78.8949	757.324	79.1497	757.324	78.9881	757.324	79.2026	757.324	79.1727	757.324	79.683	757.324	79.6312	757.324	80.2123	757.324	80.1775	757.324	80.4233
785.156	87.4247	785.156	86.832	785.156	87.6875	785.156	85.9893	785.156	87.5858	785.156	85.0155	785.156	87.1123	785.156	84.0321	785.156	86.2729	785.156	83.1094	785.156	85.1418	785.156	82.2485	785.156	83.9331	785.156	81.4054	785.156	82.8758	785.156	80.5048	785.156	81.9402	785.156	79.5033	785.156	80.8762	785.156	78.5506	785.156	79.5882	785.156	78.0117	785.156	78.3011	785.156	78.1017	785.156	77.2626	785.156	78.5824	785.156	76.5014	785.156	79.064	785.156	76.1607	785.156	79.3764	785.156	76.5606	785.156	79.543	785.156	77.567	785.156	79.5587	785.156	78.6105	785.156	79.2934
811.523	87.6047	811.523	87.2179	811.523	87.7594	811.523	86.6101	811.523	87.6769	811.523	85.8524	811.523	87.3207	811.523	85.0442	811.523	86.6819	811.523	84.1993	811.523	85.8419	811.523	83.2043	811.523	84.8897	811.523	81.9608	811.523	83.8494	811.523	80.5713	811.523	82.7576	811.523	79.3059	811.523	81.6143	811.523	78.361	811.523	80.3311	811.523	77.7767	811.523	78.9141	811.523	77.4935	811.523	77.4431	811.523	77.4942	811.523	75.7733	811.523	77.933	811.523	74.4185	811.523	78.8267	811.523	75.482	811.523	79.8229	811.523	77.9533	811.523	80.4966	811.523	79.7527	811.523	80.5474
840.82	88.039	840.82	87.834	840.82	87.9362	840.82	87.3602	840.82	87.5758	840.82	86.7142	840.82	87.0449	840.82	85.9233	840.82	86.4205	840.82	84.8856	840.82	85.7429	840.82	83.4896	840.82	85.0147	840.82	81.7638	840.82	84.2953	840.82	79.9611	840.82	83.6997	840.82	78.6268	840.82	83.1604	840.82	78.302	840.82	82.4214	840.82	78.8003	840.82	81.3757	840.82	79.3478	840.82	80.1977	840.82	79.4217	840.82	78.8932	840.82	79.0958	840.82	77.1047	840.82	78.9093	840.82	75.6144	840.82	79.287	840.82	76.8275	840.82	79.8914	840.82	78.9347	840.82	79.9636
870.117	88.5167	870.117	88.3818	870.117	88.2751	870.117	87.8814	870.117	87.6944	870.117	87.0401	870.117	86.9008	870.117	85.9062	870.117	86.0656	870.117	84.6194	870.117	85.179	870.117	83.3752	870.117	83.9932	870.117	82.2478	870.117	82.5302	870.117	81.22	870.117	81.5248	870.117	80.3339	870.117	81.5723	870.117	79.6147	870.117	82.0535	870.117	79.0329	870.117	82.2778	870.117	78.583	870.117	82.1748	870.117	78.2861	870.117	81.6957	870.117	78.2683	870.117	80.5022	870.117	78.7705	870.117	78.7403	870.117	79.7564	870.117	78.3951	870.117	80.6692	870.117	79.8608	870.117	80.828
900.879	89.3884	900.879	89.4699	900.879	88.9721	900.879	89.1549	900.879	88.3317	900.879	88.3787	900.879	87.6287	900.879	87.0531	900.879	86.932	900.879	85.1626	900.879	86.0731	900.879	83.0048	900.879	84.8427	900.879	81.2143	900.879	83.3324	900.879	80.0856	900.879	81.8725	900.879	79.4746	900.879	80.668	900.879	79.3816	900.879	79.8176	900.879	79.8084	900.879	79.6818	900.879	80.3946	900.879	80.4199	900.879	80.6016	900.879	81.2285	900.879	80.3017	900.879	81.227	900.879	80.0803	900.879	80.4149	900.879	80.6576	900.879	80.1748	900.879	81.5777	900.879	81.1592	900.879	81.867
933.105	88.9252	933.105	88.9301	933.105	88.5658	933.105	88.5954	933.105	87.9042	933.105	87.9083	933.105	87.127	933.105	86.8147	933.105	86.3844	933.105	85.2487	933.105	85.5594	933.105	83.205	933.105	84.4605	933.105	80.9583	933.105	83.1546	933.105	79.2308	933.105	81.9157	933.105	78.5604	933.105	81.006	933.105	78.4246	933.105	80.4099	933.105	78.2762	933.105	80.0713	933.105	78.4	933.105	80.3692	933.105	78.9517	933.105	80.9926	933.105	79.4451	933.105	80.8704	933.105	79.6276	933.105	79.6328	933.105	79.7753	933.105	78.4767	933.105	80.0226	933.105	78.9839	933.105	79.8652
965.332	88.5098	965.332	88.7131	965.332	88.1137	965.332	88.5751	965.332	87.6103	965.332	87.9253	965.332	87.0376	965.332	86.6669	965.332	86.4157	965.332	84.886	965.332	85.7057	965.332	82.9142	965.332	84.7732	965.332	81.256	965.332	83.5338	965.332	80.2667	965.332	82.0708	965.332	79.7546	965.332	80.6042	965.332	79.1487	965.332	79.4518	965.332	78.1965	965.332	78.6366	965.332	77.5369	965.332	78.2434	965.332	77.9172	965.332	78.5394	965.332	78.6567	965.332	78.9066	965.332	79.0142	965.332	78.8059	965.332	79.1664	965.332	78.8801	965.332	79.5549	965.332	79.5155	965.332	79.8547
1,000.49	88.1031	1,000.49	88.2956	1,000.49	87.5817	1,000.49	88.0444	1,000.49	86.8981	1,000.49	87.2793	1,000.49	86.2004	1,000.49	85.9794	1,000.49	85.4868	1,000.49	84.1902	1,000.49	84.6531	1,000.49	82.0225	1,000.49	83.7137	1,000.49	79.7438	1,000.49	82.7951	1,000.49	78.0395	1,000.49	81.939	1,000.49	77.7092	1,000.49	81.0281	1,000.49	78.1908	1,000.49	79.7892	1,000.49	78.2951	1,000.49	78.376	1,000.49	77.8659	1,000.49	78.1409	1,000.49	77.6193	1,000.49	78.9306	1,000.49	78.0293	1,000.49	78.6053	1,000.49	78.5805	1,000.49	76.8412	1,000.49	78.7645	1,000.49	75.9077	1,000.49	78.5796	1,000.49	76.9526	1,000.49	78.0306
1,035.64	87.8257	1,035.64	88.0532	1,035.64	87.2331	1,035.64	87.8275	1,035.64	86.3899	1,035.64	86.9968	1,035.64	85.5214	1,035.64	85.4212	1,035.64	84.8654	1,035.64	83.1444	1,035.64	84.4317	1,035.64	80.4002	1,035.64	83.9181	1,035.64	77.2552	1,035.64	82.985	1,035.64	73.5549	1,035.64	81.6971	1,035.64	71.3895	1,035.64	80.6555	1,035.64	73.7448	1,035.64	79.8293	1,035.64	76.2166	1,035.64	78.2094	1,035.64	77.1336	1,035.64	76.3078	1,035.64	77.0774	1,035.64	76.9296	1,035.64	77.3434	1,035.64	77.8768	1,035.64	78.4241	1,035.64	76.9684	1,035.64	79.4923	1,035.64	75.9836	1,035.64	79.8259	1,035.64	77.4505	1,035.64	79.1488
1,072.27	88.026	1,072.27	87.8152	1,072.27	87.7397	1,072.27	87.1991	1,072.27	87.0016	1,072.27	86.3458	1,072.27	85.9283	1,072.27	85.2843	1,072.27	84.6651	1,072.27	83.8177	1,072.27	83.4928	1,072.27	81.7927	1,072.27	82.7415	1,072.27	79.4756	1,072.27	82.2425	1,072.27	77.6621	1,072.27	81.375	1,072.27	76.9556	1,072.27	79.9106	1,072.27	76.5802	1,072.27	78.544	1,072.27	75.5432	1,072.27	78.1786	1,072.27	73.8588	1,072.27	78.4994	1,072.27	72.5808	1,072.27	78.9622	1,072.27	73.3325	1,072.27	78.9257	1,072.27	75.6348	1,072.27	77.4741	1,072.27	77.6221	1,072.27	75.198	1,072.27	78.5001	1,072.27	75.9597	1,072.27	77.9434
1,108.89	88.1074	1,108.89	87.9365	1,108.89	87.4467	1,108.89	86.9712	1,108.89	86.3927	1,108.89	85.6095	1,108.89	85.3379	1,108.89	84.1951	1,108.89	84.1891	1,108.89	82.7407	1,108.89	83.0374	1,108.89	81.2029	1,108.89	82.2337	1,108.89	79.862	1,108.89	81.6378	1,108.89	78.9031	1,108.89	80.8782	1,108.89	77.9328	1,108.89	79.8349	1,108.89	76.8986	1,108.89	78.709	1,108.89	76.0889	1,108.89	77.7294	1,108.89	75.3287	1,108.89	76.7942	1,108.89	74.7494	1,108.89	76.7632	1,108.89	75.0852	1,108.89	77.7213	1,108.89	76.3063	1,108.89	77.9425	1,108.89	77.3095	1,108.89	77.3931	1,108.89	77.6637	1,108.89	77.235	1,108.89	77.5299
1,148.44	87.9664	1,148.44	87.8244	1,148.44	87.4659	1,148.44	87.0999	1,148.44	86.4545	1,148.44	85.889	1,148.44	85.2513	1,148.44	84.2179	1,148.44	83.9809	1,148.44	82.1918	1,148.44	82.6729	1,148.44	80.4387	1,148.44	81.8387	1,148.44	79.7263	1,148.44	81.3256	1,148.44	79.4529	1,148.44	80.1173	1,148.44	78.1353	1,148.44	78.2768	1,148.44	75.8417	1,148.44	77.6752	1,148.44	74.986	1,148.44	78.3819	1,148.44	75.68	1,148.44	77.9529	1,148.44	75.4136	1,148.44	77.304	1,148.44	73.2407	1,148.44	78.1713	1,148.44	73.3616	1,148.44	77.8976	1,148.44	76.1122	1,148.44	76.3595	1,148.44	77.5809	1,148.44	76.4234	1,148.44	77.5174
1,189.45	87.9552	1,189.45	87.5761	1,189.45	87.5609	1,189.45	86.6705	1,189.45	86.3516	1,189.45	85.3083	1,189.45	84.6665	1,189.45	83.5108	1,189.45	82.813	1,189.45	81.8224	1,189.45	81.0255	1,189.45	80.7668	1,189.45	79.9567	1,189.45	79.6967	1,189.45	79.9072	1,189.45	78.1512	1,189.45	79.9723	1,189.45	76.8161	1,189.45	79.2738	1,189.45	75.4451	1,189.45	77.9574	1,189.45	74.7401	1,189.45	76.784	1,189.45	75.2911	1,189.45	75.1759	1,189.45	75.3151	1,189.45	74.4273	1,189.45	73.5035	1,189.45	76.029	1,189.45	72.5611	1,189.45	75.9834	1,189.45	75.0617	1,189.45	74.9807	1,189.45	77.484	1,189.45	76.7379	1,189.45	78.1613
1,230.47	87.7316	1,230.47	87.7087	1,230.47	87.0274	1,230.47	86.9984	1,230.47	85.8906	1,230.47	85.6809	1,230.47	84.8161	1,230.47	84.0125	1,230.47	83.5842	1,230.47	82.5435	1,230.47	81.7389	1,230.47	81.3601	1,230.47	80.1326	1,230.47	79.3944	1,230.47	79.4099	1,230.47	75.9873	1,230.47	78.3345	1,230.47	72.502	1,230.47	76.5621	1,230.47	71.6223	1,230.47	76.1195	1,230.47	74.1561	1,230.47	76.4074	1,230.47	76.8933	1,230.47	74.2693	1,230.47	77.4512	1,230.47	73.6905	1,230.47	75.8678	1,230.47	75.6201	1,230.47	73.6656	1,230.47	75.5022	1,230.47	75.1382	1,230.47	74.6895	1,230.47	77.1551	1,230.47	75.3684	1,230.47	76.9264
1,274.41	86.8544	1,274.41	86.996	1,274.41	86.3873	1,274.41	86.7688	1,274.41	85.4029	1,274.41	85.7473	1,274.41	84.1683	1,274.41	83.8511	1,274.41	82.9992	1,274.41	81.8368	1,274.41	81.8039	1,274.41	80.4249	1,274.41	80.593	1,274.41	78.9794	1,274.41	79.0475	1,274.41	76.4191	1,274.41	77.7765	1,274.41	73.1782	1,274.41	77.5685	1,274.41	69.4464	1,274.41	77.3988	1,274.41	68.2459	1,274.41	76.7074	1,274.41	72.839	1,274.41	75.6883	1,274.41	75.3267	1,274.41	74.8954	1,274.41	75.6329	1,274.41	74.576	1,274.41	73.9027	1,274.41	74.5161	1,274.41	73.4038	1,274.41	74.4354	1,274.41	75.2758	1,274.41	74.8183	1,274.41	75.7038
1,319.82	86.5199	1,319.82	86.4989	1,319.82	85.9962	1,319.82	86.1114	1,319.82	85.0644	1,319.82	85.2126	1,319.82	83.8721	1,319.82	83.7871	1,319.82	82.0148	1,319.82	82.1558	1,319.82	80.4649	1,319.82	80.0887	1,319.82	79.5525	1,319.82	77.5809	1,319.82	78.0034	1,319.82	74.364	1,319.82	76.2218	1,319.82	72.3897	1,319.82	74.282	1,319.82	72.1896	1,319.82	74.6528	1,319.82	70.9587	1,319.82	76.3616	1,319.82	72.3073	1,319.82	75.7457	1,319.82	74.7924	1,319.82	72.2449	1,319.82	74.301	1,319.82	73.992	1,319.82	70.4125	1,319.82	75.2679	1,319.82	70.1923	1,319.82	73.6969	1,319.82	74.2501	1,319.82	74.2411	1,319.82	75.4607
1,366.7	85.9579	1,366.7	86.4104	1,366.7	85.2852	1,366.7	86.0966	1,366.7	84.2775	1,366.7	85.0109	1,366.7	82.1702	1,366.7	83.6993	1,366.7	79.7216	1,366.7	82.0807	1,366.7	78.7103	1,366.7	79.6449	1,366.7	78.1913	1,366.7	76.3509	1,366.7	77.7864	1,366.7	73.4435	1,366.7	77.554	1,366.7	73.6136	1,366.7	76.2139	1,366.7	73.9715	1,366.7	75.2674	1,366.7	70.9245	1,366.7	76.3954	1,366.7	67.7353	1,366.7	74.3761	1,366.7	73.7899	1,366.7	71.9097	1,366.7	73.6429	1,366.7	74.7762	1,366.7	70.3107	1,366.7	72.4484	1,366.7	70.3032	1,366.7	70.2633	1,366.7	73.8038	1,366.7	73.5099	1,366.7	75.0534
1,413.57	86.4898	1,413.57	86.1244	1,413.57	85.3687	1,413.57	85.0248	1,413.57	83.5093	1,413.57	84.3629	1,413.57	82.7355	1,413.57	83.9936	1,413.57	81.8847	1,413.57	82.2914	1,413.57	80.437	1,413.57	77.8633	1,413.57	77.972	1,413.57	71.8499	1,413.57	74.8615	1,413.57	72.1379	1,413.57	75.8784	1,413.57	73.651	1,413.57	75.8297	1,413.57	73.7719	1,413.57	75.2132	1,413.57	71.2575	1,413.57	75.5312	1,413.57	65.7405	1,413.57	73.3445	1,413.57	69.5558	1,413.57	74.3064	1,413.57	74.8569	1,413.57	70.6723	1,413.57	76.6126	1,413.57	71.326	1,413.57	74.2621	1,413.57	73.0701	1,413.57	73.5045	1,413.57	69.9769	1,413.57	72.4875
1,463.38	86.8874	1,463.38	86.5948	1,463.38	86.0274	1,463.38	85.2083	1,463.38	84.5826	1,463.38	83.3601	1,463.38	82.7352	1,463.38	82.2495	1,463.38	80.1574	1,463.38	81.2637	1,463.38	79.4735	1,463.38	78.153	1,463.38	79.1849	1,463.38	72.5643	1,463.38	76.7609	1,463.38	72.3236	1,463.38	74.615	1,463.38	75.1991	1,463.38	74.4309	1,463.38	74.4044	1,463.38	73.8514	1,463.38	71.7602	1,463.38	74.4446	1,463.38	63.3196	1,463.38	73.831	1,463.38	63.4429	1,463.38	70.9587	1,463.38	69.5614	1,463.38	69.8603	1,463.38	73.0989	1,463.38	67.0695	1,463.38	71.8756	1,463.38	73.6564	1,463.38	71.137	1,463.38	72.7918	1,463.38	69.952
1,516.11	87.396	1,516.11	86.5608	1,516.11	86.5389	1,516.11	85.0732	1,516.11	84.3823	1,516.11	83.8333	1,516.11	82.8755	1,516.11	82.6802	1,516.11	80.4215	1,516.11	80.1987	1,516.11	78.109	1,516.11	75.5551	1,516.11	77.1216	1,516.11	70.9291	1,516.11	76.1391	1,516.11	70.9632	1,516.11	74.9185	1,516.11	74.8039	1,516.11	69.404	1,516.11	74.8679	1,516.11	69.7798	1,516.11	71.654	1,516.11	74.3887	1,516.11	64.0563	1,516.11	70.7016	1,516.11	64.4392	1,516.11	70.5114	1,516.11	71.0494	1,516.11	72.6461	1,516.11	73.7038	1,516.11	67.894	1,516.11	69.5596	1,516.11	71.174	1,516.11	68.0727	1,516.11	74.0975	1,516.11	71.4671
1,568.85	87.2799	1,568.85	87.0401	1,568.85	86.1645	1,568.85	85.3887	1,568.85	84.7615	1,568.85	82.662	1,568.85	82.2856	1,568.85	80.4685	1,568.85	77.7511	1,568.85	78.8545	1,568.85	79.0757	1,568.85	75.5518	1,568.85	78.0282	1,568.85	72.3992	1,568.85	76.5956	1,568.85	70.958	1,568.85	76.5298	1,568.85	73.5194	1,568.85	73.2897	1,568.85	75.0712	1,568.85	70.7407	1,568.85	74.3999	1,568.85	77.0078	1,568.85	73.2329	1,568.85	74.0153	1,568.85	70.2103	1,568.85	66.0446	1,568.85	70.797	1,568.85	70.1515	1,568.85	71.5238	1,568.85	69.6115	1,568.85	63.5141	1,568.85	70.1296	1,568.85	66.7665	1,568.85	73.2193	1,568.85	73.4296
1,624.51	86.878	1,624.51	86.7043	1,624.51	85.4084	1,624.51	85.2594	1,624.51	83.5253	1,624.51	83.3542	1,624.51	81.3762	1,624.51	80.1275	1,624.51	78.9755	1,624.51	75.7263	1,624.51	80.9544	1,624.51	74.2805	1,624.51	80.1718	1,624.51	73.1178	1,624.51	79.0484	1,624.51	70.1417	1,624.51	78.4074	1,624.51	73.3435	1,624.51	76.7484	1,624.51	72.503	1,624.51	75.0597	1,624.51	74.694	1,624.51	72.815	1,624.51	73.3967	1,624.51	71.1919	1,624.51	70.2594	1,624.51	65.5629	1,624.51	68.938	1,624.51	69.0485	1,624.51	72.2752	1,624.51	72.9193	1,624.51	68.8216	1,624.51	69.3686	1,624.51	65.9968	1,624.51	70.8694	1,624.51	69.2033
1,681.64	85.3869	1,681.64	85.6361	1,681.64	84.6156	1,681.64	84.899	1,681.64	82.5459	1,681.64	82.0659	1,681.64	80.308	1,681.64	76.6612	1,681.64	79.1098	1,681.64	69.9613	1,681.64	78.1223	1,681.64	72.2158	1,681.64	75.5014	1,681.64	75.4863	1,681.64	79.3998	1,681.64	71.9071	1,681.64	80.0393	1,681.64	69.6907	1,681.64	75.5852	1,681.64	67.4315	1,681.64	73.604	1,681.64	67.9312	1,681.64	74.4092	1,681.64	72.1979	1,681.64	71.9312	1,681.64	71.761	1,681.64	69.2174	1,681.64	68.0282	1,681.64	64.099	1,681.64	68.4814	1,681.64	67.8327	1,681.64	68.8321	1,681.64	68.1232	1,681.64	69.2354	1,681.64	69.9939	1,681.64	71.4442
1,741.7	85.4383	1,741.7	85.0297	1,741.7	84.3482	1,741.7	84.4314	1,741.7	81.5374	1,741.7	82.9761	1,741.7	79.1119	1,741.7	78.1049	1,741.7	74.2149	1,741.7	65.5438	1,741.7	72.783	1,741.7	59.3389	1,741.7	77.7848	1,741.7	74.9328	1,741.7	79.8411	1,741.7	75.334	1,741.7	78.0347	1,741.7	65.996	1,741.7	75.4356	1,741.7	63.3949	1,741.7	73.9937	1,741.7	62.4777	1,741.7	74.753	1,741.7	67.1373	1,741.7	74.6004	1,741.7	70.5263	1,741.7	72.1585	1,741.7	67.8222	1,741.7	68.6274	1,741.7	67.6026	1,741.7	58.0426	1,741.7	68.0886	1,741.7	67.761	1,741.7	65.3472	1,741.7	68.8445	1,741.7	68.6275
1,803.22	86.2267	1,803.22	85.1339	1,803.22	84.6054	1,803.22	83.5992	1,803.22	81.0117	1,803.22	82.2369	1,803.22	76.4094	1,803.22	78.7914	1,803.22	68.604	1,803.22	73.9205	1,803.22	78.0622	1,803.22	67.7531	1,803.22	78.7014	1,803.22	74.1533	1,803.22	78.3551	1,803.22	70.5937	1,803.22	78.3286	1,803.22	68.327	1,803.22	77.6646	1,803.22	68.4547	1,803.22	75.1213	1,803.22	61.9211	1,803.22	71.5632	1,803.22	66.5407	1,803.22	65.5994	1,803.22	70.6232	1,803.22	66.7389	1,803.22	68.6259	1,803.22	74.5078	1,803.22	65.0871	1,803.22	67.5711	1,803.22	66.4848	1,803.22	68.7521	1,803.22	63.0536	1,803.22	71.2893	1,803.22	65.3151
1,866.21	86.0428	1,866.21	85.4378	1,866.21	85.1996	1,866.21	83.3297	1,866.21	81.6081	1,866.21	78.1594	1,866.21	70.8155	1,866.21	70.7912	1,866.21	75.8844	1,866.21	71.8476	1,866.21	78.2782	1,866.21	70.8869	1,866.21	78.4989	1,866.21	65.348	1,866.21	76.867	1,866.21	65.8859	1,866.21	75.4707	1,866.21	71.5802	1,866.21	75.3943	1,866.21	73.3299	1,866.21	71.8414	1,866.21	69.4466	1,866.21	73.356	1,866.21	66.7095	1,866.21	75.3523	1,866.21	60.8192	1,866.21	70.9368	1,866.21	59.6044	1,866.21	71.051	1,866.21	66.6647	1,866.21	69.7233	1,866.21	64.5435	1,866.21	57.1455	1,866.21	62.1925	1,866.21	70.28	1,866.21	70.2275
1,932.13	85.8999	1,932.13	85.8144	1,932.13	85.1621	1,932.13	83.3269	1,932.13	81.1685	1,932.13	76.04	1,932.13	75.3409	1,932.13	67.1907	1,932.13	76.7924	1,932.13	70.4235	1,932.13	78.601	1,932.13	70.9557	1,932.13	80.6683	1,932.13	69.6842	1,932.13	77.058	1,932.13	73.6626	1,932.13	73.0054	1,932.13	75.0258	1,932.13	75.5516	1,932.13	75.1246	1,932.13	68.5467	1,932.13	76.6068	1,932.13	73.5173	1,932.13	72.4568	1,932.13	76.7495	1,932.13	68.5385	1,932.13	73.2112	1,932.13	63.8934	1,932.13	70.7015	1,932.13	63.5772	1,932.13	68.6313	1,932.13	60.5856	1,932.13	54.2731	1,932.13	60.8851	1,932.13	66.4683	1,932.13	66.9901
1,999.51	85.5378	1,999.51	85.5313	1,999.51	83.5505	1,999.51	82.299	1,999.51	81.4754	1,999.51	78.3299	1,999.51	71.0028	1,999.51	76.165	1,999.51	79.4246	1,999.51	55.765	1,999.51	80.7954	1,999.51	72.6112	1,999.51	76.9705	1,999.51	70.7893	1,999.51	76.6716	1,999.51	76.2442	1,999.51	76.4807	1,999.51	74.9969	1,999.51	76.0973	1,999.51	69.0379	1,999.51	72.3709	1,999.51	68.1588	1,999.51	71.0982	1,999.51	71.089	1,999.51	69.9327	1,999.51	70.8927	1,999.51	71.4473	1,999.51	71.6922	1,999.51	72.9746	1,999.51	68.2924	1,999.51	68.2361	1,999.51	58.6086	1,999.51	67.7582	1,999.51	60.7544	1,999.51	69.6909	1,999.51	66.9956
2,069.82	85.1532	2,069.82	84.4873	2,069.82	83.3084	2,069.82	80.9421	2,069.82	78.6589	2,069.82	76.1988	2,069.82	42.9813	2,069.82	73.099	2,069.82	76.692	2,069.82	65.973	2,069.82	78.3576	2,069.82	65.9405	2,069.82	80.0612	2,069.82	73.8259	2,069.82	80.3567	2,069.82	77.4145	2,069.82	76.8324	2,069.82	73.5548	2,069.82	75.9311	2,069.82	66.2016	2,069.82	73.5607	2,069.82	74.968	2,069.82	73.8549	2,069.82	76.018	2,069.82	75.088	2,069.82	65.5128	2,069.82	72.607	2,069.82	62.3364	2,069.82	71.5319	2,069.82	63.4184	2,069.82	69.4641	2,069.82	64.1335	2,069.82	59.6444	2,069.82	59.225	2,069.82	70.474	2,069.82	65.6029
2,143.07	85.8254	2,143.07	84.0115	2,143.07	83.9122	2,143.07	81.032	2,143.07	76.634	2,143.07	77.6973	2,143.07	71.7695	2,143.07	61.6348	2,143.07	79.8171	2,143.07	70.8918	2,143.07	79.8846	2,143.07	72.9429	2,143.07	80.5732	2,143.07	76.0054	2,143.07	80.4105	2,143.07	74.2531	2,143.07	77.0949	2,143.07	74.1865	2,143.07	76.6344	2,143.07	74.5025	2,143.07	73.7485	2,143.07	71.4167	2,143.07	71.3635	2,143.07	73.7028	2,143.07	76.049	2,143.07	67.7421	2,143.07	72.518	2,143.07	55.0226	2,143.07	68.5832	2,143.07	66.2579	2,143.07	68.9532	2,143.07	67.1631	2,143.07	49.4595	2,143.07	62.7237	2,143.07	72.9744	2,143.07	65.5141
2,219.24	86.6876	2,219.24	85.4651	2,219.24	83.8638	2,219.24	81.2736	2,219.24	75.4562	2,219.24	74.0068	2,219.24	63.8217	2,219.24	57.9689	2,219.24	75.7063	2,219.24	50.8056	2,219.24	81.0497	2,219.24	71.3917	2,219.24	81.7258	2,219.24	76.0596	2,219.24	79.459	2,219.24	68.6541	2,219.24	76.1714	2,219.24	58.1509	2,219.24	74.6868	2,219.24	68.4608	2,219.24	76.0173	2,219.24	72.9591	2,219.24	73.3058	2,219.24	58.914	2,219.24	74.1345	2,219.24	70.2566	2,219.24	68.7775	2,219.24	62.3775	2,219.24	70.2208	2,219.24	67.6354	2,219.24	61.5517	2,219.24	66.0451	2,219.24	67.0168	2,219.24	71.2697	2,219.24	69.2817	2,219.24	68.7781
2,296.88	85.7233	2,296.88	84.6763	2,296.88	83.7363	2,296.88	80.432	2,296.88	75.6083	2,296.88	71.6443	2,296.88	72.8053	2,296.88	68.4565	2,296.88	79.3483	2,296.88	71.1125	2,296.88	79.4209	2,296.88	77.1672	2,296.88	80.6863	2,296.88	73.9803	2,296.88	79.8728	2,296.88	61.3531	2,296.88	78.4218	2,296.88	73.2648	2,296.88	75.652	2,296.88	71.0482	2,296.88	71.7002	2,296.88	72.4446	2,296.88	71.2736	2,296.88	72.1188	2,296.88	72.0549	2,296.88	75.0277	2,296.88	73.6989	2,296.88	70.2474	2,296.88	70.2493	2,296.88	62.6404	2,296.88	68.6239	2,296.88	62.5816	2,296.88	61.9418	2,296.88	69.0223	2,296.88	65.6611	2,296.88	66.6887
2,378.91	84.512	2,378.91	82.9352	2,378.91	82.4862	2,378.91	78.7942	2,378.91	74.9894	2,378.91	71.8092	2,378.91	69.2022	2,378.91	66.065	2,378.91	79.7455	2,378.91	72.697	2,378.91	79.9047	2,378.91	75.6328	2,378.91	78.7256	2,378.91	70.4289	2,378.91	78.2425	2,378.91	75.6758	2,378.91	76.3192	2,378.91	77.0957	2,378.91	70.7391	2,378.91	73.1553	2,378.91	70.2517	2,378.91	74.9458	2,378.91	71.0645	2,378.91	67.3556	2,378.91	71.1567	2,378.91	60.8077	2,378.91	72.6126	2,378.91	66.9315	2,378.91	69.9839	2,378.91	66.6446	2,378.91	70.9681	2,378.91	67.6015	2,378.91	63.1402	2,378.91	55.6933	2,378.91	67.4552	2,378.91	66.3519
2,462.4	84.8414	2,462.4	82.7579	2,462.4	83.2101	2,462.4	78.4926	2,462.4	74.6153	2,462.4	71.7827	2,462.4	75.3302	2,462.4	72.5643	2,462.4	80.7929	2,462.4	77.4431	2,462.4	80.7052	2,462.4	75.8328	2,462.4	80.4072	2,462.4	74.761	2,462.4	77.058	2,462.4	75.107	2,462.4	73.3643	2,462.4	74.0215	2,462.4	72.6696	2,462.4	72.2457	2,462.4	71.4233	2,462.4	71.9263	2,462.4	70.7946	2,462.4	68.7267	2,462.4	69.8567	2,462.4	68.98	2,462.4	72.4409	2,462.4	69.3127	2,462.4	69.0471	2,462.4	63.1624	2,462.4	64.8639	2,462.4	60.9056	2,462.4	58.859	2,462.4	60.1003	2,462.4	66.1077	2,462.4	67.4531
2,548.83	86.5974	2,548.83	85.1392	2,548.83	84.8619	2,548.83	80.6865	2,548.83	77.5355	2,548.83	72.9934	2,548.83	77.0655	2,548.83	77.4375	2,548.83	81.9306	2,548.83	77.9959	2,548.83	82.5283	2,548.83	76.4873	2,548.83	81.4296	2,548.83	76.5787	2,548.83	76.8592	2,548.83	73.964	2,548.83	75.161	2,548.83	73.7557	2,548.83	74.301	2,548.83	72.6192	2,548.83	67.0636	2,548.83	70.4324	2,548.83	65.3832	2,548.83	70.3838	2,548.83	71.2801	2,548.83	68.5713	2,548.83	72.1321	2,548.83	69.2579	2,548.83	70.045	2,548.83	66.1818	2,548.83	64.3132	2,548.83	64.2211	2,548.83	62.2066	2,548.83	63.6206	2,548.83	69.2371	2,548.83	69.4996
2,639.65	86.6418	2,639.65	85.9022	2,639.65	85.2761	2,639.65	82.1893	2,639.65	79.9309	2,639.65	78.8006	2,639.65	76.4448	2,639.65	78.7529	2,639.65	82.0839	2,639.65	78.0725	2,639.65	83.8447	2,639.65	79.0857	2,639.65	81.1863	2,639.65	78.4099	2,639.65	78.4081	2,639.65	75.3618	2,639.65	76.6263	2,639.65	71.9552	2,639.65	74.518	2,639.65	72.2633	2,639.65	70.7969	2,639.65	71.5211	2,639.65	67.6581	2,639.65	68.7371	2,639.65	70.1312	2,639.65	71.2588	2,639.65	73.0006	2,639.65	70.2678	2,639.65	68.979	2,639.65	66.3814	2,639.65	65.5484	2,639.65	64.4533	2,639.65	64.0441	2,639.65	68.9091	2,639.65	70.1198	2,639.65	70.3673
2,731.93	86.4453	2,731.93	85.4623	2,731.93	84.815	2,731.93	82.6589	2,731.93	80.8232	2,731.93	80.6543	2,731.93	78.7704	2,731.93	80.2917	2,731.93	82.0269	2,731.93	80.4566	2,731.93	84.1059	2,731.93	79.8106	2,731.93	81.7259	2,731.93	77.8524	2,731.93	78.8022	2,731.93	75.8629	2,731.93	74.2769	2,731.93	74.8209	2,731.93	71.2209	2,731.93	73.6667	2,731.93	62.9905	2,731.93	72.6724	2,731.93	67.2382	2,731.93	71.8875	2,731.93	71.2237	2,731.93	70.1261	2,731.93	73.3567	2,731.93	71.0437	2,731.93	68.9507	2,731.93	67.9208	2,731.93	61.845	2,731.93	63.6996	2,731.93	67.3963	2,731.93	67.8507	2,731.93	70.3139	2,731.93	71.0111
2,828.61	86.3407	2,828.61	85.4469	2,828.61	84.299	2,828.61	82.7656	2,828.61	80.6653	2,828.61	80.8493	2,828.61	81.4434	2,828.61	80.8795	2,828.61	83.2536	2,828.61	81.0625	2,828.61	83.3183	2,828.61	79.2678	2,828.61	80.8729	2,828.61	77.9336	2,828.61	80.1954	2,828.61	77.4218	2,828.61	74.8448	2,828.61	75.8005	2,828.61	68.37	2,828.61	74.3327	2,828.61	69.3735	2,828.61	72.5533	2,828.61	67.6049	2,828.61	70.2588	2,828.61	72.4136	2,828.61	69.7926	2,828.61	72.0589	2,828.61	69.9966	2,828.61	69.3754	2,828.61	65.8687	2,828.61	61.6575	2,828.61	63.4013	2,828.61	69.0175	2,828.61	66.4213	2,828.61	69.9027	2,828.61	70.6803
2,928.22	86.5376	2,928.22	86.476	2,928.22	84.4406	2,928.22	83.9164	2,928.22	81.2551	2,928.22	80.8124	2,928.22	82.5937	2,928.22	80.2361	2,928.22	83.8213	2,928.22	80.7414	2,928.22	82.2131	2,928.22	79.5912	2,928.22	81.0024	2,928.22	79.0436	2,928.22	80.2365	2,928.22	77.7312	2,928.22	72.4423	2,928.22	73.5279	2,928.22	59.6211	2,928.22	72.5233	2,928.22	72.3394	2,928.22	71.9619	2,928.22	73.1883	2,928.22	70.8481	2,928.22	70.9748	2,928.22	68.5312	2,928.22	72.0677	2,928.22	69.758	2,928.22	67.9545	2,928.22	67.8367	2,928.22	64.5569	2,928.22	63.9273	2,928.22	68.5973	2,928.22	64.414	2,928.22	68.7274	2,928.22	70.7951
3,030.76	86.5779	3,030.76	87.1738	3,030.76	83.8577	3,030.76	85.0484	3,030.76	82.194	3,030.76	81.4636	3,030.76	82.1132	3,030.76	80.913	3,030.76	83.5457	3,030.76	81.788	3,030.76	82.3233	3,030.76	81.011	3,030.76	79.9055	3,030.76	78.6598	3,030.76	79.3807	3,030.76	74.9054	3,030.76	67.5598	3,030.76	74.3633	3,030.76	67.217	3,030.76	73.921	3,030.76	73.5176	3,030.76	72.5649	3,030.76	74.5314	3,030.76	70.4148	3,030.76	69.9715	3,030.76	69.9187	3,030.76	72.4716	3,030.76	69.3551	3,030.76	68.1409	3,030.76	67.4798	3,030.76	57.9068	3,030.76	63.8102	3,030.76	65.6861	3,030.76	66.3469	3,030.76	69.6666	3,030.76	70.8164
3,137.7	86.6693	3,137.7	87.1488	3,137.7	83.5868	3,137.7	84.7608	3,137.7	83.2186	3,137.7	81.4711	3,137.7	82.6235	3,137.7	82.1618	3,137.7	82.8228	3,137.7	81.1639	3,137.7	82.4573	3,137.7	80.0005	3,137.7	80.5381	3,137.7	77.2743	3,137.7	78.4838	3,137.7	76.8541	3,137.7	67.3865	3,137.7	76.1917	3,137.7	70.7539	3,137.7	71.8229	3,137.7	72.7566	3,137.7	72.3909	3,137.7	72.1904	3,137.7	69.7241	3,137.7	66.1973	3,137.7	68.7798	3,137.7	70.8421	3,137.7	69.7757	3,137.7	65.0222	3,137.7	68.8086	3,137.7	61.8917	3,137.7	60.5049	3,137.7	66.378	3,137.7	67.2143	3,137.7	70.5494	3,137.7	70.462
3,249.02	86.51	3,249.02	86.9327	3,249.02	83.3591	3,249.02	84.2065	3,249.02	83.474	3,249.02	82.2027	3,249.02	83.4377	3,249.02	82.5381	3,249.02	81.6124	3,249.02	81.3837	3,249.02	82.0086	3,249.02	80.3296	3,249.02	81.7004	3,249.02	79.2876	3,249.02	78.9426	3,249.02	76.9934	3,249.02	74.1143	3,249.02	72.657	3,249.02	74.2735	3,249.02	72.5837	3,249.02	73.9105	3,249.02	72.6173	3,249.02	71.2353	3,249.02	69.7342	3,249.02	65.062	3,249.02	68.591	3,249.02	69.338	3,249.02	69.0714	3,249.02	65.6183	3,249.02	69.9645	3,249.02	57.2517	3,249.02	62.9142	3,249.02	67.5301	3,249.02	65.4639	3,249.02	70.0349	3,249.02	68.9698
3,363.28	86.2622	3,363.28	86.7297	3,363.28	83.3716	3,363.28	83.9999	3,363.28	84.2627	3,363.28	82.1416	3,363.28	84.4679	3,363.28	82.3506	3,363.28	81.471	3,363.28	81.078	3,363.28	80.3233	3,363.28	80.4752	3,363.28	81.7887	3,363.28	78.074	3,363.28	80.616	3,363.28	74.2458	3,363.28	78.1595	3,363.28	75.4493	3,363.28	78.2037	3,363.28	73.1817	3,363.28	75.1123	3,363.28	71.4891	3,363.28	67.3917	3,363.28	69.5782	3,363.28	63.7006	3,363.28	68.6102	3,363.28	66.7284	3,363.28	68.6195	3,363.28	64.7083	3,363.28	68.3382	3,363.28	60.2728	3,363.28	64.9146	3,363.28	68.4798	3,363.28	62.5653	3,363.28	67.7463	3,363.28	68.7923
3,481.93	86.2372	3,481.93	86.7467	3,481.93	82.1344	3,481.93	83.926	3,481.93	83.8731	3,481.93	82.5813	3,481.93	84.6182	3,481.93	82.3043	3,481.93	81.4738	3,481.93	82.346	3,481.93	78.3028	3,481.93	80.5426	3,481.93	81.6438	3,481.93	77.4088	3,481.93	81.3111	3,481.93	76.4831	3,481.93	80.3972	3,481.93	73.8574	3,481.93	80.0502	3,481.93	70.9801	3,481.93	75.3986	3,481.93	70.3763	3,481.93	69.6094	3,481.93	68.7781	3,481.93	64.8723	3,481.93	66.6444	3,481.93	65.8533	3,481.93	67.4073	3,481.93	62.7962	3,481.93	66.9575	3,481.93	59.3038	3,481.93	63.3114	3,481.93	66.6567	3,481.93	63.5802	3,481.93	67.6208	3,481.93	68.1022
3,604.98	87.1232	3,604.98	87.0938	3,604.98	82.7667	3,604.98	84.1795	3,604.98	81.7782	3,604.98	83.23	3,604.98	83.9649	3,604.98	82.9992	3,604.98	81.4789	3,604.98	82.0838	3,604.98	77.4304	3,604.98	79.1035	3,604.98	83.08	3,604.98	77.9499	3,604.98	81.9332	3,604.98	73.1899	3,604.98	81.4026	3,604.98	71.0523	3,604.98	79.7437	3,604.98	71.7247	3,604.98	69.6308	3,604.98	68.4919	3,604.98	69.0739	3,604.98	68.8101	3,604.98	69.0811	3,604.98	64.202	3,604.98	64.1143	3,604.98	66.9047	3,604.98	61.4798	3,604.98	66.6673	3,604.98	56.2896	3,604.98	63.5089	3,604.98	62.4102	3,604.98	65.4417	3,604.98	69.147	3,604.98	68.4165
3,732.42	86.864	3,732.42	86.6913	3,732.42	83.8575	3,732.42	84.2354	3,732.42	82.8869	3,732.42	83.1616	3,732.42	83.7086	3,732.42	82.7962	3,732.42	81.9903	3,732.42	81.7433	3,732.42	79.103	3,732.42	79.2985	3,732.42	83.6562	3,732.42	76.4609	3,732.42	81.7514	3,732.42	74	3,732.42	79.64	3,732.42	74.3602	3,732.42	76.3985	3,732.42	72.2415	3,732.42	59.5847	3,732.42	68.5703	3,732.42	67.5562	3,732.42	68.4952	3,732.42	73.264	3,732.42	65.485	3,732.42	63.6877	3,732.42	68.8266	3,732.42	62.9211	3,732.42	65.1943	3,732.42	56.2089	3,732.42	64.1912	3,732.42	66.2806	3,732.42	61.798	3,732.42	68.9556	3,732.42	66.5711
3,864.26	85.8732	3,864.26	85.0859	3,864.26	82.8793	3,864.26	83.8993	3,864.26	84.7405	3,864.26	82.5431	3,864.26	84.8134	3,864.26	83.2389	3,864.26	80.1201	3,864.26	81.6272	3,864.26	81.4237	3,864.26	78.3467	3,864.26	82.9263	3,864.26	76.5885	3,864.26	81.2515	3,864.26	75.521	3,864.26	79.3355	3,864.26	72.1696	3,864.26	73.5502	3,864.26	71.0431	3,864.26	67.8617	3,864.26	69.6231	3,864.26	70.1587	3,864.26	68.3255	3,864.26	72.4206	3,864.26	65.5999	3,864.26	62.5813	3,864.26	67.358	3,864.26	64.2545	3,864.26	67.4135	3,864.26	61.8752	3,864.26	61.8719	3,864.26	67.7731	3,864.26	56.6542	3,864.26	67.5934	3,864.26	65.9058
4,000.49	86.709	4,000.49	86.4548	4,000.49	83.2767	4,000.49	84.6537	4,000.49	83.8058	4,000.49	82.8856	4,000.49	85.9992	4,000.49	83.7574	4,000.49	80.9074	4,000.49	80.6367	4,000.49	81.5222	4,000.49	79.9942	4,000.49	82.3549	4,000.49	76.9192	4,000.49	79.0757	4,000.49	72.7581	4,000.49	79.93	4,000.49	72.504	4,000.49	75.359	4,000.49	71.7776	4,000.49	72.1886	4,000.49	69.168	4,000.49	71.2729	4,000.49	68.7647	4,000.49	69.9725	4,000.49	65.6234	4,000.49	65.136	4,000.49	63.3345	4,000.49	58.0621	4,000.49	67.7721	4,000.49	62.2051	4,000.49	63.4758	4,000.49	64.7474	4,000.49	62.4696	4,000.49	67.5659	4,000.49	68.4164
4,141.11	86.0084	4,141.11	86.5043	4,141.11	84.6086	4,141.11	83.9715	4,141.11	83.8858	4,141.11	84.0702	4,141.11	86.3412	4,141.11	82.4544	4,141.11	82.6503	4,141.11	80.7993	4,141.11	80.8863	4,141.11	79.3063	4,141.11	82.7271	4,141.11	75.1491	4,141.11	78.3073	4,141.11	75.1907	4,141.11	78.6838	4,141.11	72.655	4,141.11	71.9193	4,141.11	69.4611	4,141.11	70.8661	4,141.11	68.8549	4,141.11	73.1204	4,141.11	67.2504	4,141.11	72.1557	4,141.11	67.551	4,141.11	65.9584	4,141.11	64.8972	4,141.11	56.8559	4,141.11	64.9591	4,141.11	58.776	4,141.11	59.347	4,141.11	59.875	4,141.11	63.8098	4,141.11	68.344	4,141.11	69.2581
4,287.6	86.0271	4,287.6	85.3317	4,287.6	83.9573	4,287.6	82.5944	4,287.6	84.6166	4,287.6	83.726	4,287.6	86.4026	4,287.6	82.5007	4,287.6	83.7073	4,287.6	81.7298	4,287.6	82.0391	4,287.6	77.6027	4,287.6	82.1655	4,287.6	77.0299	4,287.6	79.5563	4,287.6	71.1531	4,287.6	76.6957	4,287.6	72.3198	4,287.6	68.1249	4,287.6	72.2385	4,287.6	67.0667	4,287.6	69.7213	4,287.6	72.4579	4,287.6	68.736	4,287.6	72.7248	4,287.6	64.5605	4,287.6	64.3419	4,287.6	63.2025	4,287.6	62.1077	4,287.6	65.3576	4,287.6	63.5916	4,287.6	59.7705	4,287.6	64.215	4,287.6	56.505	4,287.6	67.5887	4,287.6	67.1696
4,438.48	86.1873	4,438.48	85.9256	4,438.48	83.4527	4,438.48	84.7302	4,438.48	84.0419	4,438.48	83.4407	4,438.48	85.3791	4,438.48	82.8159	4,438.48	83.688	4,438.48	80.1794	4,438.48	80.8465	4,438.48	77.9081	4,438.48	81.8771	4,438.48	75.1773	4,438.48	81.2832	4,438.48	72.9859	4,438.48	68.0781	4,438.48	72.6233	4,438.48	69.8477	4,438.48	70.2262	4,438.48	62.3076	4,438.48	70.3113	4,438.48	70.463	4,438.48	68.0182	4,438.48	74.1657	4,438.48	67.2354	4,438.48	60.7432	4,438.48	64.6058	4,438.48	63.5654	4,438.48	64.8236	4,438.48	65.2634	4,438.48	57.2068	4,438.48	64.266	4,438.48	53.4895	4,438.48	68.051	4,438.48	66.0054
4,595.21	86.9515	4,595.21	85.7107	4,595.21	84.7163	4,595.21	83.5605	4,595.21	82.5038	4,595.21	83.7034	4,595.21	84.8438	4,595.21	82.6848	4,595.21	83.4877	4,595.21	80.5381	4,595.21	80.5014	4,595.21	76.9184	4,595.21	81.2763	4,595.21	76.4221	4,595.21	78.7224	4,595.21	73.2042	4,595.21	71.5016	4,595.21	70.4841	4,595.21	67.552	4,595.21	71.3739	4,595.21	56.8356	4,595.21	67.937	4,595.21	64.2204	4,595.21	67.6213	4,595.21	72.9887	4,595.21	64.4851	4,595.21	66.387	4,595.21	64.2563	4,595.21	60.8738	4,595.21	66.3779	4,595.21	69.3565	4,595.21	61.3716	4,595.21	65.7938	4,595.21	52.9574	4,595.21	64.5736	4,595.21	65.3069
4,756.35	85.3854	4,756.35	84.9487	4,756.35	85.356	4,756.35	84.0896	4,756.35	83.7273	4,756.35	83.9235	4,756.35	84.5013	4,756.35	82.7211	4,756.35	82.7868	4,756.35	79.171	4,756.35	78.6574	4,756.35	78.7148	4,756.35	79.6521	4,756.35	75.6193	4,756.35	75.2933	4,756.35	72.9021	4,756.35	74.2452	4,756.35	72.2087	4,756.35	71.3462	4,756.35	68.801	4,756.35	58.6505	4,756.35	69.3429	4,756.35	57.2236	4,756.35	67.9936	4,756.35	70.2286	4,756.35	66.6505	4,756.35	68.5277	4,756.35	62.5326	4,756.35	47.6584	4,756.35	65.2491	4,756.35	68.5987	4,756.35	61.2996	4,756.35	66.3555	4,756.35	54.5462	4,756.35	64.0461	4,756.35	65.729
4,924.8	85.6613	4,924.8	85.0228	4,924.8	84.9782	4,924.8	83.7075	4,924.8	84.0418	4,924.8	84.2152	4,924.8	84.6852	4,924.8	81.8257	4,924.8	81.8956	4,924.8	79.9715	4,924.8	78.1857	4,924.8	77.4258	4,924.8	77.065	4,924.8	75.7365	4,924.8	74.4949	4,924.8	73.3353	4,924.8	72.2915	4,924.8	70.7659	4,924.8	70.5304	4,924.8	71.0202	4,924.8	62.2244	4,924.8	68.0319	4,924.8	56.9827	4,924.8	67.1631	4,924.8	68.2774	4,924.8	67.4933	4,924.8	67.7353	4,924.8	64.0418	4,924.8	49.8028	4,924.8	66.2266	4,924.8	67.5158	4,924.8	60.8731	4,924.8	65.497	4,924.8	56.1599	4,924.8	63.5222	4,924.8	65.1015
5,097.66	85.7736	5,097.66	84.9231	5,097.66	84.8132	5,097.66	84.0878	5,097.66	83.8408	5,097.66	83.7683	5,097.66	84.2664	5,097.66	81.7974	5,097.66	81.3333	5,097.66	79.9625	5,097.66	73.0228	5,097.66	78.2871	5,097.66	74.7347	5,097.66	75.3408	5,097.66	79.4274	5,097.66	73.1754	5,097.66	75.9815	5,097.66	71.699	5,097.66	73.4116	5,097.66	69.0823	5,097.66	65.2921	5,097.66	69.0908	5,097.66	57.2053	5,097.66	65.5425	5,097.66	68.6497	5,097.66	66.7521	5,097.66	69.1137	5,097.66	65.1843	5,097.66	59.4404	5,097.66	65.0755	5,097.66	65.666	5,097.66	59.684	5,097.66	63.5166	5,097.66	49.1134	5,097.66	62.0073	5,097.66	64.9958
5,277.83	85.1081	5,277.83	84.4138	5,277.83	85.533	5,277.83	84.2834	5,277.83	83.9473	5,277.83	83.338	5,277.83	82.8829	5,277.83	80.5782	5,277.83	82.0836	5,277.83	79.5715	5,277.83	76.1786	5,277.83	77.9177	5,277.83	77.6034	5,277.83	75.7242	5,277.83	80.7522	5,277.83	71.5989	5,277.83	77.3712	5,277.83	69.4551	5,277.83	72.3467	5,277.83	68.2358	5,277.83	67.2687	5,277.83	67.0675	5,277.83	50.8731	5,277.83	65.7966	5,277.83	66.0964	5,277.83	64.9473	5,277.83	69.1086	5,277.83	66.6249	5,277.83	61.6436	5,277.83	64.6209	5,277.83	67.6788	5,277.83	61.8776	5,277.83	64.7921	5,277.83	51.0761	5,277.83	59.8386	5,277.83	62.2241
5,463.87	84.5641	5,463.87	84.8469	5,463.87	84.7459	5,463.87	83.8054	5,463.87	84.7518	5,463.87	82.7109	5,463.87	81.715	5,463.87	81.7073	5,463.87	81.3964	5,463.87	79.4743	5,463.87	78.9482	5,463.87	77.9545	5,463.87	77.7175	5,463.87	74.2153	5,463.87	80.0039	5,463.87	72.9231	5,463.87	73.7412	5,463.87	70.1996	5,463.87	70.8425	5,463.87	68.0082	5,463.87	65.9904	5,463.87	66.8569	5,463.87	55.1319	5,463.87	63.6087	5,463.87	64.497	5,463.87	63.9257	5,463.87	67.8834	5,463.87	64.2254	5,463.87	60.3049	5,463.87	64.5233	5,463.87	66.4297	5,463.87	62.7718	5,463.87	62.58	5,463.87	52.8672	5,463.87	62.9252	5,463.87	62.9912
5,657.23	85.5854	5,657.23	84.6679	5,657.23	84.282	5,657.23	84.4401	5,657.23	84.2315	5,657.23	83.2398	5,657.23	82.4361	5,657.23	81.4145	5,657.23	81.904	5,657.23	79.4431	5,657.23	77.2448	5,657.23	77.1156	5,657.23	78.9164	5,657.23	73.5146	5,657.23	79.0885	5,657.23	70.0846	5,657.23	73.7921	5,657.23	68.5517	5,657.23	67.6359	5,657.23	68.2857	5,657.23	60.6334	5,657.23	67.0654	5,657.23	50.5617	5,657.23	64.9175	5,657.23	65.6045	5,657.23	62.0332	5,657.23	64.7732	5,657.23	62.5037	5,657.23	62.3165	5,657.23	64.6328	5,657.23	61.4829	5,657.23	63.024	5,657.23	59.4419	5,657.23	51.6149	5,657.23	60.5691	5,657.23	57.7554
5,856.45	84.6127	5,856.45	84.9287	5,856.45	85.0965	5,856.45	84.3161	5,856.45	84.6477	5,856.45	83.2001	5,856.45	82.7418	5,856.45	81.9454	5,856.45	82.7722	5,856.45	79.6246	5,856.45	77.2292	5,856.45	76.8893	5,856.45	79.1916	5,856.45	73.347	5,856.45	79.0639	5,856.45	72.0885	5,856.45	75.6527	5,856.45	67.3583	5,856.45	66.5963	5,856.45	66.871	5,856.45	57.9326	5,856.45	66.7343	5,856.45	52.5433	5,856.45	64.2479	5,856.45	57.8469	5,856.45	64.243	5,856.45	61.9505	5,856.45	64.2606	5,856.45	55.3083	5,856.45	62.3627	5,856.45	64.5321	5,856.45	64.963	5,856.45	56.6699	5,856.45	60.2467	5,856.45	63.2282	5,856.45	57.7846
6,062.99	85.5889	6,062.99	85.3262	6,062.99	84.8956	6,062.99	84.9778	6,062.99	85.1184	6,062.99	83.7404	6,062.99	83.5863	6,062.99	82.2733	6,062.99	82.536	6,062.99	79.2756	6,062.99	78.4136	6,062.99	77.617	6,062.99	77.6301	6,062.99	73.5099	6,062.99	77.5048	6,062.99	71.4094	6,062.99	75.4763	6,062.99	69.8206	6,062.99	66.5906	6,062.99	67.1283	6,062.99	66.0773	6,062.99	66.1059	6,062.99	56.7887	6,062.99	64.1652	6,062.99	56.9647	6,062.99	63.377	6,062.99	64.3342	6,062.99	61.2317	6,062.99	54.0682	6,062.99	64.4655	6,062.99	65.6519	6,062.99	62.4853	6,062.99	53.6258	6,062.99	56.6777	6,062.99	60.9444	6,062.99	45.8481
6,276.86	85.5067	6,276.86	85.0995	6,276.86	85.0603	6,276.86	84.9217	6,276.86	84.8034	6,276.86	83.6802	6,276.86	83.8027	6,276.86	81.8866	6,276.86	81.1524	6,276.86	79.4311	6,276.86	77.6361	6,276.86	77.5313	6,276.86	75.5928	6,276.86	72.9482	6,276.86	75.0022	6,276.86	69.7841	6,276.86	75.8902	6,276.86	65.3393	6,276.86	64.8732	6,276.86	66.1659	6,276.86	66.2345	6,276.86	64.4202	6,276.86	49.656	6,276.86	61.1326	6,276.86	58.1556	6,276.86	61.8802	6,276.86	61.3306	6,276.86	61.1387	6,276.86	51.8599	6,276.86	63.5806	6,276.86	63.0809	6,276.86	63.8319	6,276.86	53.6219	6,276.86	53.3498	6,276.86	59.5567	6,276.86	47.8598
6,498.05	85.2937	6,498.05	85.3473	6,498.05	85.3046	6,498.05	85.0125	6,498.05	85.1743	6,498.05	83.534	6,498.05	83.4212	6,498.05	82.0399	6,498.05	79.7349	6,498.05	79.2163	6,498.05	78.1822	6,498.05	76.836	6,498.05	72.7365	6,498.05	71.6259	6,498.05	73.8431	6,498.05	69.2562	6,498.05	74.9285	6,498.05	65.8039	6,498.05	68.5117	6,498.05	63.5624	6,498.05	66.5799	6,498.05	64.7119	6,498.05	43.6201	6,498.05	61.1776	6,498.05	57.5409	6,498.05	62.2858	6,498.05	59.7728	6,498.05	59.591	6,498.05	49.4659	6,498.05	62.4573	6,498.05	63.5431	6,498.05	63.6787	6,498.05	55.4658	6,498.05	56.5368	6,498.05	62.0435	6,498.05	51.4517
6,726.56	85.8893	6,726.56	85.7819	6,726.56	85.4398	6,726.56	85.3629	6,726.56	85.3809	6,726.56	84.071	6,726.56	83.6	6,726.56	82.2668	6,726.56	80.1585	6,726.56	79.4581	6,726.56	78.6843	6,726.56	75.9405	6,726.56	70.7902	6,726.56	70.6112	6,726.56	74.4938	6,726.56	67.7182	6,726.56	74.2108	6,726.56	65.8416	6,726.56	68.3087	6,726.56	65.8417	6,726.56	68.6337	6,726.56	63.6495	6,726.56	52.0206	6,726.56	63.4655	6,726.56	57.268	6,726.56	59.6797	6,726.56	59.859	6,726.56	58.6625	6,726.56	54.299	6,726.56	63.4234	6,726.56	60.2864	6,726.56	63.0928	6,726.56	48.309	6,726.56	59.9363	6,726.56	60.9699	6,726.56	54.7325
6,963.87	85.6068	6,963.87	86.1035	6,963.87	85.9643	6,963.87	85.7269	6,963.87	86.067	6,963.87	84.5786	6,963.87	84.1769	6,963.87	82.5485	6,963.87	81.2281	6,963.87	79.8567	6,963.87	78.6457	6,963.87	75.9752	6,963.87	66.8929	6,963.87	70.4455	6,963.87	76.7284	6,963.87	69.4081	6,963.87	71.9971	6,963.87	64.8511	6,963.87	62.8573	6,963.87	66.2336	6,963.87	64.7975	6,963.87	64.4064	6,963.87	57.62	6,963.87	63.1799	6,963.87	61.9502	6,963.87	62.1162	6,963.87	59.0136	6,963.87	61.8007	6,963.87	51.1672	6,963.87	64.1979	6,963.87	60.7784	6,963.87	64.0826	6,963.87	51.0397	6,963.87	60.4971	6,963.87	58.1875	6,963.87	55.2504
7,209.96	86.7491	7,209.96	86.5867	7,209.96	85.9872	7,209.96	86.3493	7,209.96	86.1794	7,209.96	84.5844	7,209.96	85.092	7,209.96	82.8022	7,209.96	82.7687	7,209.96	79.6383	7,209.96	78.3304	7,209.96	75.2561	7,209.96	65.0285	7,209.96	71.3196	7,209.96	75.4677	7,209.96	68.6942	7,209.96	66.7704	7,209.96	65.3189	7,209.96	64.904	7,209.96	65.2565	7,209.96	67.8651	7,209.96	63.9094	7,209.96	55.5908	7,209.96	64.5668	7,209.96	62.6464	7,209.96	61.121	7,209.96	54.6748	7,209.96	61.4337	7,209.96	46.7458	7,209.96	63.4602	7,209.96	59.4378	7,209.96	64.0014	7,209.96	52.7571	7,209.96	61.7111	7,209.96	57.224	7,209.96	52.1677
7,464.84	85.9113	7,464.84	86.1272	7,464.84	85.9942	7,464.84	86.183	7,464.84	86.3541	7,464.84	84.756	7,464.84	85.1565	7,464.84	83.1953	7,464.84	83.1311	7,464.84	78.5879	7,464.84	78.487	7,464.84	75.2408	7,464.84	61.2887	7,464.84	69.6425	7,464.84	72.6151	7,464.84	70.049	7,464.84	66.1726	7,464.84	67.1377	7,464.84	64.9089	7,464.84	65.7959	7,464.84	67.3376	7,464.84	65.0281	7,464.84	60.0362	7,464.84	63.8406	7,464.84	62.8652	7,464.84	63.0578	7,464.84	59.957	7,464.84	62.9413	7,464.84	47.2237	7,464.84	63.2659	7,464.84	55.5644	7,464.84	66.2453	7,464.84	49.7592	7,464.84	61.0284	7,464.84	55.5191	7,464.84	45.7025
7,727.05	86.4613	7,727.05	86.6195	7,727.05	86.2348	7,727.05	86.2701	7,727.05	86.3063	7,727.05	85.4716	7,727.05	85.4219	7,727.05	82.8544	7,727.05	83.3787	7,727.05	78.0629	7,727.05	79.0875	7,727.05	74.3245	7,727.05	67.6092	7,727.05	72.9381	7,727.05	63.6782	7,727.05	71.3824	7,727.05	65.0318	7,727.05	68.4626	7,727.05	63.3259	7,727.05	66.9665	7,727.05	66.8395	7,727.05	65.6926	7,727.05	59.5548	7,727.05	65.5931	7,727.05	61.786	7,727.05	61.1689	7,727.05	53.7598	7,727.05	63.2395	7,727.05	50.2055	7,727.05	64.4819	7,727.05	57.8798	7,727.05	65.2136	7,727.05	53.5609	7,727.05	60.4242	7,727.05	58.3546	7,727.05	46.1615
7,999.51	86.2	7,999.51	86.8186	7,999.51	86.3197	7,999.51	86.5147	7,999.51	86.4918	7,999.51	85.7899	7,999.51	84.7864	7,999.51	82.2158	7,999.51	82.9904	7,999.51	78.6554	7,999.51	78.7738	7,999.51	75.1466	7,999.51	72.1707	7,999.51	73.771	7,999.51	67.8573	7,999.51	69.967	7,999.51	72.2839	7,999.51	68.2902	7,999.51	70.0888	7,999.51	66.4841	7,999.51	61.1472	7,999.51	66.4411	7,999.51	43.1487	7,999.51	64.9408	7,999.51	57.2225	7,999.51	62.1328	7,999.51	53.7569	7,999.51	62.3848	7,999.51	56.2935	7,999.51	63.453	7,999.51	62.8918	7,999.51	67.4295	7,999.51	58.4165	7,999.51	63.9362	7,999.51	58.9454	7,999.51	51.907
8,282.23	86.5492	8,282.23	86.7027	8,282.23	86.8788	8,282.23	86.79	8,282.23	86.4301	8,282.23	85.6469	8,282.23	85.434	8,282.23	82.5714	8,282.23	82.8465	8,282.23	78.319	8,282.23	78.3606	8,282.23	76.8979	8,282.23	75.1693	8,282.23	74.4917	8,282.23	75.0099	8,282.23	73.5379	8,282.23	75.2585	8,282.23	70.9817	8,282.23	70.9263	8,282.23	68.2348	8,282.23	58.6462	8,282.23	66.6716	8,282.23	55.9283	8,282.23	66.8323	8,282.23	57.429	8,282.23	61.8007	8,282.23	49.5198	8,282.23	64.1847	8,282.23	60.1627	8,282.23	66.7198	8,282.23	65.109	8,282.23	67.1894	8,282.23	49.939	8,282.23	64.7271	8,282.23	58.4098	8,282.23	53.5988
8,573.73	86.4111	8,573.73	86.2441	8,573.73	86.3572	8,573.73	86.2864	8,573.73	86.0616	8,573.73	84.8495	8,573.73	85.4813	8,573.73	81.32	8,573.73	82.2327	8,573.73	79.0137	8,573.73	76.4368	8,573.73	78.8246	8,573.73	78.5911	8,573.73	76.316	8,573.73	77.878	8,573.73	73.1625	8,573.73	75.6698	8,573.73	69.1331	8,573.73	72.4688	8,573.73	66.8492	8,573.73	61.5779	8,573.73	66.6304	8,573.73	56.8026	8,573.73	65.562	8,573.73	44.4324	8,573.73	62.2843	8,573.73	50.3514	8,573.73	62.8262	8,573.73	59.4922	8,573.73	64.583	8,573.73	62.8544	8,573.73	65.8304	8,573.73	48.6864	8,573.73	62.4198	8,573.73	58.7249	8,573.73	55.0124
8,876.95	86.5492	8,876.95	85.9596	8,876.95	86.2645	8,876.95	85.9146	8,876.95	85.3678	8,876.95	84.062	8,876.95	84.2296	8,876.95	80.6261	8,876.95	81.9824	8,876.95	80.3371	8,876.95	72.1494	8,876.95	78.8985	8,876.95	81.5313	8,876.95	74.5558	8,876.95	77.0249	8,876.95	72.0123	8,876.95	70.4702	8,876.95	69.3534	8,876.95	72.8988	8,876.95	65.9666	8,876.95	65.7699	8,876.95	66.561	8,876.95	60.1932	8,876.95	64.2928	8,876.95	52.8514	8,876.95	62.6219	8,876.95	39.3622	8,876.95	64.2054	8,876.95	61.916	8,876.95	64.3088	8,876.95	58.7818	8,876.95	64.732	8,876.95	47.6343	8,876.95	62.667	8,876.95	56.0825	8,876.95	52.6656
9,188.96	87.1674	9,188.96	86.2597	9,188.96	86.3228	9,188.96	85.6091	9,188.96	85.0431	9,188.96	82.421	9,188.96	81.6125	9,188.96	80.8238	9,188.96	79.9188	9,188.96	80.2697	9,188.96	77.027	9,188.96	78.7757	9,188.96	82.4543	9,188.96	75.2586	9,188.96	72.0914	9,188.96	72.9246	9,188.96	69.9913	9,188.96	68.2056	9,188.96	66.0951	9,188.96	65.3354	9,188.96	57.9192	9,188.96	64.757	9,188.96	55.3451	9,188.96	63.3709	9,188.96	47.0282	9,188.96	61.5976	9,188.96	48.5069	9,188.96	62.5952	9,188.96	59.5751	9,188.96	62.8534	9,188.96	49.2317	9,188.96	64.7679	9,188.96	54.6234	9,188.96	64.7728	9,188.96	54.5825	9,188.96	37.6246
9,514.16	87.5617	9,514.16	86.3917	9,514.16	86.7403	9,514.16	85.157	9,514.16	85.0788	9,514.16	81.8052	9,514.16	80.942	9,514.16	80.6697	9,514.16	79.0335	9,514.16	80.4147	9,514.16	80.7271	9,514.16	78.093	9,514.16	81.915	9,514.16	73.9145	9,514.16	65.5134	9,514.16	70.086	9,514.16	72.1894	9,514.16	66.4836	9,514.16	57.2133	9,514.16	61.8391	9,514.16	51.2889	9,514.16	64.3344	9,514.16	49.4249	9,514.16	59.7133	9,514.16	60.3875	9,514.16	59.9478	9,514.16	50.9678	9,514.16	61.3572	9,514.16	48.7103	9,514.16	59.4106	9,514.16	54.3947	9,514.16	60.1959	9,514.16	55.922	9,514.16	62.4665	9,514.16	51.5773	9,514.16	48.3439
9,849.61	87.9219	9,849.61	87.035	9,849.61	87.2565	9,849.61	84.7017	9,849.61	85.1987	9,849.61	81.5798	9,849.61	81.9492	9,849.61	80.519	9,849.61	79.5223	9,849.61	80.0796	9,849.61	80.9434	9,849.61	76.8561	9,849.61	79.5844	9,849.61	72.7183	9,849.61	68.0411	9,849.61	68.8936	9,849.61	71.4042	9,849.61	65.0864	9,849.61	59.8403	9,849.61	61.2009	9,849.61	58.917	9,849.61	62.0943	9,849.61	48.5667	9,849.61	58.1082	9,849.61	58.3727	9,849.61	59.178	9,849.61	50.4763	9,849.61	58.275	9,849.61	48.4983	9,849.61	58.4528	9,849.61	57.6729	9,849.61	61.1729	9,849.61	49.1935	9,849.61	60.6339	9,849.61	53.6516	9,849.61	49.1015
10,196.8	88.1373	10,196.8	87.3136	10,196.8	87.5077	10,196.8	84.2577	10,196.8	84.7562	10,196.8	81.0351	10,196.8	81.2496	10,196.8	80.1871	10,196.8	78.7259	10,196.8	79.3194	10,196.8	80.7607	10,196.8	75.5195	10,196.8	77.7809	10,196.8	70.7648	10,196.8	67.3293	10,196.8	66.4704	10,196.8	68.2497	10,196.8	61.1777	10,196.8	60.8807	10,196.8	58.4904	10,196.8	59.1632	10,196.8	57.3876	10,196.8	48.7205	10,196.8	54.0802	10,196.8	60.1754	10,196.8	55.0684	10,196.8	53.869	10,196.8	54.0018	10,196.8	49.0332	10,196.8	55.1408	10,196.8	58.7221	10,196.8	57.4819	10,196.8	47.9795	10,196.8	57.9138	10,196.8	52.3785	10,196.8	46.3243
10,555.7	88.0928	10,555.7	87.2861	10,555.7	87.5883	10,555.7	84.0675	10,555.7	84.6794	10,555.7	81.124	10,555.7	80.4575	10,555.7	80.0902	10,555.7	79.5285	10,555.7	78.4326	10,555.7	79.6267	10,555.7	73.7955	10,555.7	74.9411	10,555.7	67.5983	10,555.7	62.8857	10,555.7	61.449	10,555.7	63.0544	10,555.7	54.1278	10,555.7	58.7966	10,555.7	52.6763	10,555.7	52.804	10,555.7	54.2829	10,555.7	55.1317	10,555.7	51.0279	10,555.7	51.7024	10,555.7	48.5412	10,555.7	51.9056	10,555.7	52.527	10,555.7	54.4816	10,555.7	48.3772	10,555.7	54.9772	10,555.7	53.9898	10,555.7	44.1252	10,555.7	53.5692	10,555.7	44.018	10,555.7	38.5468
10,927.7	88.1263	10,927.7	87.2249	10,927.7	87.1847	10,927.7	83.9659	10,927.7	84.1938	10,927.7	81.4571	10,927.7	81.2545	10,927.7	79.6726	10,927.7	80.8857	10,927.7	77.0341	10,927.7	77.8095	10,927.7	69.9267	10,927.7	72.5243	10,927.7	56.8757	10,927.7	40.1019	10,927.7	52.1537	10,927.7	52.1174	10,927.7	52.9865	10,927.7	51.7073	10,927.7	48.4625	10,927.7	44.2565	10,927.7	53.8346	10,927.7	55.388	10,927.7	51.9783	10,927.7	52.1971	10,927.7	50.3508	10,927.7	50.4794	10,927.7	52.5927	10,927.7	53.0388	10,927.7	40.0831	10,927.7	49.0907	10,927.7	52.1935	10,927.7	44.2592	10,927.7	55.9626	10,927.7	47.5319	10,927.7	46.0399
11,313	88.2592	11,313	87.2734	11,313	86.9933	11,313	83.7564	11,313	83.6654	11,313	80.9238	11,313	80.32	11,313	78.6601	11,313	79.3486	11,313	74.5381	11,313	76.4906	11,313	63.8694	11,313	69.7574	11,313	60.0931	11,313	64.6253	11,313	60.1922	11,313	60.0783	11,313	57.8199	11,313	50.1035	11,313	54.5898	11,313	47.5521	11,313	57.2707	11,313	55.411	11,313	54.0519	11,313	45.9468	11,313	54.6924	11,313	50.6873	11,313	55.2656	11,313	54.6936	11,313	50.4661	11,313	50.617	11,313	54.6168	11,313	45.6253	11,313	59.6091	11,313	46.8134	11,313	47.2603
11,712.9	88.4172	11,712.9	87.43	11,712.9	86.8026	11,712.9	83.1445	11,712.9	82.839	11,712.9	80.4669	11,712.9	78.7355	11,712.9	78.7026	11,712.9	79.1545	11,712.9	74.4061	11,712.9	74.6159	11,712.9	66.4136	11,712.9	59.661	11,712.9	66.5996	11,712.9	69.903	11,712.9	64.7815	11,712.9	65.2776	11,712.9	61.0333	11,712.9	52.2596	11,712.9	57.3182	11,712.9	53.3575	11,712.9	58.3669	11,712.9	52.7445	11,712.9	56.7731	11,712.9	42.9037	11,712.9	56.0841	11,712.9	53.0413	11,712.9	56.4382	11,712.9	55.7885	11,712.9	55.3641	11,712.9	48.1251	11,712.9	56.822	11,712.9	45.4109	11,712.9	60.9799	11,712.9	52.2404	11,712.9	45.5177
12,126	88.4213	12,126	87.2274	12,126	86.6324	12,126	82.7188	12,126	82.6486	12,126	80.5825	12,126	78.8367	12,126	79.9967	12,126	78.4593	12,126	74.5656	12,126	73.3593	12,126	70.9791	12,126	69.091	12,126	68.7422	12,126	71.1363	12,126	64.9045	12,126	64.8391	12,126	61.3105	12,126	32.875	12,126	58.3278	12,126	56.669	12,126	57.9232	12,126	52.0709	12,126	57.0785	12,126	45.3487	12,126	55.6752	12,126	55.545	12,126	56.9265	12,126	57.5291	12,126	57.4859	12,126	45.6333	12,126	57.7645	12,126	23.6982	12,126	60.6307	12,126	50.9641	12,126	39.4369
12,553.7	88.0424	12,553.7	86.5186	12,553.7	86.1646	12,553.7	82.0433	12,553.7	81.5124	12,553.7	81.1088	12,553.7	79.8938	12,553.7	80.2124	12,553.7	78.3171	12,553.7	75.5941	12,553.7	74.8428	12,553.7	72.519	12,553.7	71.7553	12,553.7	69.3823	12,553.7	69.2251	12,553.7	65.0096	12,553.7	61.982	12,553.7	62.5339	12,553.7	57.0622	12,553.7	58.6328	12,553.7	56.9338	12,553.7	57.8224	12,553.7	49.0012	12,553.7	56.3606	12,553.7	46.8346	12,553.7	55.0847	12,553.7	50.4881	12,553.7	56.8841	12,553.7	56.1588	12,553.7	56.4987	12,553.7	28.3752	12,553.7	57.4075	12,553.7	37.2238	12,553.7	59.4275	12,553.7	47.4999	12,553.7	39.6264
12,996.1	87.6183	12,996.1	85.6866	12,996.1	86.0099	12,996.1	81.3367	12,996.1	80.9275	12,996.1	81.8115	12,996.1	80.5164	12,996.1	79.9378	12,996.1	78.7744	12,996.1	76.3808	12,996.1	75.7484	12,996.1	71.8064	12,996.1	71.2295	12,996.1	68.0345	12,996.1	67.7626	12,996.1	62.6506	12,996.1	64.7433	12,996.1	60.0246	12,996.1	60.9649	12,996.1	56.1326	12,996.1	53.8656	12,996.1	56.1213	12,996.1	45.0979	12,996.1	54.4175	12,996.1	44.7675	12,996.1	53.6706	12,996.1	46.3251	12,996.1	55.9434	12,996.1	56.7996	12,996.1	55.4133	12,996.1	37.5335	12,996.1	57.7954	12,996.1	42.5758	12,996.1	58.3309	12,996.1	49.5109	12,996.1	46.282
13,454.6	87.6093	13,454.6	85.2517	13,454.6	85.482	13,454.6	81.4689	13,454.6	81.3589	13,454.6	82.5288	13,454.6	82.3142	13,454.6	79.692	13,454.6	78.663	13,454.6	76.5199	13,454.6	75.1056	13,454.6	70.9134	13,454.6	69.0285	13,454.6	68.2468	13,454.6	68.9281	13,454.6	62.371	13,454.6	64.5861	13,454.6	59.7958	13,454.6	61.0905	13,454.6	55.9169	13,454.6	51.8419	13,454.6	55.6948	13,454.6	54.2489	13,454.6	55.193	13,454.6	23.8633	13,454.6	54.1995	13,454.6	53.3385	13,454.6	55.8271	13,454.6	57.2588	13,454.6	53.4983	13,454.6	48.2335	13,454.6	54.3717	13,454.6	41.2879	13,454.6	58.3754	13,454.6	52.2285	13,454.6	43.8268
13,929.2	87.5716	13,929.2	84.7542	13,929.2	85.1882	13,929.2	81.8394	13,929.2	81.9075	13,929.2	82.6057	13,929.2	83.0781	13,929.2	79.1993	13,929.2	79.0458	13,929.2	75.9971	13,929.2	75.9406	13,929.2	71.083	13,929.2	65.6798	13,929.2	67.0718	13,929.2	71.0113	13,929.2	62.1883	13,929.2	63.0695	13,929.2	58.6651	13,929.2	62.8731	13,929.2	56.616	13,929.2	45.7486	13,929.2	55.4842	13,929.2	55.5493	13,929.2	56.4991	13,929.2	45.3266	13,929.2	54.9081	13,929.2	55.2452	13,929.2	55.068	13,929.2	56.6866	13,929.2	52.4778	13,929.2	47.3916	13,929.2	51.7825	13,929.2	42.0779	13,929.2	58.2742	13,929.2	51.7305	13,929.2	46.3301
14,419.9	87.332	14,419.9	84.3144	14,419.9	84.6378	14,419.9	82.764	14,419.9	82.6369	14,419.9	82.6226	14,419.9	83.624	14,419.9	79.1645	14,419.9	78.5964	14,419.9	75.8868	14,419.9	76.004	14,419.9	71.589	14,419.9	70.3561	14,419.9	66.8874	14,419.9	69.743	14,419.9	63.3236	14,419.9	56.5052	14,419.9	60.6042	14,419.9	63.2279	14,419.9	56.2615	14,419.9	36.6624	14,419.9	55.8823	14,419.9	58.5352	14,419.9	57.6238	14,419.9	42.9172	14,419.9	54.6826	14,419.9	51.8567	14,419.9	54.551	14,419.9	55.4428	14,419.9	54.3875	14,419.9	25.1108	14,419.9	52.9694	14,419.9	48.0933	14,419.9	58.4855	14,419.9	48.9463	14,419.9	40.8174
14,928.2	86.7939	14,928.2	83.9384	14,928.2	83.891	14,928.2	83.9821	14,928.2	83.4053	14,928.2	82.6033	14,928.2	83.0429	14,928.2	78.694	14,928.2	78.2903	14,928.2	76.1403	14,928.2	73.8303	14,928.2	71.1513	14,928.2	74.7859	14,928.2	67.6762	14,928.2	67.818	14,928.2	63.9982	14,928.2	65.097	14,928.2	60.6331	14,928.2	59.5704	14,928.2	57.1593	14,928.2	14.6351	14,928.2	55.4555	14,928.2	60.0634	14,928.2	56.9623	14,928.2	46.4688	14,928.2	55.8105	14,928.2	47.9644	14,928.2	55.6357	14,928.2	56.028	14,928.2	53.6144	14,928.2	40.9565	14,928.2	51.3074	14,928.2	46.4195	14,928.2	57.4966	14,928.2	48.1576	14,928.2	50.0633
15,455.6	86.1786	15,455.6	84.2029	15,455.6	84.4552	15,455.6	85.2	15,455.6	84.7071	15,455.6	82.7775	15,455.6	82.4717	15,455.6	77.9811	15,455.6	79.5297	15,455.6	75.883	15,455.6	74.3975	15,455.6	70.0134	15,455.6	72.9324	15,455.6	67.8189	15,455.6	68.1342	15,455.6	62.5236	15,455.6	63.2351	15,455.6	58.3993	15,455.6	62.1994	15,455.6	55.0582	15,455.6	51.533	15,455.6	52.539	15,455.6	58.6071	15,455.6	55.596	15,455.6	39.3878	15,455.6	54.6359	15,455.6	48.5633	15,455.6	53.2526	15,455.6	53.8752	15,455.6	50.8925	15,455.6	46.6018	15,455.6	50.6638	15,455.6	42.0847	15,455.6	54.664	15,455.6	47.5446	15,455.6	50.6062
16,000.5	86.1023	16,000.5	85.3217	16,000.5	85.336	16,000.5	85.7461	16,000.5	85.5598	16,000.5	82.3859	16,000.5	82.0022	16,000.5	77.2756	16,000.5	77.6888	16,000.5	74.9798	16,000.5	72.4902	16,000.5	68.8326	16,000.5	70.7394	16,000.5	66.1431	16,000.5	66.8897	16,000.5	60.2112	16,000.5	54.5368	16,000.5	57.015	16,000.5	63.2747	16,000.5	53.6904	16,000.5	53.1245	16,000.5	48.237	16,000.5	57.0014	16,000.5	54.2003	16,000.5	34.8205	16,000.5	51.144	16,000.5	45.9247	16,000.5	50.2002	16,000.5	50.4054	16,000.5	48.0207	16,000.5	42.1908	16,000.5	49.8526	16,000.5	37.778	16,000.5	51.2073	16,000.5	47.7024	16,000.5	40.5805
16,564.5	85.3816	16,564.5	85.5465	16,564.5	85.0705	16,564.5	85.6188	16,564.5	85.5315	16,564.5	81.4566	16,564.5	81.1066	16,564.5	76.6816	16,564.5	76.6488	16,564.5	73.9571	16,564.5	72.2156	16,564.5	68.5442	16,564.5	71.6827	16,564.5	64.3452	16,564.5	63.9106	16,564.5	59.0482	16,564.5	59.7073	16,564.5	55.1424	16,564.5	62.1825	16,564.5	52.1023	16,564.5	48.1749	16,564.5	46.7701	16,564.5	57.2062	16,564.5	52.7373	16,564.5	42.7616	16,564.5	48.4112	16,564.5	38.6012	16,564.5	48.9197	16,564.5	44.7637	16,564.5	47.8485	16,564.5	45.288	16,564.5	49.5045	16,564.5	36.9798	16,564.5	51.4636	16,564.5	44.9048	16,564.5	45.8265
17,148.9	84.1703	17,148.9	85.5831	17,148.9	84.8104	17,148.9	85.3439	17,148.9	85.2026	17,148.9	80.658	17,148.9	80.4845	17,148.9	76.2446	17,148.9	75.9738	17,148.9	73.0721	17,148.9	72.7717	17,148.9	67.1279	17,148.9	69.349	17,148.9	63.8075	17,148.9	62.9958	17,148.9	56.8457	17,148.9	55.9591	17,148.9	53.154	17,148.9	61.1259	17,148.9	49.3011	17,148.9	50.2646	17,148.9	43.8256	17,148.9	56.4629	17,148.9	50.3585	17,148.9	39.8906	17,148.9	45.5041	17,148.9	39.4626	17,148.9	47.338	17,148.9	44.4302	17,148.9	45.7509	17,148.9	42.0153	17,148.9	48.0967	17,148.9	33.6136	17,148.9	48.971	17,148.9	45.9041	17,148.9	42.1616
17,752.4	83.7539	17,752.4	85.5939	17,752.4	84.3929	17,752.4	84.8177	17,752.4	84.3034	17,752.4	80.1286	17,752.4	79.5217	17,752.4	74.8239	17,752.4	75.3951	17,752.4	71.1465	17,752.4	71.3609	17,752.4	65.2333	17,752.4	68.6558	17,752.4	60.5386	17,752.4	64.2105	17,752.4	53.6255	17,752.4	51.6191	17,752.4	48.7164	17,752.4	58.4712	17,752.4	45.0481	17,752.4	48.2251	17,752.4	40.1007	17,752.4	54.6065	17,752.4	48.1831	17,752.4	46.0523	17,752.4	42.6429	17,752.4	41.3723	17,752.4	44.106	17,752.4	26.239	17,752.4	37.1704	17,752.4	27.9715	17,752.4	43.397	17,752.4	22.4486	17,752.4	43.8261	17,752.4	42.6322	17,752.4	41.3096
18,379.4	82.7395	18,379.4	85.2498	18,379.4	83.5289	18,379.4	83.9206	18,379.4	83.4648	18,379.4	79.2345	18,379.4	78.7666	18,379.4	73.2874	18,379.4	74.1215	18,379.4	69.1951	18,379.4	69.2621	18,379.4	62.4903	18,379.4	64.5691	18,379.4	55.5875	18,379.4	57.9756	18,379.4	50.1964	18,379.4	45.2553	18,379.4	48.1668	18,379.4	57.3879	18,379.4	41.4385	18,379.4	46.3917	18,379.4	40.7322	18,379.4	51.937	18,379.4	43.9486	18,379.4	42.4993	18,379.4	39.2838	18,379.4	42.3104	18,379.4	41.8118	18,379.4	39.5417	18,379.4	24.6156	18,379.4	43.772	18,379.4	41.1147	18,379.4	39.8884	18,379.4	40.8608	18,379.4	43.0649	18,379.4	42.5525
19,026.9	81.5394	19,026.9	84.2204	19,026.9	82.5294	19,026.9	82.4343	19,026.9	82.2956	19,026.9	77.3426	19,026.9	76.3876	19,026.9	70.4993	19,026.9	70.9827	19,026.9	65.1589	19,026.9	65.2078	19,026.9	57.9256	19,026.9	59.3942	19,026.9	55.6711	19,026.9	47.1449	19,026.9	50.7903	19,026.9	19.8204	19,026.9	47.6646	19,026.9	54.3557	19,026.9	38.0169	19,026.9	47.4612	19,026.9	37.2958	19,026.9	52.3657	19,026.9	42.7433	19,026.9	37.0773	19,026.9	40.7126	19,026.9	39.3917	19,026.9	37.8302	19,026.9	43.0475	19,026.9	32.9044	19,026.9	43.2173	19,026.9	40.3511	19,026.9	41.7767	19,026.9	36.1341	19,026.9	44.2266	19,026.9	43.305
19,697.8	79.0671	19,697.8	82.6092	19,697.8	81.2636	19,697.8	80.8109	19,697.8	81.0212	19,697.8	75.2773	19,697.8	74.2738	19,697.8	68.0344	19,697.8	67.9857	19,697.8	63.7745	19,697.8	60.6873	19,697.8	59.1057	19,697.8	56.8437	19,697.8	57.3492	19,697.8	41.5329	19,697.8	51.9301	19,697.8	42.0219	19,697.8	48.7521	19,697.8	52.0171	19,697.8	41.039	19,697.8	46.5683	19,697.8	39.3999	19,697.8	51.7995	19,697.8	44.7986	19,697.8	35.5949	19,697.8	39.9986	19,697.8	38.5496	19,697.8	38.0592	19,697.8	42.8091	19,697.8	28.5782	19,697.8	44.1705	19,697.8	38.796	19,697.8	42.3009	19,697.8	37.2136	19,697.8	45.5563	19,697.8	44.3887
19,999.5	77.4975	19,999.5	81.8705	19,999.5	80.6678	19,999.5	80.2277	19,999.5	80.5627	19,999.5	74.7909	19,999.5	73.8197	19,999.5	66.2158	19,999.5	66.9491	19,999.5	63.6304	19,999.5	60.0922	19,999.5	60.6247	19,999.5	50.7106	19,999.5	57.3438	19,999.5	46.2392	19,999.5	53.9719	19,999.5	46.1392	19,999.5	48.9932	19,999.5	53.3193	19,999.5	45.6581	19,999.5	47.4125	19,999.5	42.7872	19,999.5	52.1034	19,999.5	46.1742	19,999.5	42.5629	19,999.5	37.6884	19,999.5	45.6249	19,999.5	43.5393	19,999.5	53.4251	19,999.5	45.815	19,999.5	55.165	19,999.5	42.2797	19,999.5	46.3774	19,999.5	7.39058	19,999.5	45.9584	19,999.5	43.9019
