"SPL Horizontal"																																																																							
"On-Axis"		"10°"		"-10°"		"20°"		"-20°"		"30°"		"-30°"		"40°"		"-40°"		"50°"		"-50°"		"60°"		"-60°"		"70°"		"-70°"		"80°"		"-80°"		"90°"		"-90°"		"100°"		"-100°"		"110°"		"-110°"		"120°"		"-120°"		"130°"		"-130°"		"140°"		"-140°"		"150°"		"-150°"		"160°"		"-160°"		"170°"		"-170°"		"180°"	
"Frequency [Hz]"	"Sound Pessure Level [dB]  / [2.83V 1m] "	"Frequency [Hz]"	"Sound Pessure Level [dB]  / [2.83V 1m] "	"Frequency [Hz]"	"Sound Pessure Level [dB]  / [2.83V 1m] "	"Frequency [Hz]"	"Sound Pessure Level [dB]  / [2.83V 1m] "	"Frequency [Hz]"	"Sound Pessure Level [dB]  / [2.83V 1m] "	"Frequency [Hz]"	"Sound Pessure Level [dB]  / [2.83V 1m] "	"Frequency [Hz]"	"Sound Pessure Level [dB]  / [2.83V 1m] "	"Frequency [Hz]"	"Sound Pessure Level [dB]  / [2.83V 1m] "	"Frequency [Hz]"	"Sound Pessure Level [dB]  / [2.83V 1m] "	"Frequency [Hz]"	"Sound Pessure Level [dB]  / [2.83V 1m] "	"Frequency [Hz]"	"Sound Pessure Level [dB]  / [2.83V 1m] "	"Frequency [Hz]"	"Sound Pessure Level [dB]  / [2.83V 1m] "	"Frequency [Hz]"	"Sound Pessure Level [dB]  / [2.83V 1m] "	"Frequency [Hz]"	"Sound Pessure Level [dB]  / [2.83V 1m] "	"Frequency [Hz]"	"Sound Pessure Level [dB]  / [2.83V 1m] "	"Frequency [Hz]"	"Sound Pessure Level [dB]  / [2.83V 1m] "	"Frequency [Hz]"	"Sound Pessure Level [dB]  / [2.83V 1m] "	"Frequency [Hz]"	"Sound Pessure Level [dB]  / [2.83V 1m] "	"Frequency [Hz]"	"Sound Pessure Level [dB]  / [2.83V 1m] "	"Frequency [Hz]"	"Sound Pessure Level [dB]  / [2.83V 1m] "	"Frequency [Hz]"	"Sound Pessure Level [dB]  / [2.83V 1m] "	"Frequency [Hz]"	"Sound Pessure Level [dB]  / [2.83V 1m] "	"Frequency [Hz]"	"Sound Pessure Level [dB]  / [2.83V 1m] "	"Frequency [Hz]"	"Sound Pessure Level [dB]  / [2.83V 1m] "	"Frequency [Hz]"	"Sound Pessure Level [dB]  / [2.83V 1m] "	"Frequency [Hz]"	"Sound Pessure Level [dB]  / [2.83V 1m] "	"Frequency [Hz]"	"Sound Pessure Level [dB]  / [2.83V 1m] "	"Frequency [Hz]"	"Sound Pessure Level [dB]  / [2.83V 1m] "	"Frequency [Hz]"	"Sound Pessure Level [dB]  / [2.83V 1m] "	"Frequency [Hz]"	"Sound Pessure Level [dB]  / [2.83V 1m] "	"Frequency [Hz]"	"Sound Pessure Level [dB]  / [2.83V 1m] "	"Frequency [Hz]"	"Sound Pessure Level [dB]  / [2.83V 1m] "	"Frequency [Hz]"	"Sound Pessure Level [dB]  / [2.83V 1m] "	"Frequency [Hz]"	"Sound Pessure Level [dB]  / [2.83V 1m] "	"Frequency [Hz]"	"Sound Pessure Level [dB]  / [2.83V 1m] "	"Frequency [Hz]"	"Sound Pessure Level [dB]  / [2.83V 1m] "
20.5078	58.408	20.5078	58.4585	20.5078	58.3131	20.5078	58.4613	20.5078	58.1772	20.5078	58.4129	20.5078	58.0029	20.5078	58.3104	20.5078	57.7923	20.5078	58.1511	20.5078	57.5465	20.5078	57.9333	20.5078	57.2659	20.5078	57.6572	20.5078	56.9514	20.5078	57.3255	20.5078	56.6056	20.5078	56.9444	20.5078	56.2349	20.5078	56.5249	20.5078	55.8506	20.5078	56.0829	20.5078	55.4689	20.5078	55.6391	20.5078	55.1084	20.5078	55.2169	20.5078	54.7866	20.5078	54.8398	20.5078	54.5168	20.5078	54.5275	20.5078	54.3069	20.5078	54.2931	20.5078	54.1607	20.5078	54.1422	20.5078	54.0814	20.5078	54.0733
21.9727	49.0634	21.9727	49.3099	21.9727	48.7358	21.9727	49.4676	21.9727	48.3496	21.9727	49.5418	21.9727	47.9503	21.9727	49.5501	21.9727	47.6139	21.9727	49.5253	21.9727	47.4476	21.9727	49.5174	21.9727	47.5646	21.9727	49.591	21.9727	48.0274	21.9727	49.8112	21.9727	48.8026	21.9727	50.2182	21.9727	49.7798	21.9727	50.8056	21.9727	50.8317	21.9727	51.5213	21.9727	51.8568	21.9727	52.2909	21.9727	52.7886	21.9727	53.0437	21.9727	53.5888	21.9727	53.726	21.9727	54.2374	21.9727	54.3019	21.9727	54.7252	21.9727	54.7495	21.9727	55.0492	21.9727	55.0553	21.9727	55.2102	21.9727	55.2108
23.4375	59.0415	23.4375	59.0272	23.4375	59.0449	23.4375	58.9987	23.4375	59.0414	23.4375	58.9548	23.4375	59.0358	23.4375	58.8963	23.4375	59.0331	23.4375	58.8275	23.4375	59.0387	23.4375	58.7556	23.4375	59.0582	23.4375	58.6913	23.4375	59.0964	23.4375	58.6474	23.4375	59.1569	23.4375	58.6372	23.4375	59.2405	23.4375	58.6713	23.4375	59.3443	23.4375	58.7546	23.4375	59.4622	23.4375	58.8842	23.4375	59.5846	23.4375	59.0495	23.4375	59.7006	23.4375	59.2341	23.4375	59.7985	23.4375	59.4201	23.4375	59.8679	23.4375	59.5903	23.4375	59.8999	23.4375	59.7308	23.4375	59.8889	23.4375	59.8321
24.9023	60.1889	24.9023	60.1747	24.9023	60.1926	24.9023	60.15	24.9023	60.1879	24.9023	60.1165	24.9023	60.178	24.9023	60.0784	24.9023	60.1671	24.9023	60.0413	24.9023	60.1592	24.9023	60.0125	24.9023	60.1582	24.9023	59.9994	24.9023	60.1675	24.9023	60.0087	24.9023	60.1902	24.9023	60.045	24.9023	60.2292	24.9023	60.1097	24.9023	60.2869	24.9023	60.2006	24.9023	60.3634	24.9023	60.3117	24.9023	60.4559	24.9023	60.434	24.9023	60.5579	24.9023	60.5569	24.9023	60.6594	24.9023	60.6697	24.9023	60.7493	24.9023	60.7624	24.9023	60.8173	24.9023	60.8272	24.9023	60.8553	24.9023	60.859
26.3672	61.4135	26.3672	61.4075	26.3672	61.4099	26.3672	61.3927	26.3672	61.3972	26.3672	61.3714	26.3672	61.3775	26.3672	61.3475	26.3672	61.3538	26.3672	61.326	26.3672	61.3305	26.3672	61.3126	26.3672	61.3132	26.3672	61.313	26.3672	61.3077	26.3672	61.3322	26.3672	61.3199	26.3672	61.3736	26.3672	61.3544	26.3672	61.4381	26.3672	61.4134	26.3672	61.5238	26.3672	61.4961	26.3672	61.6256	26.3672	61.5976	26.3672	61.7358	26.3672	61.7101	26.3672	61.8447	26.3672	61.8233	26.3672	61.9422	26.3672	61.926	26.3672	62.0188	26.3672	62.0081	26.3672	62.067	26.3672	62.0618	26.3672	62.0819
27.832	64.1174	27.832	64.1352	27.832	64.0984	27.832	64.151	27.832	64.0802	27.832	64.1649	27.832	64.0658	27.832	64.1785	27.832	64.0587	27.832	64.1941	27.832	64.0621	27.832	64.2146	27.832	64.0792	27.832	64.2432	27.832	64.1121	27.832	64.2826	27.832	64.1623	27.832	64.3344	27.832	64.2298	27.832	64.3995	27.832	64.3134	27.832	64.4765	27.832	64.41	27.832	64.5624	27.832	64.5148	27.832	64.6524	27.832	64.6213	27.832	64.7399	27.832	64.722	27.832	64.818	27.832	64.8093	27.832	64.8799	27.832	64.8766	27.832	64.9198	27.832	64.9189	27.832	64.9334
29.2969	65.7129	29.2969	65.7105	29.2969	65.7143	29.2969	65.7072	29.2969	65.7154	29.2969	65.7037	29.2969	65.7174	29.2969	65.7013	29.2969	65.7218	29.2969	65.7023	29.2969	65.7302	29.2969	65.709	29.2969	65.7446	29.2969	65.7238	29.2969	65.7667	29.2969	65.749	29.2969	65.798	29.2969	65.7859	29.2969	65.8393	29.2969	65.8348	29.2969	65.8908	29.2969	65.8949	29.2969	65.9514	29.2969	65.9635	29.2969	66.0184	29.2969	66.0368	29.2969	66.0878	29.2969	66.1096	29.2969	66.1544	29.2969	66.1761	29.2969	66.2124	29.2969	66.2308	29.2969	66.2563	29.2969	66.2686	29.2969	66.2818	29.2969	66.2861
30.7617	66.9091	30.7617	66.8948	30.7617	66.9237	30.7617	66.8811	30.7617	66.9384	30.7617	66.869	30.7617	66.9535	30.7617	66.8598	30.7617	66.9693	30.7617	66.8555	30.7617	66.9864	30.7617	66.858	30.7617	67.0057	30.7617	66.8694	30.7617	67.0279	30.7617	66.8913	30.7617	67.0538	30.7617	66.9244	30.7617	67.084	30.7617	66.9685	30.7617	67.1184	30.7617	67.0219	30.7617	67.1563	30.7617	67.0815	30.7617	67.196	30.7617	67.1431	30.7617	67.2353	30.7617	67.2017	30.7617	67.2715	30.7617	67.2531	30.7617	67.3019	30.7617	67.2936	30.7617	67.324	30.7617	67.3212	30.7617	67.3356	30.7617	67.3351
32.2266	68.3145	32.2266	68.3019	32.2266	68.3265	32.2266	68.2892	32.2266	68.338	32.2266	68.2771	32.2266	68.3494	32.2266	68.267	32.2266	68.3612	32.2266	68.2603	32.2266	68.3741	32.2266	68.2589	32.2266	68.389	32.2266	68.2642	32.2266	68.4064	32.2266	68.2775	32.2266	68.4266	32.2266	68.299	32.2266	68.4496	32.2266	68.3284	32.2266	68.475	32.2266	68.3644	32.2266	68.5018	32.2266	68.4051	32.2266	68.5289	32.2266	68.448	32.2266	68.555	32.2266	68.4905	32.2266	68.5783	32.2266	68.5299	32.2266	68.5969	32.2266	68.5635	32.2266	68.6087	32.2266	68.5893	32.2266	68.6121	32.2266	68.6057
33.6914	69.933	33.6914	69.9324	33.6914	69.9277	33.6914	69.926	33.6914	69.9169	33.6914	69.9146	33.6914	69.9012	33.6914	69.8993	33.6914	69.882	33.6914	69.8818	33.6914	69.8609	33.6914	69.8641	33.6914	69.84	33.6914	69.8483	33.6914	69.8216	33.6914	69.8365	33.6914	69.8079	33.6914	69.8301	33.6914	69.8005	33.6914	69.83	33.6914	69.8006	33.6914	69.8361	33.6914	69.8085	33.6914	69.8476	33.6914	69.8234	33.6914	69.863	33.6914	69.8432	33.6914	69.8802	33.6914	69.8653	33.6914	69.8968	33.6914	69.8867	33.6914	69.9105	33.6914	69.9045	33.6914	69.9192	33.6914	69.9165	33.6914	69.9215
35.1562	70.6163	35.1562	70.6119	35.1562	70.6175	35.1562	70.6042	35.1562	70.6157	35.1562	70.5939	35.1562	70.612	35.1562	70.582	35.1562	70.6074	35.1562	70.5699	35.1562	70.6037	35.1562	70.5594	35.1562	70.6023	35.1562	70.5522	35.1562	70.6046	35.1562	70.5502	35.1562	70.6117	35.1562	70.5548	35.1562	70.6237	35.1562	70.5666	35.1562	70.6404	35.1562	70.5857	35.1562	70.6609	35.1562	70.6112	35.1562	70.6837	35.1562	70.6412	35.1562	70.7071	35.1562	70.6731	35.1562	70.7291	35.1562	70.704	35.1562	70.7475	35.1562	70.7307	35.1562	70.7604	35.1562	70.7509	35.1562	70.7659	35.1562	70.7629
36.6211	71.6446	36.6211	71.6375	36.6211	71.6491	36.6211	71.6284	36.6211	71.6511	36.6211	71.6178	36.6211	71.6506	36.6211	71.6066	36.6211	71.648	36.6211	71.5958	36.6211	71.6442	36.6211	71.5864	36.6211	71.6398	36.6211	71.5792	36.6211	71.6356	36.6211	71.5751	36.6211	71.6323	36.6211	71.5744	36.6211	71.6305	36.6211	71.5773	36.6211	71.6305	36.6211	71.5837	36.6211	71.6324	36.6211	71.5931	36.6211	71.6359	36.6211	71.6046	36.6211	71.6407	36.6211	71.6172	36.6211	71.646	36.6211	71.6295	36.6211	71.651	36.6211	71.6404	36.6211	71.6545	36.6211	71.6488	36.6211	71.6558	36.6211	71.654
38.0859	72.1502	38.0859	72.1426	38.0859	72.1554	38.0859	72.1325	38.0859	72.1583	38.0859	72.1204	38.0859	72.1593	38.0859	72.1068	38.0859	72.1589	38.0859	72.0924	38.0859	72.158	38.0859	72.0783	38.0859	72.1571	38.0859	72.0657	38.0859	72.1567	38.0859	72.0559	38.0859	72.1574	38.0859	72.0503	38.0859	72.1592	38.0859	72.0502	38.0859	72.1623	38.0859	72.0563	38.0859	72.1666	38.0859	72.0685	38.0859	72.172	38.0859	72.0861	38.0859	72.1781	38.0859	72.1072	38.0859	72.1839	38.0859	72.1295	38.0859	72.1884	38.0859	72.1505	38.0859	72.1903	38.0859	72.1681	38.0859	72.1881	38.0859	72.1808
39.5508	72.8401	39.5508	72.8312	39.5508	72.8461	39.5508	72.8196	39.5508	72.849	39.5508	72.806	39.5508	72.8489	39.5508	72.791	39.5508	72.8461	39.5508	72.7754	39.5508	72.8409	39.5508	72.7599	39.5508	72.8339	39.5508	72.7454	39.5508	72.8252	39.5508	72.7328	39.5508	72.8155	39.5508	72.7229	39.5508	72.8049	39.5508	72.7162	39.5508	72.7941	39.5508	72.7131	39.5508	72.7835	39.5508	72.7135	39.5508	72.7739	39.5508	72.7169	39.5508	72.7657	39.5508	72.7226	39.5508	72.7594	39.5508	72.7293	39.5508	72.7548	39.5508	72.7358	39.5508	72.7516	39.5508	72.7414	39.5508	72.7488	39.5508	72.7457
41.0156	73.6638	41.0156	73.6516	41.0156	73.6732	41.0156	73.6367	41.0156	73.6799	41.0156	73.6194	41.0156	73.684	41.0156	73.6	41.0156	73.6858	41.0156	73.5793	41.0156	73.6858	41.0156	73.5579	41.0156	73.6844	41.0156	73.5368	41.0156	73.6818	41.0156	73.5171	41.0156	73.678	41.0156	73.4998	41.0156	73.6728	41.0156	73.4859	41.0156	73.6657	41.0156	73.4763	41.0156	73.6564	41.0156	73.4718	41.0156	73.6447	41.0156	73.4728	41.0156	73.6308	41.0156	73.4792	41.0156	73.6152	41.0156	73.4905	41.0156	73.5982	41.0156	73.5057	41.0156	73.5803	41.0156	73.5234	41.0156	73.5616	41.0156	73.5424
42.4805	73.6791	42.4805	73.6792	42.4805	73.6757	42.4805	73.6758	42.4805	73.6692	42.4805	73.6691	42.4805	73.6606	42.4805	73.6598	42.4805	73.6506	42.4805	73.6489	42.4805	73.6403	42.4805	73.6377	42.4805	73.6304	42.4805	73.6276	42.4805	73.622	42.4805	73.6199	42.4805	73.616	42.4805	73.6156	42.4805	73.613	42.4805	73.6153	42.4805	73.6134	42.4805	73.6189	42.4805	73.6174	42.4805	73.6259	42.4805	73.6244	42.4805	73.6353	42.4805	73.6336	42.4805	73.6455	42.4805	73.6436	42.4805	73.6551	42.4805	73.6532	42.4805	73.6627	42.4805	73.6612	42.4805	73.6674	42.4805	73.6665	42.4805	73.6687
43.9453	74.2148	43.9453	74.2013	43.9453	74.226	43.9453	74.1864	43.9453	74.2346	43.9453	74.1708	43.9453	74.2403	43.9453	74.1554	43.9453	74.2429	43.9453	74.1411	43.9453	74.2426	43.9453	74.1285	43.9453	74.2399	43.9453	74.1185	43.9453	74.2354	43.9453	74.1116	43.9453	74.2297	43.9453	74.1081	43.9453	74.2238	43.9453	74.108	43.9453	74.2181	43.9453	74.1112	43.9453	74.2132	43.9453	74.1173	43.9453	74.209	43.9453	74.1258	43.9453	74.2052	43.9453	74.1358	43.9453	74.2015	43.9453	74.1467	43.9453	74.1972	43.9453	74.1577	43.9453	74.1919	43.9453	74.168	43.9453	74.1853	43.9453	74.1773
45.4102	74.5486	45.4102	74.5381	45.4102	74.5562	45.4102	74.525	45.4102	74.5605	45.4102	74.5099	45.4102	74.5614	45.4102	74.4935	45.4102	74.559	45.4102	74.4765	45.4102	74.5534	45.4102	74.4597	45.4102	74.5448	45.4102	74.4442	45.4102	74.5339	45.4102	74.4306	45.4102	74.5213	45.4102	74.4197	45.4102	74.508	45.4102	74.412	45.4102	74.4949	45.4102	74.4078	45.4102	74.4828	45.4102	74.407	45.4102	74.4725	45.4102	74.4092	45.4102	74.4642	45.4102	74.4138	45.4102	74.4579	45.4102	74.4199	45.4102	74.4529	45.4102	74.4266	45.4102	74.4485	45.4102	74.4332	45.4102	74.4441	45.4102	74.4391
46.875	74.9316	46.875	74.9307	46.875	74.9304	46.875	74.9276	46.875	74.9271	46.875	74.9224	46.875	74.9217	46.875	74.9153	46.875	74.9142	46.875	74.9063	46.875	74.9048	46.875	74.8957	46.875	74.8936	46.875	74.8839	46.875	74.8811	46.875	74.871	46.875	74.8678	46.875	74.8577	46.875	74.8544	46.875	74.8445	46.875	74.8417	46.875	74.832	46.875	74.8302	46.875	74.8209	46.875	74.8204	46.875	74.8118	46.875	74.8126	46.875	74.8049	46.875	74.8067	46.875	74.8003	46.875	74.8025	46.875	74.7977	46.875	74.7997	46.875	74.7967	46.875	74.7978	46.875	74.7968
48.3398	75.051	48.3398	75.041	48.3398	75.061	48.3398	75.0317	48.3398	75.0705	48.3398	75.0235	48.3398	75.0788	48.3398	75.0167	48.3398	75.0852	48.3398	75.0114	48.3398	75.0894	48.3398	75.0077	48.3398	75.0913	48.3398	75.0058	48.3398	75.0911	48.3398	75.0057	48.3398	75.0893	48.3398	75.0075	48.3398	75.0865	48.3398	75.0115	48.3398	75.0834	48.3398	75.0174	48.3398	75.0807	48.3398	75.025	48.3398	75.0786	48.3398	75.0338	48.3398	75.0773	48.3398	75.043	48.3398	75.0767	48.3398	75.052	48.3398	75.0763	48.3398	75.0599	48.3398	75.0755	48.3398	75.0663	48.3398	75.0739	48.3398	75.071
51.2695	75.7774	51.2695	75.7805	51.2695	75.7701	51.2695	75.7793	51.2695	75.7586	51.2695	75.7739	51.2695	75.7431	51.2695	75.7646	51.2695	75.7239	51.2695	75.7517	51.2695	75.7017	51.2695	75.7356	51.2695	75.677	51.2695	75.7167	51.2695	75.6508	51.2695	75.6957	51.2695	75.6241	51.2695	75.673	51.2695	75.5978	51.2695	75.6494	51.2695	75.5731	51.2695	75.6253	51.2695	75.5508	51.2695	75.6015	51.2695	75.5318	51.2695	75.5787	51.2695	75.5165	51.2695	75.5576	51.2695	75.5052	51.2695	75.5389	51.2695	75.4982	51.2695	75.5231	51.2695	75.4952	51.2695	75.5105	51.2695	75.4964	51.2695	75.5016
52.7344	76.0645	52.7344	76.0649	52.7344	76.0611	52.7344	76.0622	52.7344	76.0546	52.7344	76.0566	52.7344	76.0452	52.7344	76.0483	52.7344	76.0331	52.7344	76.0375	52.7344	76.0185	52.7344	76.0244	52.7344	76.0021	52.7344	76.0093	52.7344	75.9843	52.7344	75.9925	52.7344	75.9657	52.7344	75.9744	52.7344	75.947	52.7344	75.9556	52.7344	75.9288	52.7344	75.9366	52.7344	75.9114	52.7344	75.918	52.7344	75.8954	52.7344	75.9005	52.7344	75.8811	52.7344	75.8847	52.7344	75.8689	52.7344	75.8713	52.7344	75.8593	52.7344	75.8607	52.7344	75.8526	52.7344	75.8533	52.7344	75.8493	52.7344	75.8495
54.1992	76.3107	54.1992	76.3093	54.1992	76.3095	54.1992	76.3056	54.1992	76.3057	54.1992	76.2998	54.1992	76.2992	54.1992	76.2921	54.1992	76.2902	54.1992	76.2829	54.1992	76.2788	54.1992	76.2722	54.1992	76.2654	54.1992	76.2601	54.1992	76.2504	54.1992	76.2468	54.1992	76.2343	54.1992	76.2324	54.1992	76.2176	54.1992	76.2169	54.1992	76.2008	54.1992	76.2007	54.1992	76.1843	54.1992	76.1843	54.1992	76.1687	54.1992	76.1683	54.1992	76.1545	54.1992	76.1536	54.1992	76.1422	54.1992	76.1409	54.1992	76.1323	54.1992	76.1309	54.1992	76.1252	54.1992	76.1242	54.1992	76.1213	54.1992	76.121
55.6641	76.5398	55.6641	76.5394	55.6641	76.5368	55.6641	76.5359	55.6641	76.5305	55.6641	76.5294	55.6641	76.521	55.6641	76.5203	55.6641	76.5084	55.6641	76.5087	55.6641	76.493	55.6641	76.495	55.6641	76.4751	55.6641	76.4792	55.6641	76.4552	55.6641	76.4615	55.6641	76.4337	55.6641	76.4421	55.6641	76.4112	55.6641	76.4211	55.6641	76.3884	55.6641	76.3988	55.6641	76.366	55.6641	76.3761	55.6641	76.3447	55.6641	76.3536	55.6641	76.3254	55.6641	76.3326	55.6641	76.3089	55.6641	76.3142	55.6641	76.2958	55.6641	76.2993	55.6641	76.2869	55.6641	76.2888	55.6641	76.2826	55.6641	76.2832
58.5938	76.9958	58.5938	76.9936	58.5938	76.994	58.5938	76.9875	58.5938	76.9884	58.5938	76.9774	58.5938	76.9792	58.5938	76.9636	58.5938	76.9664	58.5938	76.9462	58.5938	76.9504	58.5938	76.9254	58.5938	76.9314	58.5938	76.9016	58.5938	76.9099	58.5938	76.8753	58.5938	76.8862	58.5938	76.8471	58.5938	76.8608	58.5938	76.8176	58.5938	76.8343	58.5938	76.7881	58.5938	76.8072	58.5938	76.7596	58.5938	76.7803	58.5938	76.7334	58.5938	76.7544	58.5938	76.7108	58.5938	76.7306	58.5938	76.6929	58.5938	76.7097	58.5938	76.6805	58.5938	76.6928	58.5938	76.6743	58.5938	76.6808	58.5938	76.6745
60.0586	77.2785	60.0586	77.2763	60.0586	77.2761	60.0586	77.2696	60.0586	77.269	60.0586	77.2584	60.0586	77.2574	60.0586	77.2428	60.0586	77.2413	60.0586	77.223	60.0586	77.2209	60.0586	77.1993	60.0586	77.1964	60.0586	77.1719	60.0586	77.1683	60.0586	77.1413	60.0586	77.1369	60.0586	77.108	60.0586	77.1029	60.0586	77.0727	60.0586	77.0671	60.0586	77.0364	60.0586	77.0303	60.0586	77.0002	60.0586	76.9938	60.0586	76.9655	60.0586	76.9589	60.0586	76.9339	60.0586	76.9275	60.0586	76.9069	60.0586	76.9011	60.0586	76.8858	60.0586	76.8814	60.0586	76.8721	60.0586	76.8697	60.0586	76.8665
62.9883	77.7401	62.9883	77.7392	62.9883	77.7366	62.9883	77.7339	62.9883	77.7286	62.9883	77.7243	62.9883	77.7162	62.9883	77.7105	62.9883	77.6996	62.9883	77.6927	62.9883	77.6788	62.9883	77.6711	62.9883	77.6543	62.9883	77.6459	62.9883	77.6265	62.9883	77.6174	62.9883	77.5957	62.9883	77.586	62.9883	77.5628	62.9883	77.5524	62.9883	77.5285	62.9883	77.5174	62.9883	77.4937	62.9883	77.4821	62.9883	77.4596	62.9883	77.448	62.9883	77.4276	62.9883	77.4166	62.9883	77.3992	62.9883	77.3894	62.9883	77.3758	62.9883	77.3681	62.9883	77.3587	62.9883	77.3538	62.9883	77.349	62.9883	77.3473
64.4531	77.9656	64.4531	77.9628	64.4531	77.9635	64.4531	77.9552	64.4531	77.9565	64.4531	77.9429	64.4531	77.9446	64.4531	77.9262	64.4531	77.9281	64.4531	77.9053	64.4531	77.9072	64.4531	77.8804	64.4531	77.8822	64.4531	77.8521	64.4531	77.8536	64.4531	77.8208	64.4531	77.822	64.4531	77.7871	64.4531	77.788	64.4531	77.7517	64.4531	77.7525	64.4531	77.7157	64.4531	77.7164	64.4531	77.6802	64.4531	77.6808	64.4531	77.6465	64.4531	77.647	64.4531	77.6161	64.4531	77.6165	64.4531	77.5905	64.4531	77.5908	64.4531	77.5711	64.4531	77.5713	64.4531	77.559	64.4531	77.5591	64.4531	77.5549
67.3828	78.34	67.3828	78.3373	67.3828	78.3378	67.3828	78.3297	67.3828	78.3308	67.3828	78.3173	67.3828	78.319	67.3828	78.3004	67.3828	78.3027	67.3828	78.2792	67.3828	78.2823	67.3828	78.2542	67.3828	78.258	67.3828	78.2257	67.3828	78.2304	67.3828	78.1945	67.3828	78.2002	67.3828	78.1613	67.3828	78.1679	67.3828	78.1269	67.3828	78.1343	67.3828	78.0923	67.3828	78.1004	67.3828	78.0587	67.3828	78.067	67.3828	78.0274	67.3828	78.0352	67.3828	77.9996	67.3828	78.0063	67.3828	77.9766	67.3828	77.9818	67.3828	77.9594	67.3828	77.9629	67.3828	77.9491	67.3828	77.9508	67.3828	77.9461
68.8477	78.5308	68.8477	78.5297	68.8477	78.5264	68.8477	78.5232	68.8477	78.5165	68.8477	78.5114	68.8477	78.5013	68.8477	78.4947	68.8477	78.4812	68.8477	78.4736	68.8477	78.4567	68.8477	78.4484	68.8477	78.4283	68.8477	78.4198	68.8477	78.3969	68.8477	78.3884	68.8477	78.3633	68.8477	78.3551	68.8477	78.3285	68.8477	78.3207	68.8477	78.2935	68.8477	78.2863	68.8477	78.2593	68.8477	78.2529	68.8477	78.2269	68.8477	78.2216	68.8477	78.1976	68.8477	78.1936	68.8477	78.1723	68.8477	78.1698	68.8477	78.1522	68.8477	78.1509	68.8477	78.1383	68.8477	78.1377	68.8477	78.1311	68.8477	78.131
71.7773	78.9904	71.7773	78.984	71.7773	78.9912	71.7773	78.9721	71.7773	78.9863	71.7773	78.9549	71.7773	78.9757	71.7773	78.9326	71.7773	78.9595	71.7773	78.9056	71.7773	78.9378	71.7773	78.8745	71.7773	78.9108	71.7773	78.8398	71.7773	78.8787	71.7773	78.8024	71.7773	78.8422	71.7773	78.763	71.7773	78.8021	71.7773	78.7228	71.7773	78.7596	71.7773	78.683	71.7773	78.7161	71.7773	78.645	71.7773	78.6733	71.7773	78.6102	71.7773	78.6329	71.7773	78.5797	71.7773	78.5967	71.7773	78.5548	71.7773	78.5665	71.7773	78.5364	71.7773	78.5436	71.7773	78.5256	71.7773	78.5289	71.7773	78.5229
74.707	79.4727	74.707	79.4661	74.707	79.4726	74.707	79.453	74.707	79.4658	74.707	79.4336	74.707	79.4524	74.707	79.4081	74.707	79.4326	74.707	79.377	74.707	79.4066	74.707	79.341	74.707	79.3747	74.707	79.3007	74.707	79.3374	74.707	79.257	74.707	79.2954	74.707	79.211	74.707	79.2495	74.707	79.1638	74.707	79.2009	74.707	79.1169	74.707	79.1511	74.707	79.0717	74.707	79.1018	74.707	79.0299	74.707	79.055	74.707	78.9931	74.707	79.0128	74.707	78.9629	74.707	78.9771	74.707	78.9408	74.707	78.9498	74.707	78.9278	74.707	78.9321	74.707	78.9248
77.6367	79.7977	77.6367	79.7914	77.6367	79.7973	77.6367	79.7787	77.6367	79.7904	77.6367	79.7597	77.6367	79.777	77.6367	79.7347	77.6367	79.7575	77.6367	79.7043	77.6367	79.7321	77.6367	79.6689	77.6367	79.701	77.6367	79.6295	77.6367	79.6649	77.6367	79.5868	77.6367	79.6241	77.6367	79.542	77.6367	79.5794	77.6367	79.496	77.6367	79.5318	77.6367	79.4503	77.6367	79.4829	77.6367	79.4062	77.6367	79.4344	77.6367	79.3653	77.6367	79.3884	77.6367	79.3292	77.6367	79.3469	77.6367	79.2994	77.6367	79.312	77.6367	79.2774	77.6367	79.2854	77.6367	79.2644	77.6367	79.2682	77.6367	79.2612
79.1016	79.9915	79.1016	79.9877	79.1016	79.9883	79.1016	79.9769	79.1016	79.9782	79.1016	79.9594	79.1016	79.9615	79.1016	79.9354	79.1016	79.9387	79.1016	79.9054	79.1016	79.91	79.1016	79.8702	79.1016	79.8759	79.1016	79.8304	79.1016	79.8372	79.1016	79.7871	79.1016	79.7943	79.1016	79.7413	79.1016	79.7482	79.1016	79.6942	79.1016	79.7	79.1016	79.6474	79.1016	79.6514	79.1016	79.6022	79.1016	79.604	79.1016	79.5602	79.1016	79.56	79.1016	79.523	79.1016	79.5212	79.1016	79.4921	79.1016	79.4895	79.1016	79.4686	79.1016	79.4662	79.1016	79.4537	79.1016	79.4523	79.1016	79.4481
82.0312	80.5672	82.0312	80.5738	82.0312	80.5495	82.0312	80.5693	82.0312	80.5213	82.0312	80.5537	82.0312	80.4827	82.0312	80.5269	82.0312	80.4343	82.0312	80.4894	82.0312	80.3768	82.0312	80.4419	82.0312	80.3109	82.0312	80.3851	82.0312	80.2377	82.0312	80.3202	82.0312	80.1588	82.0312	80.2488	82.0312	80.076	82.0312	80.1723	82.0312	79.9919	82.0312	80.0928	82.0312	79.9096	82.0312	80.0126	82.0312	79.8327	82.0312	79.934	82.0312	79.765	82.0312	79.8598	82.0312	79.7102	82.0312	79.7927	82.0312	79.671	82.0312	79.7354	82.0312	79.6493	82.0312	79.6904	82.0312	79.6457	82.0312	79.6599
84.9609	80.7917	84.9609	80.7783	84.9609	80.7922	84.9609	80.752	84.9609	80.78	84.9609	80.7131	84.9609	80.7554	84.9609	80.6621	84.9609	80.7189	84.9609	80.5999	84.9609	80.671	84.9609	80.5275	84.9609	80.6123	84.9609	80.4463	84.9609	80.5435	84.9609	80.3579	84.9609	80.4652	84.9609	80.264	84.9609	80.3784	84.9609	80.1669	84.9609	80.2847	84.9609	80.0688	84.9609	80.1859	84.9609	79.9726	84.9609	80.0847	84.9609	79.8818	84.9609	79.9845	84.9609	79.8004	84.9609	79.8893	84.9609	79.7331	84.9609	79.8042	84.9609	79.6846	84.9609	79.7343	84.9609	79.659	84.9609	79.6846	84.9609	79.6589
87.8906	80.8952	87.8906	80.8759	87.8906	80.9125	87.8906	80.8551	87.8906	80.9272	87.8906	80.8334	87.8906	80.9389	87.8906	80.8114	87.8906	80.9469	87.8906	80.79	87.8906	80.9505	87.8906	80.7698	87.8906	80.9491	87.8906	80.7515	87.8906	80.942	87.8906	80.7357	87.8906	80.929	87.8906	80.7224	87.8906	80.9099	87.8906	80.7118	87.8906	80.8853	87.8906	80.7035	87.8906	80.8564	87.8906	80.6969	87.8906	80.8247	87.8906	80.6915	87.8906	80.7922	87.8906	80.6868	87.8906	80.7612	87.8906	80.683	87.8906	80.7337	87.8906	80.6807	87.8906	80.7114	87.8906	80.681	87.8906	80.6953	87.8906	80.6854
90.8203	81.1863	90.8203	81.1634	90.8203	81.2084	90.8203	81.1403	90.8203	81.2293	90.8203	81.118	90.8203	81.2488	90.8203	81.0978	90.8203	81.2668	90.8203	81.0812	90.8203	81.2831	90.8203	81.0695	90.8203	81.2975	90.8203	81.0639	90.8203	81.3095	90.8203	81.0652	90.8203	81.3188	90.8203	81.0732	90.8203	81.325	90.8203	81.0876	90.8203	81.328	90.8203	81.107	90.8203	81.3279	90.8203	81.1301	90.8203	81.3251	90.8203	81.1552	90.8203	81.3201	90.8203	81.181	90.8203	81.3135	90.8203	81.2062	90.8203	81.3054	90.8203	81.2296	90.8203	81.2955	90.8203	81.2505	90.8203	81.2833	90.8203	81.2684
95.2148	81.5914	95.2148	81.5865	95.2148	81.592	95.2148	81.5771	95.2148	81.5892	95.2148	81.5627	95.2148	81.5836	95.2148	81.5434	95.2148	81.5759	95.2148	81.5192	95.2148	81.5668	95.2148	81.4909	95.2148	81.5571	95.2148	81.4598	95.2148	81.5474	95.2148	81.4277	95.2148	81.5382	95.2148	81.3969	95.2148	81.5297	95.2148	81.3702	95.2148	81.5217	95.2148	81.3501	95.2148	81.5138	95.2148	81.3386	95.2148	81.5053	95.2148	81.3364	95.2148	81.4955	95.2148	81.3433	95.2148	81.4841	95.2148	81.3573	95.2148	81.4707	95.2148	81.376	95.2148	81.4551	95.2148	81.3968	95.2148	81.4374	95.2148	81.4178
98.1445	81.9389	98.1445	81.9435	98.1445	81.9204	98.1445	81.9346	98.1445	81.8888	98.1445	81.9136	98.1445	81.8456	98.1445	81.8823	98.1445	81.7937	98.1445	81.843	98.1445	81.7367	98.1445	81.7979	98.1445	81.6788	98.1445	81.7495	98.1445	81.6241	98.1445	81.7001	98.1445	81.5761	98.1445	81.6518	98.1445	81.5373	98.1445	81.6065	98.1445	81.5083	98.1445	81.5659	98.1445	81.4882	98.1445	81.5309	98.1445	81.4749	98.1445	81.5021	98.1445	81.4657	98.1445	81.4794	98.1445	81.4585	98.1445	81.4626	98.1445	81.4521	98.1445	81.4509	98.1445	81.4465	98.1445	81.4441	98.1445	81.4426	98.1445	81.4416
101.074	82.7356	101.074	82.7318	101.074	82.7194	101.074	82.7089	101.074	82.6827	101.074	82.6688	101.074	82.626	101.074	82.6137	101.074	82.5505	101.074	82.5463	101.074	82.4582	101.074	82.4695	101.074	82.3521	101.074	82.3861	101.074	82.2357	101.074	82.2988	101.074	82.1137	101.074	82.2096	101.074	81.9909	101.074	82.1206	101.074	81.8728	101.074	82.033	101.074	81.7646	101.074	81.948	101.074	81.6708	101.074	81.8661	101.074	81.5953	101.074	81.788	101.074	81.5407	101.074	81.7145	101.074	81.5085	101.074	81.6473	101.074	81.499	101.074	81.5887	101.074	81.5111	101.074	81.5421
105.469	82.7947	105.469	82.7933	105.469	82.7838	105.469	82.7791	105.469	82.7616	105.469	82.7519	105.469	82.7292	105.469	82.7123	105.469	82.6881	105.469	82.6614	105.469	82.6396	105.469	82.6011	105.469	82.5854	105.469	82.5341	105.469	82.5272	105.469	82.4635	105.469	82.467	105.469	82.3925	105.469	82.4068	105.469	82.3244	105.469	82.3485	105.469	82.2623	105.469	82.294	105.469	82.2083	105.469	82.2448	105.469	82.1641	105.469	82.2019	105.469	82.1302	105.469	82.166	105.469	82.1065	105.469	82.137	105.469	82.0925	105.469	82.1147	105.469	82.0872	105.469	82.0989	105.469	82.0895
108.398	83.0976	108.398	83.0989	108.398	83.0821	108.398	83.0854	108.398	83.0537	108.398	83.0572	108.398	83.0141	108.398	83.0151	108.398	82.9656	108.398	82.9605	108.398	82.9104	108.398	82.8958	108.398	82.851	108.398	82.8233	108.398	82.7895	108.398	82.746	108.398	82.728	108.398	82.6668	108.398	82.6679	108.398	82.5887	108.398	82.6105	108.398	82.5145	108.398	82.5564	108.398	82.4466	108.398	82.5057	108.398	82.3877	108.398	82.4583	108.398	82.34	108.398	82.4141	108.398	82.3055	108.398	82.3735	108.398	82.2854	108.398	82.3376	108.398	82.28	108.398	82.3084	108.398	82.2883
112.793	83.3691	112.793	83.3757	112.793	83.3505	112.793	83.3701	112.793	83.3212	112.793	83.3528	112.793	83.2828	112.793	83.325	112.793	83.2379	112.793	83.2886	112.793	83.189	112.793	83.2462	112.793	83.1386	112.793	83.2004	112.793	83.0893	112.793	83.1539	112.793	83.0432	112.793	83.1089	112.793	83.0023	112.793	83.0676	112.793	82.9681	112.793	83.0314	112.793	82.9417	112.793	83.0013	112.793	82.9233	112.793	82.9774	112.793	82.9127	112.793	82.9595	112.793	82.9086	112.793	82.9466	112.793	82.9094	112.793	82.9374	112.793	82.9132	112.793	82.9304	112.793	82.9185	112.793	82.9243
117.188	84.1477	117.188	84.1207	117.188	84.1521	117.188	84.0729	117.188	84.1336	117.188	84.0067	117.188	84.0928	117.188	83.9259	117.188	84.0319	117.188	83.8349	117.188	83.9544	117.188	83.7387	117.188	83.8648	117.188	83.643	117.188	83.7686	117.188	83.5532	117.188	83.6713	117.188	83.474	117.188	83.5779	117.188	83.4087	117.188	83.4925	117.188	83.3587	117.188	83.418	117.188	83.3232	117.188	83.3562	117.188	83.2997	117.188	83.308	117.188	83.2842	117.188	83.2735	117.188	83.2731	117.188	83.2521	117.188	83.2635	117.188	83.242	117.188	83.2543	117.188	83.241	117.188	83.2461
120.117	84.3765	120.117	84.35	120.117	84.3816	120.117	84.3027	120.117	84.3651	120.117	84.2359	120.117	84.3278	120.117	84.1517	120.117	84.2709	120.117	84.0529	120.117	84.1972	120.117	83.9436	120.117	84.11	120.117	83.8286	120.117	84.014	120.117	83.7136	120.117	83.9141	120.117	83.6042	120.117	83.815	120.117	83.5057	120.117	83.7208	120.117	83.4222	120.117	83.6341	120.117	83.3564	120.117	83.5563	120.117	83.3089	120.117	83.4881	120.117	83.2788	120.117	83.4293	120.117	83.2638	120.117	83.3798	120.117	83.2611	120.117	83.3394	120.117	83.2683	120.117	83.3076	120.117	83.2839
124.512	84.6759	124.512	84.6683	124.512	84.6625	124.512	84.6401	124.512	84.628	124.512	84.5924	124.512	84.573	124.512	84.5264	124.512	84.4987	124.512	84.4442	124.512	84.4076	124.512	84.3483	124.512	84.303	124.512	84.2423	124.512	84.1897	124.512	84.1303	124.512	84.0731	124.512	84.0174	124.512	83.9593	124.512	83.9087	124.512	83.8538	124.512	83.8089	124.512	83.7608	124.512	83.7219	124.512	83.6831	124.512	83.6501	124.512	83.6212	124.512	83.5943	124.512	83.5745	124.512	83.5538	124.512	83.5412	124.512	83.5267	124.512	83.5195	124.512	83.511	124.512	83.5078	124.512	83.505
128.906	84.8031	128.906	84.7883	128.906	84.7974	128.906	84.7538	128.906	84.7712	128.906	84.7011	128.906	84.7257	128.906	84.6326	128.906	84.6626	128.906	84.5509	128.906	84.5848	128.906	84.4593	128.906	84.4958	128.906	84.3608	128.906	84.3994	128.906	84.259	128.906	84.2999	128.906	84.1572	128.906	84.2014	128.906	84.0588	128.906	84.1078	128.906	83.9673	128.906	84.0221	128.906	83.886	128.906	83.9463	128.906	83.8178	128.906	83.8813	128.906	83.7649	128.906	83.8271	128.906	83.7281	128.906	83.783	128.906	83.707	128.906	83.7482	128.906	83.7004	128.906	83.7225	128.906	83.7061
133.301	84.9537	133.301	84.9413	133.301	84.9448	133.301	84.9076	133.301	84.9155	133.301	84.8534	133.301	84.8672	133.301	84.7805	133.301	84.8021	133.301	84.6917	133.301	84.7234	133.301	84.5907	133.301	84.6346	133.301	84.4821	133.301	84.5399	133.301	84.3712	133.301	84.444	133.301	84.2636	133.301	84.3514	133.301	84.1648	133.301	84.2661	133.301	84.0794	133.301	84.1912	133.301	84.0109	133.301	84.1284	133.301	83.961	133.301	84.0777	133.301	83.9296	133.301	84.0377	133.301	83.9149	133.301	84.0058	133.301	83.9138	133.301	83.9797	133.301	83.9226	133.301	83.9573	133.301	83.9379
139.16	85.1892	139.16	85.187	139.16	85.1676	139.16	85.1608	139.16	85.1242	139.16	85.1118	139.16	85.0617	139.16	85.0427	139.16	84.9844	139.16	84.9576	139.16	84.8969	139.16	84.8615	139.16	84.8043	139.16	84.7603	139.16	84.7118	139.16	84.6597	139.16	84.624	139.16	84.5655	139.16	84.5454	139.16	84.4825	139.16	84.4789	139.16	84.414	139.16	84.4266	139.16	84.3622	139.16	84.3885	139.16	84.3272	139.16	84.3633	139.16	84.3076	139.16	84.3479	139.16	84.3007	139.16	84.3388	139.16	84.3027	139.16	84.3323	139.16	84.3096	139.16	84.3258	139.16	84.318
143.555	85.5075	143.555	85.5048	143.555	85.4834	143.555	85.4759	143.555	85.4333	143.555	85.4225	143.555	85.3595	143.555	85.3475	143.555	85.2655	143.555	85.255	143.555	85.1561	143.555	85.1498	143.555	85.0372	143.555	85.0376	143.555	84.9153	143.555	84.9237	143.555	84.7968	143.555	84.8136	143.555	84.6879	143.555	84.7117	143.555	84.5937	143.555	84.6213	143.555	84.5175	143.555	84.5449	143.555	84.4605	143.555	84.4836	143.555	84.4214	143.555	84.4374	143.555	84.397	143.555	84.4054	143.555	84.3831	143.555	84.3856	143.555	84.3757	143.555	84.3754	143.555	84.3722	143.555	84.3717
147.949	85.6861	147.949	85.6693	147.949	85.6759	147.949	85.6256	147.949	85.6396	147.949	85.5572	147.949	85.5797	147.949	85.4677	147.949	85.4995	147.949	85.3623	147.949	85.4034	147.949	85.2477	147.949	85.2965	147.949	85.1312	147.949	85.1845	147.949	85.0201	147.949	85.0733	147.949	84.9206	147.949	84.9688	147.949	84.8371	147.949	84.8763	147.949	84.7712	147.949	84.7999	147.949	84.7225	147.949	84.7415	147.949	84.6888	147.949	84.7009	147.949	84.6672	147.949	84.6757	147.949	84.6548	147.949	84.6617	147.949	84.649	147.949	84.6546	147.949	84.6475	147.949	84.6508	147.949	84.6485
153.809	85.9013	153.809	85.9013	153.809	85.867	153.809	85.8674	153.809	85.8	153.809	85.8014	153.809	85.7035	153.809	85.707	153.809	85.5825	153.809	85.5892	153.809	85.4438	153.809	85.4549	153.809	85.2957	153.809	85.3124	153.809	85.1469	153.809	85.1708	153.809	85.0063	153.809	85.0393	153.809	84.8813	153.809	84.9258	153.809	84.7772	153.809	84.8352	153.809	84.6971	153.809	84.769	153.809	84.6414	153.809	84.7248	153.809	84.6083	153.809	84.6972	153.809	84.5946	153.809	84.6797	153.809	84.5955	153.809	84.6664	153.809	84.606	153.809	84.6531	153.809	84.6215	153.809	84.638
159.668	86.1712	159.668	86.1643	159.668	86.1487	159.668	86.1292	159.668	86.0961	159.668	86.0685	159.668	86.0145	159.668	85.9851	159.668	85.9062	159.668	85.8827	159.668	85.7755	159.668	85.7655	159.668	85.628	159.668	85.6392	159.668	85.4712	159.668	85.5101	159.668	85.3137	159.668	85.3857	159.668	85.165	159.668	85.2729	159.668	85.0342	159.668	85.1775	159.668	84.929	159.668	85.1023	159.668	84.8539	159.668	85.0471	159.668	84.8102	159.668	85.0079	159.668	84.7953	159.668	84.979	159.668	84.8039	159.668	84.9536	159.668	84.8285	159.668	84.9267	159.668	84.8614	159.668	84.8956
165.527	86.3633	165.527	86.3481	165.527	86.3462	165.527	86.3015	165.527	86.2979	165.527	86.2267	165.527	86.2214	165.527	86.1284	165.527	86.1217	165.527	86.0124	165.527	86.005	165.527	85.8855	165.527	85.8781	165.527	85.7544	165.527	85.7486	165.527	85.6257	165.527	85.6233	165.527	85.5058	165.527	85.5088	165.527	85.4004	165.527	85.4102	165.527	85.3143	165.527	85.331	165.527	85.2504	165.527	85.2729	165.527	85.2092	165.527	85.2348	165.527	85.1881	165.527	85.2138	165.527	85.1825	165.527	85.2049	165.527	85.1861	165.527	85.2027	165.527	85.1931	165.527	85.2019	165.527	85.199
171.387	86.3919	171.387	86.3739	171.387	86.3757	171.387	86.3229	171.387	86.3259	171.387	86.2423	171.387	86.2451	171.387	86.1373	171.387	86.1376	171.387	86.0145	171.387	86.0096	171.387	85.8819	171.387	85.8689	171.387	85.7478	171.387	85.7243	171.387	85.62	171.387	85.5853	171.387	85.5054	171.387	85.4611	171.387	85.409	171.387	85.359	171.387	85.3335	171.387	85.2839	171.387	85.2797	171.387	85.2366	171.387	85.246	171.387	85.2141	171.387	85.2292	171.387	85.2104	171.387	85.225	171.387	85.2174	171.387	85.2282	171.387	85.2275	171.387	85.2337	171.387	85.235	171.387	85.2369
177.246	86.3164	177.246	86.3015	177.246	86.3027	177.246	86.2581	177.246	86.2612	177.246	86.1878	177.246	86.1937	177.246	86.0942	177.246	86.1027	177.246	85.9832	177.246	85.9924	177.246	85.8632	177.246	85.8684	177.246	85.7444	177.246	85.7381	177.246	85.6375	177.246	85.61	177.246	85.5515	177.246	85.4935	177.246	85.4913	177.246	85.3966	177.246	85.4567	177.246	85.3256	177.246	85.4427	177.246	85.2829	177.246	85.4413	177.246	85.2672	177.246	85.444	177.246	85.2742	177.246	85.4438	177.246	85.2972	177.246	85.4365	177.246	85.3291	177.246	85.4201	177.246	85.3635	177.246	85.3951
183.105	86.4145	183.105	86.4008	183.105	86.3853	183.105	86.344	183.105	86.3164	183.105	86.2463	183.105	86.2131	183.105	86.1131	183.105	86.0833	183.105	85.9524	183.105	85.9367	183.105	85.7751	183.105	85.7845	183.105	85.5948	183.105	85.6389	183.105	85.4272	183.105	85.5117	183.105	85.2884	183.105	85.4134	183.105	85.1921	183.105	85.3513	183.105	85.1463	183.105	85.3284	183.105	85.1511	183.105	85.3422	183.105	85.1987	183.105	85.3847	183.105	85.2753	183.105	85.4432	183.105	85.3647	183.105	85.503	183.105	85.4508	183.105	85.5496	183.105	85.5198	183.105	85.5714	183.105	85.5617
188.965	86.6713	188.965	86.682	188.965	86.6144	188.965	86.6463	188.965	86.5136	188.965	86.5655	188.965	86.373	188.965	86.4432	188.965	86.1987	188.965	86.285	188.965	85.9992	188.965	86.0994	188.965	85.7852	188.965	85.8975	188.965	85.5699	188.965	85.6938	188.965	85.368	188.965	85.5054	188.965	85.1945	188.965	85.3493	188.965	85.0625	188.965	85.2393	188.965	84.9811	188.965	85.1808	188.965	84.953	188.965	85.1699	188.965	84.9738	188.965	85.1934	188.965	85.0317	188.965	85.2336	188.965	85.1095	188.965	85.2721	188.965	85.1885	188.965	85.2937	188.965	85.2517	188.965	85.2881
196.289	86.9046	196.289	86.878	196.289	86.8853	196.289	86.8068	196.289	86.8201	196.289	86.6934	196.289	86.7107	196.289	86.5418	196.289	86.561	196.289	86.3581	196.289	86.3776	196.289	86.1518	196.289	86.1711	196.289	85.9357	196.289	85.9557	196.289	85.7253	196.289	85.7481	196.289	85.5379	196.289	85.5656	196.289	85.3889	196.289	85.4225	196.289	85.289	196.289	85.3271	196.289	85.2408	196.289	85.2794	196.289	85.2378	196.289	85.2724	196.289	85.2666	196.289	85.2939	196.289	85.3106	196.289	85.3295	196.289	85.3543	196.289	85.3656	196.289	85.386	196.289	85.3912	196.289	85.3989
203.613	86.85	203.613	86.8484	203.613	86.8065	203.613	86.8041	203.613	86.7168	203.613	86.72	203.613	86.5812	203.613	86.6002	203.613	86.4017	203.613	86.4489	203.613	86.1824	203.613	86.2716	203.613	85.9304	203.613	86.0753	203.613	85.6566	203.613	85.8699	203.613	85.3768	203.613	85.6688	203.613	85.1115	203.613	85.4869	203.613	84.884	203.613	85.3385	203.613	84.7159	203.613	85.232	203.613	84.6209	203.613	85.1675	203.613	84.6008	203.613	85.1355	203.613	84.6438	203.613	85.1202	203.613	84.7293	203.613	85.1041	203.613	84.8332	203.613	85.0724	203.613	84.9339	203.613	85.016
210.938	86.7807	210.938	86.7681	210.938	86.7465	210.938	86.709	210.938	86.6669	210.938	86.6053	210.938	86.5449	210.938	86.4608	210.938	86.3858	210.938	86.2808	210.938	86.1967	210.938	86.0723	210.938	85.9868	210.938	85.844	210.938	85.7672	210.938	85.6069	210.938	85.5499	210.938	85.3751	210.938	85.3467	210.938	85.1659	210.938	85.1681	210.938	84.9976	210.938	85.0227	210.938	84.8844	210.938	84.9165	210.938	84.8304	210.938	84.8524	210.938	84.8265	210.938	84.8284	210.938	84.8534	210.938	84.837	210.938	84.8883	210.938	84.8648	210.938	84.912	210.938	84.8956	210.938	84.9144
218.262	86.733	218.262	86.717	218.262	86.7043	218.262	86.6578	218.262	86.6303	218.262	86.5582	218.262	86.512	218.262	86.4218	218.262	86.3529	218.262	86.254	218.262	86.1592	218.262	86.0621	218.262	85.9412	218.262	85.8556	218.262	85.7132	218.262	85.646	218.262	85.4923	218.262	85.4457	218.262	85.2963	218.262	85.268	218.262	85.1395	218.262	85.1255	218.262	85.0299	218.262	85.0276	218.262	84.9675	218.262	84.9773	218.262	84.9459	218.262	84.969	218.262	84.9547	218.262	84.9889	218.262	84.9819	218.262	85.0194	218.262	85.0147	218.262	85.0442	218.262	85.0413	218.262	85.0525
225.586	86.7339	225.586	86.728	225.586	86.6883	225.586	86.6724	225.586	86.5915	225.586	86.571	225.586	86.4461	225.586	86.4299	225.586	86.2572	225.586	86.2576	225.586	86.0338	225.586	86.0643	225.586	85.7896	225.586	85.8611	225.586	85.5436	225.586	85.6592	225.586	85.318	225.586	85.4703	225.586	85.1341	225.586	85.3064	225.586	85.0064	225.586	85.1795	225.586	84.9391	225.586	85.0995	225.586	84.9261	225.586	85.0697	225.586	84.9546	225.586	85.0834	225.586	85.0094	225.586	85.1241	225.586	85.0754	225.586	85.1705	225.586	85.1386	225.586	85.2031	225.586	85.1866	225.586	85.2096
232.91	86.7468	232.91	86.7278	232.91	86.7058	232.91	86.6501	232.91	86.6049	232.91	86.5178	232.91	86.4463	232.91	86.3382	232.91	86.2339	232.91	86.1228	232.91	85.9749	232.91	85.8876	232.91	85.682	232.91	85.6514	232.91	85.3756	232.91	85.4326	232.91	85.0844	232.91	85.2458	232.91	84.8411	232.91	85.099	232.91	84.6737	232.91	84.9958	232.91	84.5943	232.91	84.9373	232.91	84.5957	232.91	84.9225	232.91	84.6565	232.91	84.9457	232.91	84.7512	232.91	84.9928	232.91	84.8571	232.91	85.0429	232.91	84.9555	232.91	85.0746	232.91	85.0312	232.91	85.0724
241.699	86.7556	241.699	86.7194	241.699	86.7304	241.699	86.6241	241.699	86.6431	241.699	86.4741	241.699	86.4952	241.699	86.2762	241.699	86.2902	241.699	86.0401	241.699	86.0338	241.699	85.7793	241.699	85.7355	241.699	85.5117	241.699	85.4104	241.699	85.2585	241.699	85.0815	241.699	85.041	241.699	84.7806	241.699	84.8767	241.699	84.5431	241.699	84.7748	241.699	84.3974	241.699	84.7348	241.699	84.3531	241.699	84.7471	241.699	84.3974	241.699	84.795	241.699	84.5017	241.699	84.8572	241.699	84.6326	241.699	84.9113	241.699	84.7601	241.699	84.9375	241.699	84.8615	241.699	84.9224
250.488	86.6317	250.488	86.6164	250.488	86.5758	250.488	86.5313	250.488	86.4495	250.488	86.3794	250.488	86.2567	250.488	86.1666	250.488	86.0042	250.488	85.9025	250.488	85.7026	250.488	85.6023	250.488	85.3655	250.488	85.287	250.488	85.0105	250.488	84.9812	250.488	84.6612	250.488	84.7074	250.488	84.3496	250.488	84.4802	250.488	84.1127	250.488	84.3052	250.488	83.9808	250.488	84.1832	250.488	83.9602	250.488	84.1154	250.488	84.0263	250.488	84.1025	250.488	84.1348	250.488	84.1381	250.488	84.2417	250.488	84.2048	250.488	84.3168	250.488	84.2771	250.488	84.3467	250.488	84.3304
259.277	86.8318	259.277	86.7973	259.277	86.8084	259.277	86.7078	259.277	86.723	259.277	86.5646	259.277	86.5723	259.277	86.3678	259.277	86.3557	259.277	86.1193	259.277	86.0779	259.277	85.8267	259.277	85.7498	259.277	85.5071	259.277	85.388	259.277	85.189	259.277	85.0145	259.277	84.9077	259.277	84.6566	259.277	84.6946	259.277	84.349	259.277	84.5638	259.277	84.1303	259.277	84.5062	259.277	84.0302	259.277	84.4976	259.277	84.0503	259.277	84.513	259.277	84.1572	259.277	84.5359	259.277	84.2985	259.277	84.5576	259.277	84.4272	259.277	84.57	259.277	84.5164	259.277	84.561
268.066	86.3196	268.066	86.2432	268.066	86.3391	268.066	86.1174	268.066	86.2931	268.066	85.9475	268.066	86.1727	268.066	85.7366	268.066	85.9706	268.066	85.4877	268.066	85.6848	268.066	85.208	268.066	85.3213	268.066	84.9136	268.066	84.8969	268.066	84.6308	268.066	84.4392	268.066	84.3889	268.066	83.9844	268.066	84.2084	268.066	83.5759	268.066	84.092	268.066	83.2631	268.066	84.0264	268.066	83.0906	268.066	83.992	268.066	83.0767	268.066	83.9727	268.066	83.1952	268.066	83.9577	268.066	83.3845	268.066	83.9385	268.066	83.5791	268.066	83.9048	268.066	83.7362	268.066	83.8424
276.855	86.3821	276.855	86.4022	276.855	86.3109	276.855	86.3593	276.855	86.1986	276.855	86.2442	276.855	86.0483	276.855	86.0515	276.855	85.8545	276.855	85.778	276.855	85.6067	276.855	85.4225	276.855	85.298	276.855	84.9908	276.855	84.933	276.855	84.5065	276.855	84.5326	276.855	84.0194	276.855	84.13	276.855	83.5996	276.855	83.762	276.855	83.3082	276.855	83.4587	276.855	83.1614	276.855	83.2389	276.855	83.1232	276.855	83.1106	276.855	83.1367	276.855	83.0679	276.855	83.1592	276.855	83.0865	276.855	83.1743	276.855	83.1292	276.855	83.1815	276.855	83.1646	276.855	83.1805
287.109	86.2401	287.109	86.2085	287.109	86.1875	287.109	86.097	287.109	86.0606	287.109	85.9224	287.109	85.8807	287.109	85.7094	287.109	85.6727	287.109	85.4811	287.109	85.453	287.109	85.2492	287.109	85.2227	287.109	85.0082	287.109	84.9706	287.109	84.7434	287.109	84.684	287.109	84.4498	287.109	84.3612	287.109	84.1514	287.109	84.0196	287.109	83.9037	287.109	83.6972	287.109	83.768	287.109	83.4467	287.109	83.7694	287.109	83.318	287.109	83.8762	287.109	83.3338	287.109	84.0198	287.109	83.476	287.109	84.1302	287.109	83.6919	287.109	84.1582	287.109	83.9144	287.109	84.0829
297.363	85.9112	297.363	85.7822	297.363	85.9621	297.363	85.594	297.363	85.9201	297.363	85.3622	297.363	85.7845	297.363	85.0993	297.363	85.5728	297.363	84.8229	297.363	85.3144	297.363	84.5618	297.363	85.0366	297.363	84.3513	297.363	84.7538	297.363	84.2141	297.363	84.4696	297.363	84.1442	297.363	84.1871	297.363	84.1128	297.363	83.9158	297.363	84.0955	297.363	83.6714	297.363	84.0895	297.363	83.4762	297.363	84.1064	297.363	83.3619	297.363	84.1485	297.363	83.3597	297.363	84.1964	297.363	83.4753	297.363	84.217	297.363	83.6729	297.363	84.1801	297.363	83.8899	297.363	84.0695
307.617	86.0133	307.617	86.0127	307.617	85.9518	307.617	85.936	307.617	85.834	307.617	85.77	307.617	85.6557	307.617	85.5121	307.617	85.4139	307.617	85.1763	307.617	85.1225	307.617	84.7939	307.617	84.8195	307.617	84.4108	307.617	84.5514	307.617	84.0758	307.617	84.345	307.617	83.8203	307.617	84.1925	307.617	83.6428	307.617	84.0655	307.617	83.519	307.617	83.941	307.617	83.4333	307.617	83.8149	307.617	83.3969	307.617	83.7012	307.617	83.4309	307.617	83.6242	307.617	83.5293	307.617	83.6048	307.617	83.6481	307.617	83.6425	307.617	83.7322	307.617	83.7068	307.617	83.7496
319.336	86.3081	319.336	86.2514	319.336	86.2565	319.336	86.0931	319.336	86.0958	319.336	85.8418	319.336	85.8298	319.336	85.5036	319.336	85.4635	319.336	85.0811	319.336	85.004	319.336	84.5831	319.336	84.4728	319.336	84.0426	319.336	83.9251	319.336	83.5343	319.336	83.4619	319.336	83.1705	319.336	83.1966	319.336	83.046	319.336	83.1783	319.336	83.1613	319.336	83.3458	319.336	83.4134	319.336	83.5782	319.336	83.6757	319.336	83.777	319.336	83.8721	319.336	83.9042	319.336	83.9897	319.336	83.9725	319.336	84.0492	319.336	84.0128	319.336	84.0718	319.336	84.0449	319.336	84.0678
329.59	86.5241	329.59	86.4468	329.59	86.5223	329.59	86.2943	329.59	86.4375	329.59	86.0705	329.59	86.2655	329.59	85.7796	329.59	86.002	329.59	85.4247	329.59	85.6424	329.59	85.0065	329.59	85.1838	329.59	84.5278	329.59	84.6338	329.59	84.0054	329.59	84.0299	329.59	83.4862	329.59	83.4639	329.59	83.0542	329.59	83.0769	329.59	82.8048	329.59	82.9834	329.59	82.7871	329.59	83.1646	329.59	82.9637	329.59	83.4771	329.59	83.2385	329.59	83.7702	329.59	83.518	329.59	83.9651	329.59	83.7469	329.59	84.0533	329.59	83.9088	329.59	84.0604	329.59	84.0103
341.309	86.3778	341.309	86.3469	341.309	86.3009	341.309	86.2023	341.309	86.1246	341.309	85.9426	341.309	85.8594	341.309	85.5751	341.309	85.5171	341.309	85.1209	341.309	85.1106	341.309	84.6192	341.309	84.6565	341.309	84.1264	341.309	84.1825	341.309	83.7039	341.309	83.7346	341.309	83.3982	341.309	83.3751	341.309	83.2239	341.309	83.1628	341.309	83.1671	341.309	83.1241	341.309	83.2048	341.309	83.2397	341.309	83.3215	341.309	83.4566	341.309	83.5058	341.309	83.7128	341.309	83.735	341.309	83.9546	341.309	83.9673	341.309	84.1421	341.309	84.1527	341.309	84.2471	341.309	84.2518
353.027	86.835	353.027	86.7571	353.027	86.8062	353.027	86.5801	353.027	86.6637	353.027	86.3072	353.027	86.4032	353.027	85.9352	353.027	86.0237	353.027	85.4556	353.027	85.5255	353.027	84.8613	353.027	84.9106	353.027	84.1633	353.027	84.1905	353.027	83.4165	353.027	83.4049	353.027	82.7433	353.027	82.6435	353.027	82.3129	353.027	82.0527	353.027	82.234	353.027	81.787	353.027	82.4552	353.027	81.9052	353.027	82.8195	353.027	82.3135	353.027	83.1913	353.027	82.8349	353.027	83.5059	353.027	83.3164	353.027	83.7443	353.027	83.674	353.027	83.8976	353.027	83.8828	353.027	83.9507
366.211	86.8511	366.211	86.7149	366.211	86.8849	366.211	86.48	366.211	86.8149	366.211	86.1522	366.211	86.6403	366.211	85.7371	366.211	86.3587	366.211	85.2368	366.211	85.9661	366.211	84.6509	366.211	85.4583	366.211	83.9881	366.211	84.8358	366.211	83.2879	366.211	84.113	366.211	82.6405	366.211	83.3317	366.211	82.1772	366.211	82.5734	366.211	82.0036	366.211	81.957	366.211	82.1177	366.211	81.606	366.211	82.4128	366.211	81.5839	366.211	82.7581	366.211	81.8458	366.211	83.058	366.211	82.2635	366.211	83.259	366.211	82.6976	366.211	83.3333	366.211	83.0482	366.211	83.2649
379.395	87.0924	379.395	87.0784	379.395	87.0239	379.395	86.9718	379.395	86.881	379.395	86.759	379.395	86.67	379.395	86.4244	379.395	86.3927	379.395	85.956	379.395	86.0434	379.395	85.3528	379.395	85.6125	379.395	84.6311	379.395	85.1001	379.395	83.8332	379.395	84.5314	379.395	83.04	379.395	83.9605	379.395	82.3792	379.395	83.4539	379.395	81.9927	379.395	83.0668	379.395	81.9514	379.395	82.8342	379.395	82.2009	379.395	82.775	379.395	82.6083	379.395	82.8838	379.395	83.0414	379.395	83.1127	379.395	83.4014	379.395	83.3782	379.395	83.626	379.395	83.5923	379.395	83.6876
392.578	86.6814	392.578	86.6081	392.578	86.6783	392.578	86.4631	392.578	86.5871	392.578	86.2417	392.578	86.3934	392.578	85.9326	392.578	86.084	392.578	85.525	392.578	85.6489	392.578	85.0153	392.578	85.0866	392.578	84.4112	392.578	84.4142	392.578	83.7334	392.578	83.6832	392.578	83.0236	392.578	82.9872	392.578	82.3619	392.578	82.4389	392.578	81.8696	392.578	82.1163	392.578	81.6633	392.578	82.0252	392.578	81.7792	392.578	82.1236	392.578	82.1462	392.578	82.3647	392.578	82.6299	392.578	82.7009	392.578	83.0849	392.578	83.0622	392.578	83.3917	392.578	83.3537	392.578	83.4824
405.762	86.5289	405.762	86.4394	405.762	86.5238	405.762	86.2639	405.762	86.4151	405.762	86.0066	405.762	86.196	405.762	85.6604	405.762	85.8634	405.762	85.2042	405.762	85.4167	405.762	84.6106	405.762	84.8547	405.762	83.8687	405.762	84.1756	405.762	83.0204	405.762	83.3877	405.762	82.1965	405.762	82.5381	405.762	81.6075	405.762	81.756	405.762	81.4199	405.762	81.2647	405.762	81.6016	405.762	81.2488	405.762	81.9617	405.762	81.6412	405.762	82.3234	405.762	82.1717	405.762	82.6068	405.762	82.611	405.762	82.8039	405.762	82.876	405.762	82.9296	405.762	82.9866	405.762	82.9932
420.41	86.9964	420.41	86.9445	420.41	86.9526	420.41	86.7825	420.41	86.8308	420.41	86.5102	420.41	86.6381	420.41	86.141	420.41	86.3644	420.41	85.6879	420.41	85.987	420.41	85.1451	420.41	85.4829	420.41	84.4811	420.41	84.844	420.41	83.6545	420.41	84.0896	420.41	82.6548	420.41	83.2649	420.41	81.5704	420.41	82.4193	420.41	80.6591	420.41	81.5945	420.41	80.2744	420.41	80.8837	420.41	80.5302	420.41	80.5105	420.41	81.1611	420.41	80.6791	420.41	81.8344	420.41	81.2655	420.41	82.3563	420.41	81.9288	420.41	82.6458	420.41	82.4278	420.41	82.6725
435.059	86.502	435.059	86.4285	435.059	86.4836	435.059	86.2888	435.059	86.3625	435.059	86.0952	435.059	86.154	435.059	85.8273	435.059	85.8852	435.059	85.444	435.059	85.5667	435.059	84.9163	435.059	85.1738	435.059	84.2496	435.059	84.6553	435.059	83.4751	435.059	83.9686	435.059	82.6299	435.059	83.124	435.059	81.773	435.059	82.2243	435.059	81.0466	435.059	81.4669	435.059	80.6859	435.059	81.0535	435.059	80.8494	435.059	81.0505	435.059	81.429	435.059	81.3715	435.059	82.1464	435.059	81.8777	435.059	82.7562	435.059	82.4325	435.059	83.1117	435.059	82.8995	435.059	83.1537
451.172	87.2115	451.172	87.1524	451.172	87.1764	451.172	86.9931	451.172	87.0437	451.172	86.7255	451.172	86.8015	451.172	86.3469	451.172	86.4376	451.172	85.8566	451.172	85.9458	451.172	85.2423	451.172	85.3255	451.172	84.4723	451.172	84.577	451.172	83.5122	451.172	83.6981	451.172	82.3743	451.172	82.6944	451.172	81.1839	451.172	81.6218	451.172	80.2094	451.172	80.666	451.172	79.769	451.172	80.158	451.172	80.0005	451.172	80.3192	451.172	80.7183	451.172	80.9699	451.172	81.567	451.172	81.7339	451.172	82.2681	451.172	82.3544	451.172	82.7017	451.172	82.7335	451.172	82.852
465.82	87.1316	465.82	87.0685	465.82	87.0972	465.82	86.9067	465.82	86.9685	465.82	86.6488	465.82	86.7493	465.82	86.2975	465.82	86.4439	465.82	85.8468	465.82	86.0529	465.82	85.276	465.82	85.565	465.82	84.5574	465.82	84.9556	465.82	83.6765	465.82	84.1914	465.82	82.6617	465.82	83.2415	465.82	81.6104	465.82	82.1069	465.82	80.6855	465.82	80.9042	465.82	80.0604	465.82	79.984	465.82	79.8625	465.82	79.7919	465.82	80.142	465.82	80.3084	465.82	80.7862	465.82	81.0646	465.82	81.5119	465.82	81.7107	465.82	82.0441	465.82	82.1227	465.82	82.2493
483.398	87.1425	483.398	87.1344	483.398	87.0942	483.398	87.0617	483.398	87.0035	483.398	86.925	483.398	86.8767	483.398	86.7229	483.398	86.6989	483.398	86.4386	483.398	86.4312	483.398	86.0336	483.398	86.0188	483.398	85.4529	483.398	85.4068	483.398	84.638	483.398	84.5625	483.398	83.5513	483.398	83.4991	483.398	82.2312	483.398	82.2971	483.398	80.8877	483.398	81.1132	483.398	79.9385	483.398	80.1756	483.398	79.7247	483.398	79.7519	483.398	80.1443	483.398	79.9931	483.398	80.8529	483.398	80.7221	483.398	81.5736	483.398	81.5433	483.398	82.1132	483.398	82.1305	483.398	82.3262
499.512	87.0808	499.512	86.9778	499.512	87.1031	499.512	86.8156	499.512	87.0223	499.512	86.6033	499.512	86.8299	499.512	86.3356	499.512	86.5349	499.512	86.0012	499.512	86.1495	499.512	85.5899	499.512	85.6693	499.512	85.079	499.512	85.0687	499.512	84.4115	499.512	84.322	499.512	83.507	499.512	83.4264	499.512	82.337	499.512	82.4168	499.512	81.0628	499.512	81.3876	499.512	80.1327	499.512	80.5386	499.512	79.98	499.512	80.1605	499.512	80.4834	499.512	80.3933	499.512	81.2038	499.512	81.0197	499.512	81.8447	499.512	81.6921	499.512	82.2621	499.512	82.1812	499.512	82.3818
517.09	87.2251	517.09	87.2041	517.09	87.1747	517.09	87.0791	517.09	87.071	517.09	86.8354	517.09	86.9072	517.09	86.4871	517.09	86.6761	517.09	86.0511	517.09	86.3832	517.09	85.5248	517.09	86.0179	517.09	84.8971	517.09	85.5201	517.09	84.1681	517.09	84.8018	517.09	83.3399	517.09	83.8184	517.09	82.404	517.09	82.638	517.09	81.4117	517.09	81.4622	517.09	80.6299	517.09	80.5693	517.09	80.4729	517.09	80.2182	517.09	80.9768	517.09	80.5228	517.09	81.7249	517.09	81.286	517.09	82.3731	517.09	82.1081	517.09	82.7874	517.09	82.6865	517.09	82.9092
536.133	87.027	536.133	86.9459	536.133	86.9581	536.133	86.7336	536.133	86.7508	536.133	86.4247	536.133	86.4431	536.133	86.0533	536.133	86.0753	536.133	85.6377	536.133	85.6658	536.133	85.16	536.133	85.206	536.133	84.5463	536.133	84.6566	536.133	83.6799	536.133	83.937	536.133	82.4726	536.133	82.9371	536.133	80.9945	536.133	81.6083	536.133	79.635	536.133	80.1692	536.133	79.0278	536.133	79.2863	536.133	79.4184	536.133	79.5044	536.133	80.4105	536.133	80.4241	536.133	81.5214	536.133	81.4293	536.133	82.4425	536.133	82.2697	536.133	83.0028	536.133	82.8654	536.133	83.1359
555.176	87.4796	555.176	87.3951	555.176	87.4894	555.176	87.2489	555.176	87.4099	555.176	87.0499	555.176	87.2373	555.176	86.798	555.176	86.9899	555.176	86.4732	555.176	86.6885	555.176	86.0321	555.176	86.3124	555.176	85.4197	555.176	85.7833	555.176	84.5796	555.176	85.0034	555.176	83.4592	555.176	83.8953	555.176	82.028	555.176	82.41	555.176	80.3552	555.176	80.5491	555.176	78.8001	555.176	78.5322	555.176	78.0974	555.176	77.2224	555.176	78.5865	555.176	77.6431	555.176	79.6546	555.176	79.1044	555.176	80.654	555.176	80.4468	555.176	81.3145	555.176	81.2695	555.176	81.541
574.219	87.1046	574.219	87.0806	574.219	87.0754	574.219	86.9935	574.219	86.9909	574.219	86.8396	574.219	86.8362	574.219	86.635	574.219	86.5957	574.219	86.3909	574.219	86.2643	574.219	86.0667	574.219	85.8416	574.219	85.5634	574.219	85.3084	574.219	84.7698	574.219	84.6056	574.219	83.602	574.219	83.6426	574.219	82.0153	574.219	82.3395	574.219	80.0513	574.219	80.7107	574.219	78.1082	574.219	79.0615	574.219	77.3296	574.219	78.1863	574.219	78.2846	574.219	78.6257	574.219	79.8233	574.219	79.7732	574.219	81.064	574.219	80.8874	574.219	81.785	574.219	81.6561	574.219	81.9724
594.727	86.9668	594.727	86.9452	594.727	86.8299	594.727	86.7734	594.727	86.6062	594.727	86.5094	594.727	86.401	594.727	86.2053	594.727	86.262	594.727	85.8877	594.727	86.1344	594.727	85.5624	594.727	85.9099	594.727	85.1893	594.727	85.4996	594.727	84.6586	594.727	84.8507	594.727	83.8313	594.727	83.9168	594.727	82.6277	594.727	82.6399	594.727	81.1141	594.727	80.9926	594.727	79.5916	594.727	79.1366	594.727	78.6492	594.727	77.7607	594.727	78.8479	594.727	77.8643	594.727	79.9836	594.727	79.1656	594.727	81.2553	594.727	80.6053	594.727	82.0634	594.727	81.6725	594.727	82.1948
615.234	86.8342	615.234	86.7919	615.234	86.7824	615.234	86.6363	615.234	86.6551	615.234	86.3862	615.234	86.452	615.234	86.1	615.234	86.1807	615.234	85.8267	615.234	85.8692	615.234	85.5487	615.234	85.5293	615.234	85.1746	615.234	85.1237	615.234	84.5827	615.234	84.5655	615.234	83.6663	615.234	83.7294	615.234	82.3521	615.234	82.4791	615.234	80.6328	615.234	80.7324	615.234	78.7542	615.234	78.6903	615.234	77.6269	615.234	77.332	615.234	78.1057	615.234	77.6679	615.234	79.3778	615.234	78.8907	615.234	80.4552	615.234	80.022	615.234	81.0512	615.234	80.7942	615.234	81.1519
637.207	86.6067	637.207	86.3952	637.207	86.7271	637.207	86.1984	637.207	86.6552	637.207	86.0496	637.207	86.3725	637.207	85.9035	637.207	85.9779	637.207	85.7045	637.207	85.6368	637.207	85.44	637.207	85.4367	637.207	85.1084	637.207	85.2758	637.207	84.6368	637.207	84.9274	637.207	83.8519	637.207	84.1872	637.207	82.5448	637.207	82.9454	637.207	80.5821	637.207	81.1902	637.207	78.1468	637.207	79.0746	637.207	76.3523	637.207	77.2963	637.207	76.7586	637.207	77.2098	637.207	78.552	637.207	78.6438	637.207	80.2388	637.207	80.1731	637.207	81.2765	637.207	81.1891	637.207	81.5766
659.18	86.6339	659.18	86.6517	659.18	86.4734	659.18	86.4753	659.18	86.2554	659.18	86.1371	659.18	86.0406	659.18	85.7499	659.18	85.8235	659.18	85.4063	659.18	85.5422	659.18	85.0787	659.18	85.1504	659.18	84.6544	659.18	84.6786	659.18	84.0362	659.18	84.1943	659.18	83.1713	659.18	83.6776	659.18	82.0055	659.18	82.9305	659.18	80.4355	659.18	81.6149	659.18	78.4214	659.18	79.4499	659.18	76.6661	659.18	76.8693	659.18	76.9065	659.18	76.1033	659.18	78.5518	659.18	77.5397	659.18	79.8891	659.18	79.0389	659.18	80.5101	659.18	80.0145	659.18	80.5104
682.617	86.7533	682.617	86.6425	682.617	86.7133	682.617	86.4023	682.617	86.5178	682.617	86.0538	682.617	86.1914	682.617	85.622	682.617	85.8023	682.617	85.1723	682.617	85.444	682.617	84.7905	682.617	85.1513	682.617	84.4653	682.617	84.8372	682.617	84.032	682.617	84.3318	682.617	83.2729	682.617	83.467	682.617	82.0255	682.617	82.1573	682.617	80.2376	682.617	80.4404	682.617	78.1309	682.617	78.4498	682.617	76.6336	682.617	76.5751	682.617	76.9564	682.617	76.0969	682.617	78.5165	682.617	77.694	682.617	80.0688	682.617	79.6893	682.617	81.0976	682.617	80.9928	682.617	81.4391
707.52	86.7576	707.52	86.61	707.52	86.7242	707.52	86.3049	707.52	86.542	707.52	85.9162	707.52	86.2528	707.52	85.5296	707.52	85.8704	707.52	85.1901	707.52	85.442	707.52	84.8996	707.52	85.1115	707.52	84.6607	707.52	84.9727	707.52	84.4194	707.52	84.8362	707.52	83.9635	707.52	84.3513	707.52	82.9823	707.52	83.2959	707.52	81.1742	707.52	81.633	707.52	78.3505	707.52	79.3764	707.52	75.1045	707.52	76.6805	707.52	74.3888	707.52	75.0898	707.52	76.5614	707.52	76.6033	707.52	78.7783	707.52	78.8888	707.52	80.2243	707.52	80.3342	707.52	80.7634
732.422	86.9061	732.422	86.7879	732.422	86.8609	732.422	86.517	732.422	86.6596	732.422	86.1303	732.422	86.3244	732.422	85.6884	732.422	85.901	732.422	85.2511	732.422	85.4457	732.422	84.8426	732.422	85.0052	732.422	84.4345	732.422	84.6216	732.422	83.9536	732.422	84.3038	732.422	83.2758	732.422	83.9345	732.422	82.1985	732.422	83.2382	732.422	80.439	732.422	81.8785	732.422	77.7221	732.422	79.5926	732.422	74.4993	732.422	76.516	732.422	74.1088	732.422	74.5409	732.422	76.6865	732.422	75.8002	732.422	78.8971	732.422	77.9308	732.422	80.0887	732.422	79.5018	732.422	80.2635
757.324	87.2756	757.324	87.1073	757.324	87.2266	757.324	86.7368	757.324	86.9237	757.324	86.182	757.324	86.404	757.324	85.5609	757.324	85.8408	757.324	85.0873	757.324	85.4184	757.324	84.8908	757.324	85.1608	757.324	84.8671	757.324	84.9813	757.324	84.7738	757.324	84.7942	757.324	84.3828	757.324	84.464	757.324	83.4938	757.324	83.7555	757.324	81.8729	757.324	82.3704	757.324	79.1881	757.324	80.0127	757.324	75.0565	757.324	76.6249	757.324	71.8792	757.324	73.912	757.324	75.1796	757.324	75.3141	757.324	78.4248	757.324	77.9417	757.324	80.0677	757.324	79.6984	757.324	80.4233
785.156	87.4247	785.156	87.2413	785.156	87.3753	785.156	86.8829	785.156	87.0876	785.156	86.3923	785.156	86.5683	785.156	85.7461	785.156	85.8549	785.156	85.0098	785.156	85.1315	785.156	84.4867	785.156	84.6798	785.156	84.3943	785.156	84.588	785.156	84.5095	785.156	84.6599	785.156	84.4681	785.156	84.5923	785.156	84.001	785.156	84.1126	785.156	82.8723	785.156	83.0406	785.156	80.8046	785.156	81.2313	785.156	77.5601	785.156	78.442	785.156	74.1442	785.156	75.1107	785.156	74.7417	785.156	75.172	785.156	77.2106	785.156	77.5955	785.156	78.738	785.156	78.9882	785.156	79.2934
811.523	87.6047	811.523	87.5354	811.523	87.4506	811.523	87.1543	811.523	87.129	811.523	86.4737	811.523	86.6058	811.523	85.6687	811.523	85.8549	811.523	84.9417	811.523	85.0298	811.523	84.3639	811.523	84.471	811.523	84.0557	811.523	84.3668	811.523	84.1209	811.523	84.4923	811.523	84.2378	811.523	84.5148	811.523	83.8953	811.523	84.1843	811.523	82.8191	811.523	83.2415	811.523	80.9166	811.523	81.4334	811.523	78.0949	811.523	78.607	811.523	74.8396	811.523	75.1328	811.523	75.1128	811.523	74.6199	811.523	78.1174	811.523	77.6256	811.523	80.0173	811.523	79.7972	811.523	80.5474
840.82	88.039	840.82	87.8278	840.82	87.918	840.82	87.4185	840.82	87.4016	840.82	86.7869	840.82	86.6311	840.82	85.834	840.82	85.7573	840.82	84.6698	840.82	84.787	840.82	83.6615	840.82	83.7692	840.82	83.0748	840.82	83.0085	840.82	82.891	840.82	82.8415	840.82	83.0621	840.82	83.1375	840.82	83.2983	840.82	83.3199	840.82	82.9814	840.82	82.8195	840.82	81.568	840.82	81.2576	840.82	78.9286	840.82	78.5187	840.82	76.1301	840.82	75.7528	840.82	75.4692	840.82	75.8133	840.82	77.1736	840.82	77.6	840.82	79.1874	840.82	79.2514	840.82	79.9636
870.117	88.5167	870.117	88.5607	870.117	88.3118	870.117	88.1853	870.117	88.0593	870.117	87.4514	870.117	87.5517	870.117	86.6541	870.117	86.6209	870.117	85.8154	870.117	85.4134	870.117	84.8384	870.117	84.3614	870.117	84.1186	870.117	83.8271	870.117	83.9694	870.117	83.5997	870.117	83.8373	870.117	83.335	870.117	83.2556	870.117	82.9491	870.117	82.2762	870.117	82.2794	870.117	80.8403	870.117	80.9618	870.117	78.6173	870.117	78.6906	870.117	76.1955	870.117	76.0569	870.117	76.5118	870.117	76.1144	870.117	78.7115	870.117	78.4811	870.117	80.2786	870.117	80.255	870.117	80.828
900.879	89.3884	900.879	89.1122	900.879	89.323	900.879	88.8005	900.879	88.8007	900.879	88.3141	900.879	88.1206	900.879	87.3244	900.879	87.4144	900.879	86.0396	900.879	86.3727	900.879	84.9704	900.879	84.8787	900.879	84.0943	900.879	83.5225	900.879	83.3975	900.879	83.0455	900.879	83.3496	900.879	83.1874	900.879	83.5256	900.879	83.2069	900.879	82.9418	900.879	82.6635	900.879	81.1278	900.879	81.2096	900.879	78.1987	900.879	78.4375	900.879	75.5461	900.879	75.0067	900.879	76.6394	900.879	75.7749	900.879	79.4925	900.879	78.9413	900.879	81.3434	900.879	81.0589	900.879	81.867
933.105	88.9252	933.105	88.8378	933.105	88.7523	933.105	88.3751	933.105	88.3783	933.105	87.5803	933.105	87.7744	933.105	86.701	933.105	86.8426	933.105	85.7844	933.105	85.5015	933.105	84.6752	933.105	84.0132	933.105	83.6914	933.105	83.0312	933.105	83.2865	933.105	82.7413	933.105	83.2668	933.105	82.719	933.105	83.2785	933.105	82.7655	933.105	82.8849	933.105	82.5404	933.105	81.3321	933.105	81.2974	933.105	77.8076	933.105	78.2816	933.105	73.002	933.105	73.1031	933.105	73.5333	933.105	72.0902	933.105	76.6909	933.105	76.425	933.105	78.953	933.105	79.0665	933.105	79.8652
965.332	88.5098	965.332	88.4421	965.332	88.4556	965.332	88.2303	965.332	88.2266	965.332	87.7627	965.332	87.6737	965.332	86.7914	965.332	86.7651	965.332	85.2825	965.332	85.6128	965.332	83.7585	965.332	84.2036	965.332	82.7489	965.332	82.5833	965.332	82.2856	965.332	81.4766	965.332	82.3254	965.332	81.5152	965.332	82.3494	965.332	81.7945	965.332	81.7102	965.332	81.4196	965.332	80.1279	965.332	80.276	965.332	77.3576	965.332	77.9258	965.332	72.7326	965.332	73.2363	965.332	71.6901	965.332	72.3951	965.332	77.0949	965.332	76.8815	965.332	79.5486	965.332	79.0285	965.332	79.8547
1,000.49	88.1031	1,000.49	87.967	1,000.49	87.997	1,000.49	87.5048	1,000.49	87.6738	1,000.49	86.6811	1,000.49	87.1462	1,000.49	85.7326	1,000.49	86.3279	1,000.49	84.8315	1,000.49	85.1243	1,000.49	83.6175	1,000.49	83.6538	1,000.49	82.0419	1,000.49	82.1312	1,000.49	81.3478	1,000.49	80.9808	1,000.49	81.8899	1,000.49	80.971	1,000.49	82.4591	1,000.49	81.7199	1,000.49	82.2744	1,000.49	81.9134	1,000.49	81.0177	1,000.49	80.7688	1,000.49	78.2272	1,000.49	78.2175	1,000.49	73.2187	1,000.49	74.2753	1,000.49	71.6677	1,000.49	69.7661	1,000.49	75.2127	1,000.49	73.0164	1,000.49	77.2845	1,000.49	76.8823	1,000.49	78.0306
1,035.64	87.8257	1,035.64	87.685	1,035.64	87.8704	1,035.64	87.3298	1,035.64	87.7255	1,035.64	86.8271	1,035.64	87.1682	1,035.64	86.179	1,035.64	86.3112	1,035.64	84.951	1,035.64	85.3305	1,035.64	82.9559	1,035.64	83.9365	1,035.64	81.042	1,035.64	81.9715	1,035.64	80.2292	1,035.64	80.3537	1,035.64	80.0797	1,035.64	80.1304	1,035.64	80.1853	1,035.64	80.5922	1,035.64	80.5473	1,035.64	80.8083	1,035.64	80.208	1,035.64	80.2964	1,035.64	77.7398	1,035.64	78.1089	1,035.64	72.3431	1,035.64	72.3985	1,035.64	70.5963	1,035.64	68.7306	1,035.64	75.7911	1,035.64	75.1467	1,035.64	78.6359	1,035.64	78.019	1,035.64	79.1488
1,072.27	88.026	1,072.27	87.9049	1,072.27	87.7662	1,072.27	87.4718	1,072.27	87.4366	1,072.27	86.7938	1,072.27	87.1374	1,072.27	85.8239	1,072.27	86.5279	1,072.27	84.772	1,072.27	85.5704	1,072.27	83.6446	1,072.27	84.3791	1,072.27	81.9473	1,072.27	82.8326	1,072.27	80.0154	1,072.27	81.3487	1,072.27	79.8817	1,072.27	80.7611	1,072.27	80.8961	1,072.27	80.7936	1,072.27	81.1809	1,072.27	80.7513	1,072.27	80.0976	1,072.27	80.2015	1,072.27	77.2097	1,072.27	78.4144	1,072.27	72.0153	1,072.27	74.5903	1,072.27	69.1485	1,072.27	68.2831	1,072.27	74.0457	1,072.27	73.1516	1,072.27	76.7348	1,072.27	77.3637	1,072.27	77.9434
1,108.89	88.1074	1,108.89	87.9079	1,108.89	88.1744	1,108.89	87.577	1,108.89	87.8369	1,108.89	86.9825	1,108.89	87.1875	1,108.89	86.2069	1,108.89	86.5393	1,108.89	85.0745	1,108.89	85.7511	1,108.89	83.4389	1,108.89	84.5291	1,108.89	81.8516	1,108.89	82.8901	1,108.89	80.5015	1,108.89	81.0875	1,108.89	79.1523	1,108.89	79.8323	1,108.89	79.2574	1,108.89	80.0526	1,108.89	80.1404	1,108.89	80.864	1,108.89	79.648	1,108.89	80.4441	1,108.89	77.699	1,108.89	78.3136	1,108.89	73.7807	1,108.89	74.5647	1,108.89	67.5483	1,108.89	69.7653	1,108.89	73.7654	1,108.89	73.9322	1,108.89	76.8497	1,108.89	76.9869	1,108.89	77.5299
1,148.44	87.9664	1,148.44	87.8121	1,148.44	87.7183	1,148.44	87.2989	1,148.44	87.5905	1,148.44	86.7742	1,148.44	87.3107	1,148.44	86.0698	1,148.44	86.3409	1,148.44	85.1449	1,148.44	85.1389	1,148.44	84.0533	1,148.44	84.0633	1,148.44	82.3755	1,148.44	82.736	1,148.44	80.1306	1,148.44	81.1923	1,148.44	78.8102	1,148.44	80.1266	1,148.44	79.3088	1,148.44	80.1778	1,148.44	80.1417	1,148.44	80.8173	1,148.44	79.9333	1,148.44	80.8747	1,148.44	78.1086	1,148.44	79.3356	1,148.44	73.7929	1,148.44	75.576	1,148.44	67.4135	1,148.44	70.4493	1,148.44	72.7414	1,148.44	72.9914	1,148.44	76.9286	1,148.44	75.8386	1,148.44	77.5174
1,189.45	87.9552	1,189.45	87.6827	1,189.45	87.9328	1,189.45	87.21	1,189.45	87.4959	1,189.45	86.8117	1,189.45	86.6803	1,189.45	86.0514	1,189.45	86.0332	1,189.45	84.6129	1,189.45	85.3469	1,189.45	83.2653	1,189.45	84.0555	1,189.45	82.0079	1,189.45	82.4915	1,189.45	80.1748	1,189.45	80.8971	1,189.45	78.5834	1,189.45	79.563	1,189.45	78.5367	1,189.45	79.6511	1,189.45	79.2392	1,189.45	80.1142	1,189.45	79.7051	1,189.45	79.7427	1,189.45	78.3327	1,189.45	78.4667	1,189.45	74.1785	1,189.45	74.715	1,189.45	68.0922	1,189.45	66.7649	1,189.45	71.2387	1,189.45	71.8521	1,189.45	76.7456	1,189.45	76.4009	1,189.45	78.1613
1,230.47	87.7316	1,230.47	87.3305	1,230.47	87.5748	1,230.47	86.7688	1,230.47	87.0368	1,230.47	86.2023	1,230.47	86.4251	1,230.47	85.4441	1,230.47	85.6588	1,230.47	84.6046	1,230.47	84.6696	1,230.47	83.6299	1,230.47	83.6194	1,230.47	82.2754	1,230.47	82.4241	1,230.47	80.6666	1,230.47	80.7776	1,230.47	79.4186	1,230.47	79.2008	1,230.47	79.0651	1,230.47	78.4733	1,230.47	79.3088	1,230.47	78.7495	1,230.47	79.2006	1,230.47	79.299	1,230.47	77.9727	1,230.47	78.2105	1,230.47	74.8123	1,230.47	74.4438	1,230.47	66.505	1,230.47	68.2854	1,230.47	70.169	1,230.47	70.1368	1,230.47	75.438	1,230.47	75.4361	1,230.47	76.9264
1,274.41	86.8544	1,274.41	86.8269	1,274.41	86.716	1,274.41	86.4019	1,274.41	86.426	1,274.41	85.4848	1,274.41	85.7287	1,274.41	84.525	1,274.41	84.662	1,274.41	83.5132	1,274.41	83.6766	1,274.41	82.1986	1,274.41	82.6353	1,274.41	81.2143	1,274.41	81.25	1,274.41	80.0433	1,274.41	79.4154	1,274.41	77.9675	1,274.41	77.7356	1,274.41	76.9033	1,274.41	77.7801	1,274.41	77.6443	1,274.41	78.2602	1,274.41	78.3489	1,274.41	78.1471	1,274.41	77.2528	1,274.41	76.9814	1,274.41	72.7906	1,274.41	74.0949	1,274.41	67.5966	1,274.41	67.5362	1,274.41	70.3085	1,274.41	69.3335	1,274.41	74.3165	1,274.41	74.7878	1,274.41	75.7038
1,319.82	86.5199	1,319.82	86.5914	1,319.82	86.1893	1,319.82	85.9193	1,319.82	85.7744	1,319.82	84.6885	1,319.82	85.037	1,319.82	83.4381	1,319.82	83.9345	1,319.82	82.2928	1,319.82	82.6276	1,319.82	81.0318	1,319.82	81.4471	1,319.82	79.6067	1,319.82	80.2192	1,319.82	77.9517	1,319.82	78.8467	1,319.82	76.0322	1,319.82	78.1364	1,319.82	75.5131	1,319.82	77.7642	1,319.82	76.8912	1,319.82	76.8795	1,319.82	77.1267	1,319.82	77.2084	1,319.82	76.0934	1,319.82	76.6919	1,319.82	73.2899	1,319.82	72.9464	1,319.82	64.9972	1,319.82	64.969	1,319.82	70.5438	1,319.82	67.2988	1,319.82	74.2123	1,319.82	74.5787	1,319.82	75.4607
1,366.7	85.9579	1,366.7	85.6773	1,366.7	85.6384	1,366.7	85.16	1,366.7	84.5996	1,366.7	84.1868	1,366.7	83.8775	1,366.7	82.5557	1,366.7	83.353	1,366.7	81.2264	1,366.7	81.7534	1,366.7	80.1827	1,366.7	80.1078	1,366.7	78.1435	1,366.7	78.9917	1,366.7	75.718	1,366.7	77.7219	1,366.7	74.9932	1,366.7	76.4928	1,366.7	75.7833	1,366.7	75.427	1,366.7	76.1389	1,366.7	76.4814	1,366.7	76.9937	1,366.7	76.9773	1,366.7	76.2448	1,366.7	75.7703	1,366.7	71.2311	1,366.7	71.8124	1,366.7	48.766	1,366.7	56.3777	1,366.7	68.9483	1,366.7	65.0123	1,366.7	74.1293	1,366.7	71.6259	1,366.7	75.0534
1,413.57	86.4898	1,413.57	86.1216	1,413.57	86.4381	1,413.57	85.701	1,413.57	86.2012	1,413.57	84.7129	1,413.57	85.478	1,413.57	83.257	1,413.57	84.4617	1,413.57	81.9233	1,413.57	83.5765	1,413.57	80.3	1,413.57	81.4228	1,413.57	77.849	1,413.57	78.94	1,413.57	75.4144	1,413.57	77.2335	1,413.57	74.1899	1,413.57	75.3764	1,413.57	72.6505	1,413.57	73.6469	1,413.57	74.1885	1,413.57	74.17	1,413.57	76.2382	1,413.57	76.7845	1,413.57	76.3555	1,413.57	76.6526	1,413.57	73.1718	1,413.57	75.4291	1,413.57	63.1804	1,413.57	69.933	1,413.57	67.0126	1,413.57	65.2846	1,413.57	73.0951	1,413.57	69.3697	1,413.57	72.4875
1,463.38	86.8874	1,463.38	86.5558	1,463.38	86.6225	1,463.38	85.8347	1,463.38	86.2345	1,463.38	84.655	1,463.38	85.8777	1,463.38	83.5773	1,463.38	84.6233	1,463.38	82.281	1,463.38	83.3314	1,463.38	80.8014	1,463.38	82.3272	1,463.38	79.8366	1,463.38	80.5804	1,463.38	77.9581	1,463.38	78.353	1,463.38	75.3677	1,463.38	76.3718	1,463.38	73.092	1,463.38	74.478	1,463.38	74.082	1,463.38	74.2072	1,463.38	76.7605	1,463.38	76.9431	1,463.38	76.2879	1,463.38	78.0896	1,463.38	75.2082	1,463.38	76.795	1,463.38	70.6947	1,463.38	72.1396	1,463.38	56.7967	1,463.38	62.5822	1,463.38	67.5626	1,463.38	69.2388	1,463.38	69.952
1,516.11	87.396	1,516.11	87.1755	1,516.11	87.1505	1,516.11	86.6294	1,516.11	86.52	1,516.11	85.6955	1,516.11	85.7742	1,516.11	84.3831	1,516.11	84.6349	1,516.11	82.9657	1,516.11	83.3863	1,516.11	81.6827	1,516.11	82.2283	1,516.11	80.4761	1,516.11	81.17	1,516.11	79.4276	1,516.11	79.9533	1,516.11	77.3174	1,516.11	78.1907	1,516.11	73.3212	1,516.11	76.0394	1,516.11	72.4262	1,516.11	75.3969	1,516.11	74.9443	1,516.11	76.7192	1,516.11	76.8426	1,516.11	77.0378	1,516.11	76.389	1,516.11	76.0464	1,516.11	70.8647	1,516.11	72.2543	1,516.11	56.2886	1,516.11	65.7717	1,516.11	67.5108	1,516.11	72.0825	1,516.11	71.4671
1,568.85	87.2799	1,568.85	86.9224	1,568.85	87.0971	1,568.85	86.2678	1,568.85	86.5764	1,568.85	85.2206	1,568.85	85.6516	1,568.85	84.1257	1,568.85	84.0365	1,568.85	83.3702	1,568.85	83.0646	1,568.85	81.7138	1,568.85	81.8456	1,568.85	79.4507	1,568.85	80.7692	1,568.85	77.3562	1,568.85	80.4149	1,568.85	74.3716	1,568.85	78.2905	1,568.85	72.2427	1,568.85	74.5856	1,568.85	72.7492	1,568.85	72.386	1,568.85	74.5972	1,568.85	74.7318	1,568.85	77.0989	1,568.85	75.0617	1,568.85	76.7434	1,568.85	73.7883	1,568.85	72.2629	1,568.85	70.2475	1,568.85	63.6215	1,568.85	63.983	1,568.85	69.0494	1,568.85	72.131	1,568.85	73.4296
1,624.51	86.878	1,624.51	86.3822	1,624.51	86.3944	1,624.51	85.4749	1,624.51	85.715	1,624.51	84.9657	1,624.51	84.7913	1,624.51	84.1346	1,624.51	83.067	1,624.51	83.023	1,624.51	82.1049	1,624.51	81.3597	1,624.51	81.154	1,624.51	79.3443	1,624.51	79.6645	1,624.51	76.5197	1,624.51	79.1856	1,624.51	74.657	1,624.51	77.9014	1,624.51	74.2378	1,624.51	74.6558	1,624.51	71.9923	1,624.51	71.5233	1,624.51	74.5871	1,624.51	72.992	1,624.51	76.0282	1,624.51	72.8892	1,624.51	75.4754	1,624.51	73.8199	1,624.51	69.7445	1,624.51	71.7366	1,624.51	63.2817	1,624.51	56.5158	1,624.51	68.7501	1,624.51	67.5045	1,624.51	69.2033
1,681.64	85.3869	1,681.64	85.4235	1,681.64	85.4768	1,681.64	85.1186	1,681.64	84.5875	1,681.64	84.7361	1,681.64	83.7248	1,681.64	83.0686	1,681.64	83.6164	1,681.64	81.2055	1,681.64	82.0643	1,681.64	80.3021	1,681.64	79.3707	1,681.64	78.8444	1,681.64	77.9377	1,681.64	78.3884	1,681.64	75.9708	1,681.64	76.1474	1,681.64	76.0313	1,681.64	74.8551	1,681.64	73.8983	1,681.64	73.1982	1,681.64	71.0763	1,681.64	72.2754	1,681.64	68.8655	1,681.64	73.155	1,681.64	70.2678	1,681.64	73.8864	1,681.64	72.8418	1,681.64	71.0708	1,681.64	72.0616	1,681.64	60.3443	1,681.64	63.2979	1,681.64	70.664	1,681.64	65.4365	1,681.64	71.4442
1,741.7	85.4383	1,741.7	85.2817	1,741.7	85.7586	1,741.7	84.8386	1,741.7	85.3771	1,741.7	83.5479	1,741.7	84.5644	1,741.7	82.1247	1,741.7	84.1431	1,741.7	80.623	1,741.7	83.6832	1,741.7	79.2143	1,741.7	81.4584	1,741.7	77.8574	1,741.7	78.5722	1,741.7	76.1149	1,741.7	76.4147	1,741.7	73.7854	1,741.7	74.2359	1,741.7	71.1272	1,741.7	72.1013	1,741.7	72.0796	1,741.7	69.4462	1,741.7	70.0863	1,741.7	71.6145	1,741.7	70.5792	1,741.7	73.1369	1,741.7	71.4679	1,741.7	72.284	1,741.7	69.4716	1,741.7	67.3787	1,741.7	67.0132	1,741.7	62.5633	1,741.7	71.0928	1,741.7	57.4491	1,741.7	68.6275
1,803.22	86.2267	1,803.22	85.8499	1,803.22	86.1529	1,803.22	85.1682	1,803.22	85.258	1,803.22	84.2604	1,803.22	84.4958	1,803.22	82.5335	1,803.22	83.7323	1,803.22	81.1068	1,803.22	82.0615	1,803.22	80.1551	1,803.22	80.3616	1,803.22	78.0671	1,803.22	79.5172	1,803.22	76.2667	1,803.22	77.9948	1,803.22	73.8988	1,803.22	77.1999	1,803.22	73.0926	1,803.22	75.0364	1,803.22	67.9795	1,803.22	71.774	1,803.22	70.2091	1,803.22	71.2628	1,803.22	72.5598	1,803.22	73.4849	1,803.22	73.8439	1,803.22	73.8738	1,803.22	69.8008	1,803.22	72.7448	1,803.22	58.025	1,803.22	64.8288	1,803.22	49.704	1,803.22	66.2252	1,803.22	65.3151
1,866.21	86.0428	1,866.21	85.9302	1,866.21	85.6916	1,866.21	85.4356	1,866.21	85.1402	1,866.21	83.9091	1,866.21	84.2086	1,866.21	82.842	1,866.21	82.5196	1,866.21	81.3705	1,866.21	80.6989	1,866.21	79.0233	1,866.21	79.5586	1,866.21	77.9857	1,866.21	78.7463	1,866.21	76.7394	1,866.21	78.4396	1,866.21	75.3802	1,866.21	76.1565	1,866.21	73.9248	1,866.21	74.3933	1,866.21	72.558	1,866.21	70.4756	1,866.21	70.7667	1,866.21	68.768	1,866.21	72.2747	1,866.21	72.1679	1,866.21	73.8336	1,866.21	73.0468	1,866.21	72.3416	1,866.21	73.4617	1,866.21	65.2219	1,866.21	68.8817	1,866.21	68.2721	1,866.21	62.4148	1,866.21	70.2275
1,932.13	85.8999	1,932.13	85.9509	1,932.13	85.4414	1,932.13	85.3396	1,932.13	85.3923	1,932.13	84.5626	1,932.13	83.8864	1,932.13	83.0291	1,932.13	83.1945	1,932.13	80.9629	1,932.13	81.4114	1,932.13	79.4893	1,932.13	77.1601	1,932.13	77.7464	1,932.13	75.9594	1,932.13	78.3394	1,932.13	74.6598	1,932.13	77.1567	1,932.13	72.3953	1,932.13	74.6078	1,932.13	70.0427	1,932.13	74.548	1,932.13	69.8116	1,932.13	69.1862	1,932.13	71.2846	1,932.13	68.5834	1,932.13	73.6323	1,932.13	72.0353	1,932.13	73.8848	1,932.13	72.2297	1,932.13	71.3149	1,932.13	69.1993	1,932.13	64.3236	1,932.13	63.3716	1,932.13	67.1538	1,932.13	66.9901
1,999.51	85.5378	1,999.51	85.2723	1,999.51	85.7088	1,999.51	85.0031	1,999.51	85.0733	1,999.51	82.8562	1,999.51	83.4191	1,999.51	81.4229	1,999.51	82.1018	1,999.51	80.0222	1,999.51	80.7669	1,999.51	77.0918	1,999.51	78.6795	1,999.51	77.6493	1,999.51	75.4037	1,999.51	77.2248	1,999.51	72.9446	1,999.51	73.705	1,999.51	72.9297	1,999.51	72.6552	1,999.51	72.9289	1,999.51	72.3306	1,999.51	70.9576	1,999.51	66.0327	1,999.51	63.7209	1,999.51	67.5536	1,999.51	69.6122	1,999.51	66.0989	1,999.51	71.0304	1,999.51	61.0657	1,999.51	67.185	1,999.51	47.9659	1,999.51	59.6604	1,999.51	67.4895	1,999.51	62.8765	1,999.51	66.9956
2,069.82	85.1532	2,069.82	85.1074	2,069.82	84.9584	2,069.82	84.1085	2,069.82	84.9729	2,069.82	83.2161	2,069.82	83.1818	2,069.82	81.2081	2,069.82	82.2701	2,069.82	78.6195	2,069.82	80.3281	2,069.82	78.1805	2,069.82	78.5009	2,069.82	77.3647	2,069.82	78.45	2,069.82	71.621	2,069.82	75.842	2,069.82	71.4949	2,069.82	74.6684	2,069.82	73.8313	2,069.82	72.7384	2,069.82	69.238	2,069.82	67.6679	2,069.82	65.7107	2,069.82	68.6427	2,069.82	64.2484	2,069.82	68.5539	2,069.82	69.4815	2,069.82	70.4915	2,069.82	66.9645	2,069.82	72.3601	2,069.82	58.6349	2,069.82	70.1618	2,069.82	55.2087	2,069.82	67.917	2,069.82	65.6029
2,143.07	85.8254	2,143.07	85.8216	2,143.07	86.0446	2,143.07	85.0282	2,143.07	85.5879	2,143.07	83.6084	2,143.07	84.3314	2,143.07	81.7495	2,143.07	82.9426	2,143.07	80.6226	2,143.07	81.6821	2,143.07	78.7051	2,143.07	80.6072	2,143.07	75.2122	2,143.07	78.835	2,143.07	73.534	2,143.07	76.1091	2,143.07	72.9008	2,143.07	75.5017	2,143.07	69.6042	2,143.07	75.4429	2,143.07	71.304	2,143.07	71.9908	2,143.07	69.5802	2,143.07	68.0296	2,143.07	65.9041	2,143.07	71.2563	2,143.07	71.0798	2,143.07	72.317	2,143.07	72.1031	2,143.07	73.294	2,143.07	64.056	2,143.07	70.207	2,143.07	68.0489	2,143.07	64.2047	2,143.07	65.5141
2,219.24	86.6876	2,219.24	86.0502	2,219.24	86.5385	2,219.24	85.2733	2,219.24	85.3996	2,219.24	84.5449	2,219.24	84.5093	2,219.24	83.7582	2,219.24	83.1546	2,219.24	81.4182	2,219.24	80.6842	2,219.24	79.1443	2,219.24	79.8913	2,219.24	78.8238	2,219.24	78.2881	2,219.24	74.6653	2,219.24	77.6651	2,219.24	76.8853	2,219.24	75.7156	2,219.24	76.6606	2,219.24	71.7268	2,219.24	69.3098	2,219.24	72.6613	2,219.24	68.4431	2,219.24	74.7311	2,219.24	70.8935	2,219.24	70.3439	2,219.24	70.1337	2,219.24	73.5787	2,219.24	73.7853	2,219.24	69.6524	2,219.24	72.4439	2,219.24	69.5894	2,219.24	66.9752	2,219.24	65.6844	2,219.24	68.7781
2,296.88	85.7233	2,296.88	85.5539	2,296.88	85.4256	2,296.88	84.746	2,296.88	84.2892	2,296.88	82.6045	2,296.88	83.3956	2,296.88	81.0959	2,296.88	82.3903	2,296.88	78.9155	2,296.88	81.4546	2,296.88	78.2946	2,296.88	78.5342	2,296.88	78.51	2,296.88	75.8099	2,296.88	77.0152	2,296.88	75.3773	2,296.88	75.316	2,296.88	72.8951	2,296.88	73.7902	2,296.88	72.1615	2,296.88	72.9099	2,296.88	73.3785	2,296.88	71.2624	2,296.88	61.0262	2,296.88	69.8922	2,296.88	67.6514	2,296.88	71.5341	2,296.88	69.2984	2,296.88	71.6984	2,296.88	72.6373	2,296.88	65.5099	2,296.88	70.6231	2,296.88	65.3221	2,296.88	68.6217	2,296.88	66.6887
2,378.91	84.512	2,378.91	84.0976	2,378.91	84.1974	2,378.91	83.0913	2,378.91	83.295	2,378.91	81.9048	2,378.91	82.4847	2,378.91	80.611	2,378.91	81.5005	2,378.91	78.8872	2,378.91	78.6796	2,378.91	77.3258	2,378.91	76.9944	2,378.91	75.2544	2,378.91	76.9292	2,378.91	73.923	2,378.91	75.3531	2,378.91	72.2152	2,378.91	73.3482	2,378.91	71.7958	2,378.91	70.5632	2,378.91	71.8323	2,378.91	66.3186	2,378.91	69.4268	2,378.91	65.8472	2,378.91	65.461	2,378.91	67.6498	2,378.91	67.4778	2,378.91	67.6804	2,378.91	68.884	2,378.91	71.6292	2,378.91	68.3148	2,378.91	71.0247	2,378.91	60.751	2,378.91	67.5068	2,378.91	66.3519
2,462.4	84.8414	2,462.4	84.3918	2,462.4	85.0676	2,462.4	83.6412	2,462.4	84.1806	2,462.4	82.171	2,462.4	83.4747	2,462.4	80.6142	2,462.4	82.2675	2,462.4	79.3737	2,462.4	80.7415	2,462.4	77.5034	2,462.4	79.3954	2,462.4	75.192	2,462.4	77.5685	2,462.4	73.0912	2,462.4	75.8034	2,462.4	71.7034	2,462.4	73.6775	2,462.4	69.7692	2,462.4	72.853	2,462.4	68.2913	2,462.4	71.0448	2,462.4	68.5796	2,462.4	70.3876	2,462.4	64.4114	2,462.4	68.7253	2,462.4	65.8705	2,462.4	67.8851	2,462.4	68.6815	2,462.4	69.5431	2,462.4	65.9451	2,462.4	68.2671	2,462.4	66.8231	2,462.4	68.3675	2,462.4	67.4531
2,548.83	86.5974	2,548.83	86.389	2,548.83	86.3896	2,548.83	85.6221	2,548.83	85.6834	2,548.83	84.6963	2,548.83	84.9815	2,548.83	82.7686	2,548.83	83.6399	2,548.83	81.7339	2,548.83	82.334	2,548.83	80.9164	2,548.83	80.4425	2,548.83	77.8372	2,548.83	79.0892	2,548.83	75.5378	2,548.83	76.7676	2,548.83	73.4072	2,548.83	75.1804	2,548.83	71.9672	2,548.83	73.936	2,548.83	71.0166	2,548.83	72.663	2,548.83	70.4648	2,548.83	72.016	2,548.83	68.0782	2,548.83	70.1827	2,548.83	68.7421	2,548.83	69.0468	2,548.83	70.3528	2,548.83	70.7964	2,548.83	67.9122	2,548.83	68.1491	2,548.83	69.766	2,548.83	69.1132	2,548.83	69.4996
2,639.65	86.6418	2,639.65	86.3825	2,639.65	86.1345	2,639.65	85.6996	2,639.65	85.9337	2,639.65	85.3461	2,639.65	84.983	2,639.65	83.9408	2,639.65	83.6824	2,639.65	82.2181	2,639.65	81.6005	2,639.65	81.1871	2,639.65	80.025	2,639.65	79.4137	2,639.65	78.8174	2,639.65	76.8856	2,639.65	76.6652	2,639.65	74.9669	2,639.65	74.3355	2,639.65	73.5582	2,639.65	73.4021	2,639.65	71.5376	2,639.65	70.9025	2,639.65	72.4781	2,639.65	71.706	2,639.65	71.241	2,639.65	71.0761	2,639.65	68.6608	2,639.65	69.7534	2,639.65	72.5088	2,639.65	71.3616	2,639.65	68.9278	2,639.65	69.3621	2,639.65	66.6438	2,639.65	67.1762	2,639.65	70.3673
2,731.93	86.4453	2,731.93	86.0497	2,731.93	85.9049	2,731.93	85.2257	2,731.93	85.8355	2,731.93	84.9845	2,731.93	84.7276	2,731.93	83.8435	2,731.93	83.6047	2,731.93	82.1583	2,731.93	81.9695	2,731.93	80.1903	2,731.93	80.2888	2,731.93	78.8025	2,731.93	78.6143	2,731.93	76.4417	2,731.93	77.1949	2,731.93	74.0884	2,731.93	75.3169	2,731.93	74.1045	2,731.93	74.1766	2,731.93	70.9538	2,731.93	72.3139	2,731.93	70.6797	2,731.93	70.799	2,731.93	72.3984	2,731.93	71.6171	2,731.93	70.1266	2,731.93	69.3812	2,731.93	71.1564	2,731.93	71.7417	2,731.93	68.237	2,731.93	69.3672	2,731.93	69.4691	2,731.93	64.5135	2,731.93	71.0111
2,828.61	86.3407	2,828.61	85.8152	2,828.61	86.566	2,828.61	85.2999	2,828.61	85.8444	2,828.61	84.3702	2,828.61	85.0033	2,828.61	83.5242	2,828.61	84.1163	2,828.61	82.3555	2,828.61	83.0526	2,828.61	79.8746	2,828.61	81.2773	2,828.61	78.4669	2,828.61	79.2137	2,828.61	77.5624	2,828.61	77.6178	2,828.61	74.0653	2,828.61	74.9148	2,828.61	72.9127	2,828.61	73.7071	2,828.61	71.0392	2,828.61	72.24	2,828.61	70.414	2,828.61	69.7877	2,828.61	70.642	2,828.61	71.4212	2,828.61	68.7978	2,828.61	70.4594	2,828.61	71.7786	2,828.61	71.7166	2,828.61	68.1039	2,828.61	70.4	2,828.61	66.6831	2,828.61	67.2641	2,828.61	70.6803
2,928.22	86.5376	2,928.22	86.4061	2,928.22	86.5665	2,928.22	85.9413	2,928.22	85.7978	2,928.22	84.762	2,928.22	85.1552	2,928.22	83.9281	2,928.22	84.0896	2,928.22	82.6741	2,928.22	82.8883	2,928.22	80.2286	2,928.22	81.1247	2,928.22	78.4296	2,928.22	78.9696	2,928.22	77.3577	2,928.22	77.3642	2,928.22	75.0201	2,928.22	74.413	2,928.22	73.7069	2,928.22	72.9088	2,928.22	72.6361	2,928.22	72.6586	2,928.22	67.998	2,928.22	69.1748	2,928.22	71.4923	2,928.22	70.4303	2,928.22	70.6988	2,928.22	69.858	2,928.22	70.6657	2,928.22	71.2948	2,928.22	69.3677	2,928.22	70.2855	2,928.22	69.9296	2,928.22	67.6333	2,928.22	70.7951
3,030.76	86.5779	3,030.76	86.2171	3,030.76	86.788	3,030.76	86.1335	3,030.76	86.1003	3,030.76	84.9722	3,030.76	85.5145	3,030.76	83.6668	3,030.76	84.532	3,030.76	82.7335	3,030.76	83.605	3,030.76	80.892	3,030.76	81.6622	3,030.76	78.34	3,030.76	78.9796	3,030.76	77.4034	3,030.76	77.1848	3,030.76	74.752	3,030.76	75.2274	3,030.76	73.5351	3,030.76	72.7503	3,030.76	72.697	3,030.76	72.2472	3,030.76	70.9446	3,030.76	70.0319	3,030.76	71.0833	3,030.76	70.3237	3,030.76	69.8774	3,030.76	69.4984	3,030.76	72.3087	3,030.76	70.6391	3,030.76	70.4693	3,030.76	70.3355	3,030.76	68.7938	3,030.76	67.9878	3,030.76	70.8164
3,137.7	86.6693	3,137.7	86.8315	3,137.7	86.4445	3,137.7	86.2078	3,137.7	86.5545	3,137.7	85.6772	3,137.7	85.9213	3,137.7	84.5532	3,137.7	85.0901	3,137.7	83.1628	3,137.7	83.6513	3,137.7	81.4444	3,137.7	81.6307	3,137.7	78.8764	3,137.7	79.7248	3,137.7	77.3422	3,137.7	77.4658	3,137.7	75.164	3,137.7	75.9492	3,137.7	72.5836	3,137.7	72.9006	3,137.7	72.2444	3,137.7	72.2443	3,137.7	70.2624	3,137.7	70.3014	3,137.7	71.2702	3,137.7	71.1784	3,137.7	69.7165	3,137.7	69.7875	3,137.7	71.61	3,137.7	71.3058	3,137.7	69.9426	3,137.7	70.9159	3,137.7	66.8822	3,137.7	67.2683	3,137.7	70.462
3,249.02	86.51	3,249.02	86.637	3,249.02	86.313	3,249.02	86.3303	3,249.02	86.4518	3,249.02	85.859	3,249.02	86.0458	3,249.02	84.7669	3,249.02	85.1541	3,249.02	83.1844	3,249.02	83.6798	3,249.02	81.1982	3,249.02	81.7043	3,249.02	78.871	3,249.02	79.352	3,249.02	76.3216	3,249.02	77.1769	3,249.02	74.606	3,249.02	75.8597	3,249.02	71.8656	3,249.02	73.3056	3,249.02	71.2093	3,249.02	72.8828	3,249.02	69.2056	3,249.02	69.9038	3,249.02	70.6725	3,249.02	71.2674	3,249.02	70.7976	3,249.02	70.3294	3,249.02	71.0649	3,249.02	70.9236	3,249.02	69.863	3,249.02	70.9344	3,249.02	66.1004	3,249.02	66.5969	3,249.02	68.9698
3,363.28	86.2622	3,363.28	86.3979	3,363.28	86.2044	3,363.28	86.2825	3,363.28	86.1838	3,363.28	86.0396	3,363.28	85.8243	3,363.28	85.059	3,363.28	84.8047	3,363.28	83.0493	3,363.28	82.8961	3,363.28	81.1443	3,363.28	80.975	3,363.28	79.0466	3,363.28	78.6542	3,363.28	75.6303	3,363.28	76.156	3,363.28	74.7098	3,363.28	74.3801	3,363.28	72.2216	3,363.28	72.1519	3,363.28	70.6453	3,363.28	70.6277	3,363.28	68.0397	3,363.28	69.8627	3,363.28	69.3557	3,363.28	69.4122	3,363.28	70.5432	3,363.28	70.4386	3,363.28	70.1172	3,363.28	69.1796	3,363.28	69.8993	3,363.28	69.8877	3,363.28	68.6726	3,363.28	65.9129	3,363.28	68.7923
3,481.93	86.2372	3,481.93	86.1024	3,481.93	86.3637	3,481.93	86.3141	3,481.93	85.9473	3,481.93	85.8004	3,481.93	85.7503	3,481.93	84.799	3,481.93	84.6557	3,481.93	82.954	3,481.93	83.0894	3,481.93	80.4154	3,481.93	80.8392	3,481.93	78.045	3,481.93	78.8727	3,481.93	75.916	3,481.93	76.4667	3,481.93	74.3218	3,481.93	74.035	3,481.93	73.0202	3,481.93	72.9762	3,481.93	70.6007	3,481.93	70.5492	3,481.93	67.7902	3,481.93	70.0696	3,481.93	70.5816	3,481.93	68.6571	3,481.93	71.1398	3,481.93	70.99	3,481.93	69.8166	3,481.93	68.7416	3,481.93	69.8852	3,481.93	70.4007	3,481.93	67.5082	3,481.93	66.4557	3,481.93	68.1022
3,604.98	87.1232	3,604.98	86.8451	3,604.98	87.5211	3,604.98	87.1248	3,604.98	87.2952	3,604.98	86.4837	3,604.98	87.0001	3,604.98	85.1451	3,604.98	85.7054	3,604.98	83.2138	3,604.98	84.4887	3,604.98	80.5015	3,604.98	82.2401	3,604.98	78.613	3,604.98	79.476	3,604.98	76.5634	3,604.98	77.4095	3,604.98	73.696	3,604.98	75.0931	3,604.98	72.5624	3,604.98	73.6825	3,604.98	68.9131	3,604.98	71.4799	3,604.98	69.6912	3,604.98	70.8272	3,604.98	68.4129	3,604.98	69.2083	3,604.98	70.4769	3,604.98	72.4494	3,604.98	70.3449	3,604.98	70.6022	3,604.98	70.3245	3,604.98	72.0366	3,604.98	64.1004	3,604.98	67.847	3,604.98	68.4165
3,732.42	86.864	3,732.42	87.0545	3,732.42	86.8966	3,732.42	86.9741	3,732.42	87.138	3,732.42	86.2706	3,732.42	86.334	3,732.42	84.8239	3,732.42	85.2929	3,732.42	83.5951	3,732.42	83.9225	3,732.42	81.2729	3,732.42	81.7048	3,732.42	78.3346	3,732.42	78.6396	3,732.42	77.0931	3,732.42	76.1317	3,732.42	74.6819	3,732.42	73.6511	3,732.42	73.2419	3,732.42	72.0867	3,732.42	70.6383	3,732.42	69.1626	3,732.42	70.3111	3,732.42	68.7726	3,732.42	67.9078	3,732.42	67.334	3,732.42	71.0356	3,732.42	70.84	3,732.42	70.0937	3,732.42	69.9316	3,732.42	70.5995	3,732.42	71.0406	3,732.42	64.8723	3,732.42	66.0951	3,732.42	66.5711
3,864.26	85.8732	3,864.26	86.5663	3,864.26	85.7989	3,864.26	85.9429	3,864.26	86.5796	3,864.26	85.1793	3,864.26	85.9436	3,864.26	83.7012	3,864.26	84.698	3,864.26	81.6415	3,864.26	82.7848	3,864.26	79.7159	3,864.26	80.9242	3,864.26	77.169	3,864.26	78.1765	3,864.26	73.6814	3,864.26	76.4724	3,864.26	72.6543	3,864.26	73.0174	3,864.26	70.2049	3,864.26	73.0648	3,864.26	70.2288	3,864.26	71.485	3,864.26	67.6251	3,864.26	69.1244	3,864.26	68.0445	3,864.26	66.0369	3,864.26	70.4631	3,864.26	70.4151	3,864.26	69.4636	3,864.26	69.4235	3,864.26	68.7842	3,864.26	70.2364	3,864.26	59.515	3,864.26	64.5461	3,864.26	65.9058
4,000.49	86.709	4,000.49	86.7403	4,000.49	87.3525	4,000.49	87.0247	4,000.49	87.1464	4,000.49	86.757	4,000.49	86.6278	4,000.49	85.3393	4,000.49	84.7947	4,000.49	82.0654	4,000.49	82.8456	4,000.49	80.508	4,000.49	80.7444	4,000.49	78.8033	4,000.49	77.8899	4,000.49	75.4411	4,000.49	75.8944	4,000.49	71.3401	4,000.49	73.5731	4,000.49	70.033	4,000.49	70.7202	4,000.49	68.3524	4,000.49	68.5467	4,000.49	68.634	4,000.49	67.8452	4,000.49	64.0688	4,000.49	65.205	4,000.49	69.7015	4,000.49	70.6708	4,000.49	69.1776	4,000.49	69.5516	4,000.49	69.7196	4,000.49	71.3663	4,000.49	64.4119	4,000.49	67.2927	4,000.49	68.4164
4,141.11	86.0084	4,141.11	85.2777	4,141.11	86.3958	4,141.11	87.0723	4,141.11	85.9099	4,141.11	86.7227	4,141.11	85.8574	4,141.11	84.9442	4,141.11	84.111	4,141.11	82.7166	4,141.11	82.3426	4,141.11	80.7579	4,141.11	79.9452	4,141.11	77.3373	4,141.11	77.6533	4,141.11	75.636	4,141.11	76.0031	4,141.11	73.6725	4,141.11	74.3783	4,141.11	71.4268	4,141.11	71.6814	4,141.11	70.7695	4,141.11	71.1182	4,141.11	69.1996	4,141.11	68.4602	4,141.11	65.4504	4,141.11	68.007	4,141.11	69.9383	4,141.11	68.8996	4,141.11	70.4214	4,141.11	69.1525	4,141.11	70.5177	4,141.11	70.6441	4,141.11	64.739	4,141.11	64.5338	4,141.11	69.2581
4,287.6	86.0271	4,287.6	87.0306	4,287.6	85.5517	4,287.6	86.4495	4,287.6	86.464	4,287.6	84.659	4,287.6	85.2024	4,287.6	83.099	4,287.6	84.4724	4,287.6	82.5926	4,287.6	82.9781	4,287.6	79.372	4,287.6	80.7504	4,287.6	76.7109	4,287.6	78.3175	4,287.6	75.6997	4,287.6	75.7551	4,287.6	74.2948	4,287.6	72.8557	4,287.6	71.7674	4,287.6	71.7895	4,287.6	70.6662	4,287.6	70.0038	4,287.6	67.2891	4,287.6	69.8289	4,287.6	66.4772	4,287.6	67.646	4,287.6	69.1207	4,287.6	67.5179	4,287.6	68.2783	4,287.6	69.5204	4,287.6	70.517	4,287.6	68.9564	4,287.6	63.5245	4,287.6	64.7212	4,287.6	67.1696
4,438.48	86.1873	4,438.48	86.0949	4,438.48	86.5435	4,438.48	85.3574	4,438.48	85.8877	4,438.48	84.8905	4,438.48	85.1203	4,438.48	83.4057	4,438.48	83.4562	4,438.48	80.3822	4,438.48	81.6805	4,438.48	79.3963	4,438.48	79.8555	4,438.48	77.915	4,438.48	78.3416	4,438.48	76.1942	4,438.48	76.3455	4,438.48	73.3085	4,438.48	74.1704	4,438.48	71.7716	4,438.48	71.1176	4,438.48	69.6584	4,438.48	69.0209	4,438.48	68.778	4,438.48	68.7896	4,438.48	65.3952	4,438.48	66.9857	4,438.48	67.4361	4,438.48	67.0351	4,438.48	68.9617	4,438.48	67.7746	4,438.48	70.4715	4,438.48	67.3244	4,438.48	64.6281	4,438.48	66.2333	4,438.48	66.0054
4,595.21	86.9515	4,595.21	86.4352	4,595.21	86.9814	4,595.21	87.0292	4,595.21	86.3793	4,595.21	86.6146	4,595.21	86.1779	4,595.21	84.7402	4,595.21	84.3689	4,595.21	82.764	4,595.21	82.7726	4,595.21	80.7153	4,595.21	80.7605	4,595.21	78.5763	4,595.21	77.7808	4,595.21	75.8303	4,595.21	76.5316	4,595.21	73.5066	4,595.21	74.8245	4,595.21	69.8095	4,595.21	74.4553	4,595.21	67.7168	4,595.21	72.5818	4,595.21	66.3748	4,595.21	67.8888	4,595.21	67.5781	4,595.21	67.1587	4,595.21	66.7279	4,595.21	68.6278	4,595.21	66.2829	4,595.21	69.2252	4,595.21	69.0155	4,595.21	69.3798	4,595.21	65.4596	4,595.21	67.1107	4,595.21	65.3069
4,756.35	85.3854	4,756.35	85.8553	4,756.35	84.8569	4,756.35	85.9563	4,756.35	85.4586	4,756.35	84.3188	4,756.35	84.2934	4,756.35	82.9927	4,756.35	83.2578	4,756.35	82.3257	4,756.35	83.0087	4,756.35	80.1694	4,756.35	80.6039	4,756.35	78.5942	4,756.35	79.0092	4,756.35	76.6675	4,756.35	76.8254	4,756.35	75.0027	4,756.35	74.6087	4,756.35	73.284	4,756.35	71.371	4,756.35	71.62	4,756.35	69.2791	4,756.35	69.1256	4,756.35	67.0194	4,756.35	67.6168	4,756.35	67.4475	4,756.35	66.7646	4,756.35	62.0108	4,756.35	68.3983	4,756.35	68.8908	4,756.35	70.3488	4,756.35	68.9096	4,756.35	66.1017	4,756.35	63.9731	4,756.35	65.729
4,924.8	85.6613	4,924.8	85.3126	4,924.8	86.0584	4,924.8	84.5573	4,924.8	85.6858	4,924.8	83.4863	4,924.8	84.7702	4,924.8	82.1531	4,924.8	84.032	4,924.8	80.7807	4,924.8	82.1933	4,924.8	79.7927	4,924.8	81.7761	4,924.8	77.4359	4,924.8	80.0096	4,924.8	74.3516	4,924.8	77.3002	4,924.8	71.8418	4,924.8	73.7359	4,924.8	67.8948	4,924.8	71.1233	4,924.8	68.8733	4,924.8	68.9491	4,924.8	66.3984	4,924.8	68.2036	4,924.8	66.6001	4,924.8	68.3169	4,924.8	66.6054	4,924.8	66.8286	4,924.8	68.7755	4,924.8	69.0602	4,924.8	67.9558	4,924.8	68.3844	4,924.8	63.2436	4,924.8	66.8545	4,924.8	65.1015
5,097.66	85.7736	5,097.66	85.2799	5,097.66	85.8536	5,097.66	85.0567	5,097.66	84.2869	5,097.66	84.8025	5,097.66	84.2807	5,097.66	84.1649	5,097.66	83.046	5,097.66	82.9318	5,097.66	82.482	5,097.66	81.3871	5,097.66	80.9806	5,097.66	78.4766	5,097.66	77.9212	5,097.66	76.8688	5,097.66	75.4818	5,097.66	73.9582	5,097.66	73.5678	5,097.66	70.7461	5,097.66	71.5316	5,097.66	69.8988	5,097.66	69.7817	5,097.66	66.4415	5,097.66	65.9862	5,097.66	66.5253	5,097.66	64.8903	5,097.66	68.4863	5,097.66	65.404	5,097.66	68.0978	5,097.66	68.9221	5,097.66	67.9021	5,097.66	68.2447	5,097.66	63.417	5,097.66	67.558	5,097.66	64.9958
5,277.83	85.1081	5,277.83	84.8846	5,277.83	84.5181	5,277.83	84.093	5,277.83	84.456	5,277.83	83.1149	5,277.83	83.0679	5,277.83	82.6911	5,277.83	82.8649	5,277.83	81.9893	5,277.83	82.9109	5,277.83	79.4596	5,277.83	80.0539	5,277.83	77.0002	5,277.83	77.6642	5,277.83	73.994	5,277.83	75.3701	5,277.83	71.3288	5,277.83	72.8481	5,277.83	70.2845	5,277.83	69.6105	5,277.83	66.4419	5,277.83	68.4954	5,277.83	65.3698	5,277.83	67.5529	5,277.83	66.8752	5,277.83	66.1776	5,277.83	67.393	5,277.83	63.5975	5,277.83	67.614	5,277.83	67.4357	5,277.83	68.0132	5,277.83	66.3252	5,277.83	59.9757	5,277.83	66.287	5,277.83	62.2241
5,463.87	84.5641	5,463.87	83.6225	5,463.87	83.8228	5,463.87	83.2179	5,463.87	83.119	5,463.87	83.0324	5,463.87	82.7888	5,463.87	81.7642	5,463.87	82.2882	5,463.87	81.4254	5,463.87	81.0641	5,463.87	79.5524	5,463.87	79.7467	5,463.87	77.7181	5,463.87	76.6749	5,463.87	73.5173	5,463.87	74.528	5,463.87	70.8566	5,463.87	70.5456	5,463.87	70.1672	5,463.87	69.1427	5,463.87	68.7588	5,463.87	66.4475	5,463.87	67.1839	5,463.87	65.8488	5,463.87	65.9991	5,463.87	63.0526	5,463.87	62.253	5,463.87	62.7394	5,463.87	66.7168	5,463.87	67.0951	5,463.87	67.9641	5,463.87	66.0117	5,463.87	59.5963	5,463.87	62.3832	5,463.87	62.9912
5,657.23	85.5854	5,657.23	85.4387	5,657.23	85.0863	5,657.23	84.117	5,657.23	83.7258	5,657.23	83.3763	5,657.23	83.4686	5,657.23	83.1729	5,657.23	83.4771	5,657.23	81.8635	5,657.23	82.5822	5,657.23	80.193	5,657.23	80.1991	5,657.23	75.8762	5,657.23	75.8994	5,657.23	72.0182	5,657.23	72.9756	5,657.23	71.0749	5,657.23	71.4559	5,657.23	63.806	5,657.23	68.31	5,657.23	66.2823	5,657.23	66.6817	5,657.23	65.2977	5,657.23	64.1304	5,657.23	64.2098	5,657.23	64.6845	5,657.23	61.2807	5,657.23	60.4615	5,657.23	65.0174	5,657.23	66.3564	5,657.23	66.5851	5,657.23	66.3812	5,657.23	60.7857	5,657.23	65.0062	5,657.23	57.7554
5,856.45	84.6127	5,856.45	83.7921	5,856.45	84.3755	5,856.45	82.5595	5,856.45	83.7376	5,856.45	81.5151	5,856.45	83.3875	5,856.45	81.9338	5,856.45	82.9569	5,856.45	80.5943	5,856.45	82.3097	5,856.45	78.3598	5,856.45	79.912	5,856.45	75.4729	5,856.45	77.1337	5,856.45	72.9387	5,856.45	74.5087	5,856.45	70.1422	5,856.45	71.8279	5,856.45	67.6798	5,856.45	69.9383	5,856.45	63.4357	5,856.45	67.4098	5,856.45	63.9186	5,856.45	65.019	5,856.45	63.2297	5,856.45	65.9254	5,856.45	62.1144	5,856.45	62.4425	5,856.45	65.3759	5,856.45	65.5145	5,856.45	65.5577	5,856.45	64.7552	5,856.45	60.8177	5,856.45	65.2773	5,856.45	57.7846
6,062.99	85.5889	6,062.99	84.5141	6,062.99	85.3849	6,062.99	83.0865	6,062.99	84.5045	6,062.99	82.7509	6,062.99	84.418	6,062.99	81.9881	6,062.99	83.8689	6,062.99	80.4065	6,062.99	82.2687	6,062.99	77.0574	6,062.99	79.9625	6,062.99	73.4022	6,062.99	76.5686	6,062.99	70.4196	6,062.99	75.0005	6,062.99	67.0812	6,062.99	70.9266	6,062.99	64.9554	6,062.99	68.1402	6,062.99	62.1042	6,062.99	66.6094	6,062.99	60.8092	6,062.99	64.9381	6,062.99	51.3082	6,062.99	64.0662	6,062.99	54.8841	6,062.99	63.659	6,062.99	64.2262	6,062.99	65.8718	6,062.99	64.3958	6,062.99	65.9286	6,062.99	62.3877	6,062.99	64.2961	6,062.99	45.8481
6,276.86	85.5067	6,276.86	83.9906	6,276.86	85.3795	6,276.86	82.903	6,276.86	84.681	6,276.86	82.6883	6,276.86	84.5619	6,276.86	81.6647	6,276.86	83.7224	6,276.86	79.0961	6,276.86	82.2926	6,276.86	75.9612	6,276.86	79.394	6,276.86	71.8803	6,276.86	76.4165	6,276.86	69.4521	6,276.86	73.6367	6,276.86	68.6345	6,276.86	70.427	6,276.86	66.1302	6,276.86	68.353	6,276.86	61.2707	6,276.86	65.5646	6,276.86	57.2065	6,276.86	64.5067	6,276.86	60.2867	6,276.86	61.2347	6,276.86	56.3809	6,276.86	63.0709	6,276.86	62.856	6,276.86	65.5504	6,276.86	63.2384	6,276.86	64.8388	6,276.86	62.0997	6,276.86	64.3168	6,276.86	47.8598
6,498.05	85.2937	6,498.05	84.133	6,498.05	84.7702	6,498.05	83.2102	6,498.05	83.9471	6,498.05	82.988	6,498.05	83.64	6,498.05	81.6423	6,498.05	83.0284	6,498.05	79.1206	6,498.05	81.5236	6,498.05	75.7696	6,498.05	78.6706	6,498.05	72.5134	6,498.05	75.494	6,498.05	70.6865	6,498.05	73.4008	6,498.05	69.0582	6,498.05	69.6601	6,498.05	65.7135	6,498.05	67.0788	6,498.05	60.0796	6,498.05	64.2907	6,498.05	58.3535	6,498.05	62.6519	6,498.05	56.554	6,498.05	61.5361	6,498.05	58.6983	6,498.05	61.4304	6,498.05	64.6967	6,498.05	64.3045	6,498.05	63.4379	6,498.05	63.9018	6,498.05	57.702	6,498.05	63.0074	6,498.05	51.4517
6,726.56	85.8893	6,726.56	84.8949	6,726.56	85.3005	6,726.56	84.3933	6,726.56	84.5802	6,726.56	83.9957	6,726.56	84.412	6,726.56	82.1399	6,726.56	83.3336	6,726.56	80.2137	6,726.56	81.5171	6,726.56	77.4629	6,726.56	78.1223	6,726.56	73.6352	6,726.56	74.7621	6,726.56	72.2887	6,726.56	72.0636	6,726.56	68.9842	6,726.56	68.8165	6,726.56	67.021	6,726.56	67.8505	6,726.56	65.5384	6,726.56	64.6934	6,726.56	61.724	6,726.56	64.4307	6,726.56	59.2438	6,726.56	55.5097	6,726.56	58.8467	6,726.56	58.9331	6,726.56	65.1648	6,726.56	64.1302	6,726.56	64.9794	6,726.56	65.1636	6,726.56	61.2651	6,726.56	64.1956	6,726.56	54.7325
6,963.87	85.6068	6,963.87	84.99	6,963.87	85.3608	6,963.87	84.5047	6,963.87	84.7077	6,963.87	83.8284	6,963.87	84.0291	6,963.87	82.2151	6,963.87	82.9104	6,963.87	79.5256	6,963.87	80.8612	6,963.87	77.1363	6,963.87	77.1771	6,963.87	74.4966	6,963.87	74.0612	6,963.87	71.5126	6,963.87	71.0373	6,963.87	68.9373	6,963.87	68.5561	6,963.87	65.1609	6,963.87	66.3261	6,963.87	65.9617	6,963.87	65.0038	6,963.87	64.6377	6,963.87	59.0884	6,963.87	57.6206	6,963.87	60.2694	6,963.87	58.5506	6,963.87	59.2649	6,963.87	64.8977	6,963.87	61.7325	6,963.87	64.7072	6,963.87	64.0636	6,963.87	61.7259	6,963.87	62.2381	6,963.87	55.2504
7,209.96	86.7491	7,209.96	86.2558	7,209.96	86.4606	7,209.96	85.9517	7,209.96	85.609	7,209.96	84.8128	7,209.96	85.0087	7,209.96	83.2254	7,209.96	83.3567	7,209.96	79.9457	7,209.96	81.1238	7,209.96	77.412	7,209.96	77.8514	7,209.96	74.8464	7,209.96	74.2398	7,209.96	71.0177	7,209.96	71.6468	7,209.96	67.1029	7,209.96	69.2029	7,209.96	66.4247	7,209.96	67.1349	7,209.96	65.4085	7,209.96	64.8516	7,209.96	63.9078	7,209.96	61.2902	7,209.96	60.6305	7,209.96	59.0121	7,209.96	57.6427	7,209.96	58.398	7,209.96	65.5276	7,209.96	63.4307	7,209.96	64.0581	7,209.96	65.0138	7,209.96	61.5312	7,209.96	62.3038	7,209.96	52.1677
7,464.84	85.9113	7,464.84	85.4198	7,464.84	85.8249	7,464.84	85.1789	7,464.84	85.7446	7,464.84	84.0331	7,464.84	84.7286	7,464.84	81.659	7,464.84	82.7628	7,464.84	78.7511	7,464.84	79.8227	7,464.84	76.6044	7,464.84	76.146	7,464.84	74.2383	7,464.84	74.0488	7,464.84	71.908	7,464.84	70.6473	7,464.84	68.044	7,464.84	68.3017	7,464.84	65.329	7,464.84	67.2939	7,464.84	65.7507	7,464.84	64.8635	7,464.84	62.4469	7,464.84	61.4888	7,464.84	62.7049	7,464.84	59.774	7,464.84	57.5895	7,464.84	57.9059	7,464.84	64.2693	7,464.84	62.1914	7,464.84	63.1629	7,464.84	63.2079	7,464.84	61.8939	7,464.84	62.8	7,464.84	45.7025
7,727.05	86.4613	7,727.05	86.2354	7,727.05	86.4961	7,727.05	85.9382	7,727.05	86.4321	7,727.05	84.9087	7,727.05	85.0219	7,727.05	82.4123	7,727.05	82.7559	7,727.05	79.6431	7,727.05	79.9528	7,727.05	76.6852	7,727.05	76.9511	7,727.05	74.9962	7,727.05	74.4368	7,727.05	71.9758	7,727.05	71.572	7,727.05	69.2972	7,727.05	70.7886	7,727.05	67.4632	7,727.05	67.6137	7,727.05	65.6983	7,727.05	64.9836	7,727.05	62.9459	7,727.05	63.0921	7,727.05	59.0172	7,727.05	58.5517	7,727.05	56.5772	7,727.05	57.3309	7,727.05	64.7943	7,727.05	61.6903	7,727.05	64.626	7,727.05	64.0674	7,727.05	63.1583	7,727.05	63.7465	7,727.05	46.1615
7,999.51	86.2	7,999.51	86.3956	7,999.51	86.5484	7,999.51	86.1981	7,999.51	86.576	7,999.51	84.4175	7,999.51	84.9166	7,999.51	82.0134	7,999.51	82.2893	7,999.51	79.6331	7,999.51	78.9484	7,999.51	77.3022	7,999.51	75.9094	7,999.51	73.9181	7,999.51	73.8677	7,999.51	71.1953	7,999.51	73.5071	7,999.51	70.8658	7,999.51	71.0167	7,999.51	68.1256	7,999.51	67.6073	7,999.51	64.8919	7,999.51	65.2465	7,999.51	62.1581	7,999.51	62.1949	7,999.51	60.5129	7,999.51	60.7832	7,999.51	53.4686	7,999.51	59.2587	7,999.51	62.6737	7,999.51	60.5881	7,999.51	64.909	7,999.51	64.9637	7,999.51	61.8017	7,999.51	63.3038	7,999.51	51.907
8,282.23	86.5492	8,282.23	86.8396	8,282.23	87.5043	8,282.23	86.701	8,282.23	87.0801	8,282.23	84.523	8,282.23	84.8819	8,282.23	81.8902	8,282.23	81.1323	8,282.23	79.091	8,282.23	79.0398	8,282.23	77.8689	8,282.23	77.5732	8,282.23	76.3443	8,282.23	77.0213	8,282.23	73.661	8,282.23	75.222	8,282.23	71.6978	8,282.23	71.7707	8,282.23	68.4703	8,282.23	68.8422	8,282.23	65.8373	8,282.23	66.9417	8,282.23	62.9223	8,282.23	62.2312	8,282.23	60.936	8,282.23	62.3472	8,282.23	58.3135	8,282.23	59.2293	8,282.23	63.7477	8,282.23	61.5558	8,282.23	65.0497	8,282.23	65.8833	8,282.23	60.3218	8,282.23	64.0494	8,282.23	53.5988
8,573.73	86.4111	8,573.73	87.1042	8,573.73	87.369	8,573.73	86.9495	8,573.73	87.2977	8,573.73	84.1125	8,573.73	85.0472	8,573.73	80.6143	8,573.73	82.0694	8,573.73	79.5778	8,573.73	79.9088	8,573.73	78.6697	8,573.73	78.9507	8,573.73	77.4061	8,573.73	78.3987	8,573.73	75.5437	8,573.73	75.7116	8,573.73	73.0936	8,573.73	72.9701	8,573.73	68.9078	8,573.73	70.239	8,573.73	66.7607	8,573.73	68.3554	8,573.73	61.2405	8,573.73	66.6125	8,573.73	61.251	8,573.73	62.9865	8,573.73	59.6794	8,573.73	56.7383	8,573.73	63.2916	8,573.73	62.2719	8,573.73	63.2596	8,573.73	66.4447	8,573.73	62.3007	8,573.73	64.1715	8,573.73	55.0124
8,876.95	86.5492	8,876.95	86.9173	8,876.95	87.3544	8,876.95	86.3194	8,876.95	86.859	8,876.95	83.0963	8,876.95	83.5082	8,876.95	80.0566	8,876.95	80.0566	8,876.95	79.5868	8,876.95	79.6726	8,876.95	79.8145	8,876.95	79.7889	8,876.95	78.4928	8,876.95	78.3347	8,876.95	75.5058	8,876.95	76.0946	8,876.95	72.1065	8,876.95	72.9393	8,876.95	68.5085	8,876.95	70.2645	8,876.95	67.0271	8,876.95	66.9126	8,876.95	62.3002	8,876.95	62.7503	8,876.95	60.7021	8,876.95	62.1615	8,876.95	58.889	8,876.95	55.9318	8,876.95	63.9113	8,876.95	59.9236	8,876.95	65.2763	8,876.95	65.0968	8,876.95	61.0609	8,876.95	63.7698	8,876.95	52.6656
9,188.96	87.1674	9,188.96	87.3584	9,188.96	87.7305	9,188.96	86.0974	9,188.96	86.6084	9,188.96	82.4736	9,188.96	83.7577	9,188.96	80.1828	9,188.96	80.5335	9,188.96	80.3193	9,188.96	80.4022	9,188.96	79.9688	9,188.96	80.3182	9,188.96	77.6147	9,188.96	78.3159	9,188.96	74.921	9,188.96	74.8002	9,188.96	71.8907	9,188.96	72.1832	9,188.96	68.2508	9,188.96	68.1942	9,188.96	63.4344	9,188.96	65.577	9,188.96	60.0585	9,188.96	64.5865	9,188.96	56.5968	9,188.96	60.936	9,188.96	57.8529	9,188.96	54.1511	9,188.96	62.4778	9,188.96	57.3738	9,188.96	61.043	9,188.96	63.8221	9,188.96	59.8005	9,188.96	63.4181	9,188.96	37.6246
9,514.16	87.5617	9,514.16	87.3157	9,514.16	87.4679	9,514.16	85.6014	9,514.16	86.2401	9,514.16	82.0335	9,514.16	83.0886	9,514.16	79.1359	9,514.16	79.8438	9,514.16	80.0447	9,514.16	80.1989	9,514.16	79.3328	9,514.16	79.409	9,514.16	76.5895	9,514.16	76.945	9,514.16	72.4352	9,514.16	73.5733	9,514.16	68.8144	9,514.16	69.4768	9,514.16	66.5481	9,514.16	66.114	9,514.16	62.9689	9,514.16	62.4758	9,514.16	58.6768	9,514.16	59.0566	9,514.16	55.5215	9,514.16	59.0622	9,514.16	55.8027	9,514.16	54.5075	9,514.16	56.2688	9,514.16	55.7682	9,514.16	60.8987	9,514.16	61.9358	9,514.16	55.1124	9,514.16	60.4473	9,514.16	48.3439
9,849.61	87.9219	9,849.61	87.4074	9,849.61	87.6917	9,849.61	85.3792	9,849.61	86.0649	9,849.61	81.6456	9,849.61	82.3843	9,849.61	79.4546	9,849.61	79.4665	9,849.61	79.6179	9,849.61	80.1829	9,849.61	78.283	9,849.61	78.7007	9,849.61	75.2531	9,849.61	75.4398	9,849.61	71.0029	9,849.61	70.4111	9,849.61	66.6654	9,849.61	66.545	9,849.61	63.6348	9,849.61	64.0732	9,849.61	62.5833	9,849.61	60.8891	9,849.61	56.0439	9,849.61	56.4434	9,849.61	56.5162	9,849.61	56.2207	9,849.61	53.5026	9,849.61	50.2579	9,849.61	54.1336	9,849.61	51.5185	9,849.61	57.6012	9,849.61	60.4444	9,849.61	49.9254	9,849.61	58.5282	9,849.61	49.1015
10,196.8	88.1373	10,196.8	87.0566	10,196.8	87.759	10,196.8	84.9255	10,196.8	85.5245	10,196.8	81.1901	10,196.8	81.8195	10,196.8	79.656	10,196.8	79.926	10,196.8	79.4798	10,196.8	80.045	10,196.8	77.1745	10,196.8	77.5184	10,196.8	72.8567	10,196.8	73.0879	10,196.8	66.7947	10,196.8	68.4881	10,196.8	61.1373	10,196.8	63.4617	10,196.8	61.142	10,196.8	60.1345	10,196.8	59.0373	10,196.8	57.4652	10,196.8	56.7109	10,196.8	55.0041	10,196.8	55.0416	10,196.8	51.4438	10,196.8	44.2993	10,196.8	30.5536	10,196.8	55.154	10,196.8	48.0602	10,196.8	58.9627	10,196.8	58.4548	10,196.8	52.2475	10,196.8	52.9438	10,196.8	46.3243
10,555.7	88.0928	10,555.7	86.7602	10,555.7	87.548	10,555.7	84.3011	10,555.7	85.1576	10,555.7	80.1516	10,555.7	81.2618	10,555.7	79.7324	10,555.7	80.0564	10,555.7	78.4987	10,555.7	79.593	10,555.7	75.0357	10,555.7	75.6497	10,555.7	68.2914	10,555.7	69.3861	10,555.7	60.7039	10,555.7	61.0504	10,555.7	55.0552	10,555.7	57.2559	10,555.7	54.9397	10,555.7	54.25	10,555.7	49.8518	10,555.7	49.6201	10,555.7	54.6765	10,555.7	53.0373	10,555.7	54.2946	10,555.7	50.1297	10,555.7	44.6135	10,555.7	43.3217	10,555.7	53.6851	10,555.7	43.2413	10,555.7	55.541	10,555.7	54.061	10,555.7	49.6597	10,555.7	52.0484	10,555.7	38.5468
10,927.7	88.1263	10,927.7	86.8432	10,927.7	87.4612	10,927.7	83.9606	10,927.7	84.717	10,927.7	80.7035	10,927.7	81.1331	10,927.7	80.6518	10,927.7	80.8488	10,927.7	78.3643	10,927.7	79.1103	10,927.7	72.4228	10,927.7	72.8996	10,927.7	62.4136	10,927.7	62.6778	10,927.7	61.5635	10,927.7	60.3351	10,927.7	59.7593	10,927.7	60.5544	10,927.7	59.2973	10,927.7	59.5597	10,927.7	55.6801	10,927.7	56.5682	10,927.7	57.5448	10,927.7	57.7555	10,927.7	57.0282	10,927.7	54.9173	10,927.7	51.5827	10,927.7	53.1214	10,927.7	47.1038	10,927.7	43.1766	10,927.7	55.4701	10,927.7	53.6294	10,927.7	49.1261	10,927.7	55.2412	10,927.7	46.0399
11,313	88.2592	11,313	86.7304	11,313	87.4062	11,313	83.8729	11,313	84.7601	11,313	81.753	11,313	82.3262	11,313	81.693	11,313	82.1586	11,313	78.8408	11,313	79.6286	11,313	72.5846	11,313	72.8953	11,313	67.599	11,313	70.0454	11,313	67.3826	11,313	67.9379	11,313	64.458	11,313	66.8677	11,313	62.7272	11,313	64.1021	11,313	59.4935	11,313	62.2767	11,313	61.9761	11,313	61.3272	11,313	59.2476	11,313	58.8682	11,313	53.3817	11,313	55.8375	11,313	46.3844	11,313	50.0666	11,313	55.7417	11,313	56.5391	11,313	50.9973	11,313	57.4979	11,313	47.2603
11,712.9	88.4172	11,712.9	86.5506	11,712.9	87.3396	11,712.9	83.9146	11,712.9	84.8313	11,712.9	82.2592	11,712.9	83.0263	11,712.9	81.3685	11,712.9	82.2319	11,712.9	77.5793	11,712.9	78.865	11,712.9	73.0533	11,712.9	73.9841	11,712.9	70.7923	11,712.9	72.935	11,712.9	69.2111	11,712.9	70.4107	11,712.9	67.1293	11,712.9	68.8025	11,712.9	63.612	11,712.9	65.2493	11,712.9	59.5152	11,712.9	62.7567	11,712.9	60.72	11,712.9	61.9667	11,712.9	57.7938	11,712.9	57.822	11,712.9	54.3746	11,712.9	55.2665	11,712.9	41.8095	11,712.9	47.6903	11,712.9	56.3012	11,712.9	56.041	11,712.9	49.9464	11,712.9	58.0763	11,712.9	45.5177
12,126	88.4213	12,126	86.439	12,126	87.2948	12,126	83.9005	12,126	84.5205	12,126	82.0504	12,126	82.6423	12,126	80.2401	12,126	81.0513	12,126	75.6229	12,126	77.1442	12,126	73.8154	12,126	74.6913	12,126	71.5504	12,126	73.9827	12,126	68.1089	12,126	70.3427	12,126	67.0009	12,126	68.4509	12,126	63.252	12,126	63.0857	12,126	60.6877	12,126	62.2362	12,126	60.3151	12,126	60.9862	12,126	56.0343	12,126	58.7573	12,126	50.5594	12,126	54.2898	12,126	40.9118	12,126	50.1633	12,126	54.5722	12,126	55.8325	12,126	51.5354	12,126	56.8186	12,126	39.4369
12,553.7	88.0424	12,553.7	86.1035	12,553.7	86.8312	12,553.7	82.9738	12,553.7	83.7282	12,553.7	81.4481	12,553.7	81.6397	12,553.7	79.1975	12,553.7	80.0524	12,553.7	75.4684	12,553.7	77.1311	12,553.7	74.0512	12,553.7	75.224	12,553.7	71.9208	12,553.7	74.0372	12,553.7	68.1708	12,553.7	69.0955	12,553.7	64.535	12,553.7	66.4448	12,553.7	60.7634	12,553.7	60.4678	12,553.7	59.1551	12,553.7	59.8416	12,553.7	59.9701	12,553.7	59.5336	12,553.7	56.4158	12,553.7	58.2795	12,553.7	42.5103	12,553.7	46.1029	12,553.7	34.0805	12,553.7	45.9835	12,553.7	51.5424	12,553.7	52.6286	12,553.7	49.4315	12,553.7	56.2539	12,553.7	39.6264
12,996.1	87.6183	12,996.1	85.4307	12,996.1	86.0292	12,996.1	81.932	12,996.1	82.6883	12,996.1	81.5671	12,996.1	81.6691	12,996.1	79.0631	12,996.1	80.5485	12,996.1	75.5424	12,996.1	77.9319	12,996.1	74.2504	12,996.1	75.3036	12,996.1	70.3126	12,996.1	72.5641	12,996.1	65.421	12,996.1	66.8767	12,996.1	61.8671	12,996.1	64.4576	12,996.1	57.7897	12,996.1	58.4659	12,996.1	53.8674	12,996.1	57.5766	12,996.1	56.403	12,996.1	57.2914	12,996.1	53.0543	12,996.1	54.3691	12,996.1	40.7063	12,996.1	46.9764	12,996.1	46.7534	12,996.1	40.8999	12,996.1	49.7303	12,996.1	52.4886	12,996.1	49.3762	12,996.1	56.3524	12,996.1	46.282
13,454.6	87.6093	13,454.6	84.7831	13,454.6	85.6352	13,454.6	81.9466	13,454.6	81.9006	13,454.6	81.975	13,454.6	82.3684	13,454.6	78.6489	13,454.6	80.8901	13,454.6	75.2955	13,454.6	77.6318	13,454.6	73.5473	13,454.6	74.4024	13,454.6	67.9941	13,454.6	70.9965	13,454.6	62.7926	13,454.6	65.97	13,454.6	61.3503	13,454.6	63.6808	13,454.6	56.6198	13,454.6	59.9657	13,454.6	55.0846	13,454.6	57.3072	13,454.6	57.872	13,454.6	56.6112	13,454.6	51.8688	13,454.6	54.8443	13,454.6	42.28	13,454.6	47.474	13,454.6	51.1155	13,454.6	48.47	13,454.6	52.4073	13,454.6	53.708	13,454.6	47.4541	13,454.6	55.2072	13,454.6	43.8268
13,929.2	87.5716	13,929.2	84.4336	13,929.2	85.2009	13,929.2	81.9715	13,929.2	81.5712	13,929.2	81.8314	13,929.2	83.078	13,929.2	78.2918	13,929.2	80.9798	13,929.2	74.841	13,929.2	77.4872	13,929.2	72.0805	13,929.2	74.0643	13,929.2	68.1812	13,929.2	72.1267	13,929.2	64.1303	13,929.2	67.7124	13,929.2	62.8588	13,929.2	65.1288	13,929.2	59.3931	13,929.2	61.4397	13,929.2	58.822	13,929.2	60.0502	13,929.2	56.2827	13,929.2	56.4316	13,929.2	51.7644	13,929.2	55.0754	13,929.2	42.6822	13,929.2	50.1595	13,929.2	51.0191	13,929.2	45.7857	13,929.2	53.8354	13,929.2	54.376	13,929.2	44.7069	13,929.2	55.5121	13,929.2	46.3301
14,419.9	87.332	14,419.9	83.6806	14,419.9	84.3087	14,419.9	82.1362	14,419.9	82.1058	14,419.9	81.7566	14,419.9	83.4871	14,419.9	77.7815	14,419.9	80.43	14,419.9	74.7241	14,419.9	76.8581	14,419.9	72.3594	14,419.9	75.0886	14,419.9	70.4957	14,419.9	72.9247	14,419.9	67.9455	14,419.9	68.9369	14,419.9	65.9107	14,419.9	67.0828	14,419.9	61.2734	14,419.9	62.9545	14,419.9	60.7084	14,419.9	61.4908	14,419.9	57.9708	14,419.9	57.3879	14,419.9	52.1898	14,419.9	53.9213	14,419.9	37.1916	14,419.9	51.961	14,419.9	50.6024	14,419.9	40.0692	14,419.9	54.8131	14,419.9	52.0974	14,419.9	43.0532	14,419.9	54.7592	14,419.9	40.8174
14,928.2	86.7939	14,928.2	83.0261	14,928.2	83.5925	14,928.2	83.314	14,928.2	83.6916	14,928.2	82.2509	14,928.2	84.0358	14,928.2	78.428	14,928.2	79.9367	14,928.2	75.4989	14,928.2	77.287	14,928.2	73.4858	14,928.2	74.925	14,928.2	72.0581	14,928.2	73.3424	14,928.2	69.8288	14,928.2	69.5023	14,928.2	66.0384	14,928.2	66.6612	14,928.2	61.6147	14,928.2	62.21	14,928.2	61.1548	14,928.2	61.0501	14,928.2	57.5365	14,928.2	56.4532	14,928.2	51.4588	14,928.2	53.2729	14,928.2	44.6522	14,928.2	47.5951	14,928.2	50.6127	14,928.2	42.2487	14,928.2	55.5627	14,928.2	45.768	14,928.2	44.5456	14,928.2	52.4191	14,928.2	50.0633
15,455.6	86.1786	15,455.6	83.6604	15,455.6	83.6406	15,455.6	84.5898	15,455.6	85.3614	15,455.6	82.5284	15,455.6	84.1425	15,455.6	78.2098	15,455.6	79.69	15,455.6	75.0257	15,455.6	76.7605	15,455.6	73.2969	15,455.6	74.1384	15,455.6	72.4093	15,455.6	72.3935	15,455.6	68.769	15,455.6	68.65	15,455.6	65.3287	15,455.6	64.362	15,455.6	61.6083	15,455.6	60.7396	15,455.6	60.4536	15,455.6	59.5213	15,455.6	56.0135	15,455.6	54.9496	15,455.6	47.9721	15,455.6	50.123	15,455.6	44.4134	15,455.6	34.4521	15,455.6	46.6415	15,455.6	27.9967	15,455.6	53.0541	15,455.6	42.9224	15,455.6	49.8682	15,455.6	52.5619	15,455.6	50.6062
16,000.5	86.1023	16,000.5	84.4665	16,000.5	84.7177	16,000.5	85.2849	16,000.5	86.1542	16,000.5	82.1381	16,000.5	83.4808	16,000.5	76.8385	16,000.5	78.6648	16,000.5	73.6484	16,000.5	75.7803	16,000.5	73.525	16,000.5	72.3786	16,000.5	72.0276	16,000.5	69.9656	16,000.5	68.2313	16,000.5	65.445	16,000.5	64.4206	16,000.5	62.2152	16,000.5	60.4816	16,000.5	58.608	16,000.5	58.4	16,000.5	56.2867	16,000.5	55.0169	16,000.5	50.4873	16,000.5	43.861	16,000.5	49.012	16,000.5	41.9785	16,000.5	37.6991	16,000.5	44.3806	16,000.5	46.5234	16,000.5	50.1033	16,000.5	37.1009	16,000.5	49.3271	16,000.5	50.8093	16,000.5	40.5805
16,564.5	85.3816	16,564.5	84.322	16,564.5	84.6362	16,564.5	85.014	16,564.5	85.8231	16,564.5	81.1876	16,564.5	82.2165	16,564.5	76.0173	16,564.5	77.6692	16,564.5	73.7863	16,564.5	74.6225	16,564.5	72.9439	16,564.5	69.905	16,564.5	70.2985	16,564.5	67.9878	16,564.5	67.046	16,564.5	64.3623	16,564.5	61.6235	16,564.5	59.0246	16,564.5	58.5012	16,564.5	56.1945	16,564.5	55.3422	16,564.5	53.3876	16,564.5	53.2397	16,564.5	47.9343	16,564.5	42.799	16,564.5	45.4419	16,564.5	30.3784	16,564.5	33.9464	16,564.5	33.6289	16,564.5	46.6247	16,564.5	36.9654	16,564.5	39.8275	16,564.5	47.7349	16,564.5	50.6923	16,564.5	45.8265
17,148.9	84.1703	17,148.9	84.4251	17,148.9	84.7081	17,148.9	84.9622	17,148.9	85.6819	17,148.9	79.8876	17,148.9	81.3211	17,148.9	75.5525	17,148.9	77.3119	17,148.9	73.427	17,148.9	73.6604	17,148.9	71.9131	17,148.9	69.7212	17,148.9	69.2828	17,148.9	67.2286	17,148.9	65.0292	17,148.9	63.8682	17,148.9	60.474	17,148.9	58.131	17,148.9	56.9083	17,148.9	55.6439	17,148.9	54.4439	17,148.9	51.3249	17,148.9	50.4701	17,148.9	46.8933	17,148.9	40.969	17,148.9	46.8136	17,148.9	36.7369	17,148.9	41.0346	17,148.9	42.393	17,148.9	45.3544	17,148.9	38.1584	17,148.9	40.2225	17,148.9	47.7104	17,148.9	49.9372	17,148.9	42.1616
17,752.4	83.7539	17,752.4	84.5807	17,752.4	84.8739	17,752.4	84.7339	17,752.4	85.2213	17,752.4	79.1195	17,752.4	80.8215	17,752.4	75.1364	17,752.4	77.1355	17,752.4	72.6515	17,752.4	73.0648	17,752.4	70.6666	17,752.4	69.9162	17,752.4	66.7417	17,752.4	66.8827	17,752.4	62.5838	17,752.4	63.0572	17,752.4	56.9943	17,752.4	56.6512	17,752.4	54.3734	17,752.4	54.5584	17,752.4	52.361	17,752.4	51.4079	17,752.4	47.7281	17,752.4	46.7568	17,752.4	36.1188	17,752.4	44.5213	17,752.4	34.3533	17,752.4	34.9184	17,752.4	27.575	17,752.4	46.1136	17,752.4	35.8346	17,752.4	41.6973	17,752.4	40.8127	17,752.4	47.8246	17,752.4	41.3096
18,379.4	82.7395	18,379.4	84.1422	18,379.4	84.515	18,379.4	84.1207	18,379.4	84.5636	18,379.4	78.4102	18,379.4	80.1514	18,379.4	74.0888	18,379.4	75.8884	18,379.4	71.1459	18,379.4	71.323	18,379.4	67.879	18,379.4	67.9427	18,379.4	62.5486	18,379.4	63.2641	18,379.4	59.2628	18,379.4	59.6814	18,379.4	52.9553	18,379.4	53.1766	18,379.4	50.9905	18,379.4	51.5874	18,379.4	47.5713	18,379.4	48.1644	18,379.4	42.7053	18,379.4	45.5865	18,379.4	35.4075	18,379.4	39.0695	18,379.4	29.3767	18,379.4	25.6297	18,379.4	33.3297	18,379.4	43.8526	18,379.4	40.8662	18,379.4	40.7783	18,379.4	38.3665	18,379.4	44.7265	18,379.4	42.5525
19,026.9	81.5394	19,026.9	83.3641	19,026.9	83.5797	19,026.9	83.059	19,026.9	83.3839	19,026.9	76.5048	19,026.9	78.4183	19,026.9	71.1826	19,026.9	73.5739	19,026.9	66.7786	19,026.9	68.1267	19,026.9	60.4566	19,026.9	63.3708	19,026.9	56.6616	19,026.9	57.9726	19,026.9	56.4751	19,026.9	56.3858	19,026.9	51.9191	19,026.9	52.1988	19,026.9	48.0562	19,026.9	47.6435	19,026.9	43.8235	19,026.9	43.9246	19,026.9	41.8896	19,026.9	42.8052	19,026.9	31.1322	19,026.9	37.3378	19,026.9	27.8901	19,026.9	31.3576	19,026.9	34.2584	19,026.9	40.4861	19,026.9	39.7298	19,026.9	38.6123	19,026.9	37.2385	19,026.9	44.1683	19,026.9	43.305
19,697.8	79.0671	19,697.8	82.1763	19,697.8	82.1259	19,697.8	81.5821	19,697.8	81.8009	19,697.8	73.8971	19,697.8	76.4819	19,697.8	68.6048	19,697.8	70.9241	19,697.8	63.31	19,697.8	65.5117	19,697.8	61.6593	19,697.8	62.6903	19,697.8	60.955	19,697.8	58.7913	19,697.8	58.7247	19,697.8	58.4951	19,697.8	54.2373	19,697.8	54.2772	19,697.8	48.419	19,697.8	49.512	19,697.8	45.4329	19,697.8	45.9741	19,697.8	41.0779	19,697.8	43.4833	19,697.8	35.8603	19,697.8	39.1331	19,697.8	22.0653	19,697.8	32.257	19,697.8	31.8045	19,697.8	40.6761	19,697.8	42.476	19,697.8	40.6515	19,697.8	28.5837	19,697.8	43.6525	19,697.8	44.3887
19,999.5	77.4975	19,999.5	81.7743	19,999.5	81.5946	19,999.5	81.1361	19,999.5	81.1835	19,999.5	73.1853	19,999.5	76.1461	19,999.5	68.0208	19,999.5	70.3149	19,999.5	62.9607	19,999.5	65.9315	19,999.5	63.0869	19,999.5	62.7154	19,999.5	61.7066	19,999.5	60.2208	19,999.5	58.5791	19,999.5	59.1682	19,999.5	56.7149	19,999.5	53.929	19,999.5	48.5944	19,999.5	51.2763	19,999.5	48.2959	19,999.5	43.6289	19,999.5	43.1511	19,999.5	52.0189	19,999.5	48.0301	19,999.5	45.2771	19,999.5	39.6736	19,999.5	44.2822	19,999.5	46.59	19,999.5	51.1044	19,999.5	41.9639	19,999.5	39.757	19,999.5	41.2229	19,999.5	35.3759	19,999.5	43.9019
