"SPL Horizontal"																																																																							
"On-Axis"		"10°"		"-10°"		"20°"		"-20°"		"30°"		"-30°"		"40°"		"-40°"		"50°"		"-50°"		"60°"		"-60°"		"70°"		"-70°"		"80°"		"-80°"		"90°"		"-90°"		"100°"		"-100°"		"110°"		"-110°"		"120°"		"-120°"		"130°"		"-130°"		"140°"		"-140°"		"150°"		"-150°"		"160°"		"-160°"		"170°"		"-170°"		"180°"	
"Frequency [Hz]"	"Sound Pessure Level [dB]  / [2.83V 1m] "	"Frequency [Hz]"	"Sound Pessure Level [dB]  / [2.83V 1m] "	"Frequency [Hz]"	"Sound Pessure Level [dB]  / [2.83V 1m] "	"Frequency [Hz]"	"Sound Pessure Level [dB]  / [2.83V 1m] "	"Frequency [Hz]"	"Sound Pessure Level [dB]  / [2.83V 1m] "	"Frequency [Hz]"	"Sound Pessure Level [dB]  / [2.83V 1m] "	"Frequency [Hz]"	"Sound Pessure Level [dB]  / [2.83V 1m] "	"Frequency [Hz]"	"Sound Pessure Level [dB]  / [2.83V 1m] "	"Frequency [Hz]"	"Sound Pessure Level [dB]  / [2.83V 1m] "	"Frequency [Hz]"	"Sound Pessure Level [dB]  / [2.83V 1m] "	"Frequency [Hz]"	"Sound Pessure Level [dB]  / [2.83V 1m] "	"Frequency [Hz]"	"Sound Pessure Level [dB]  / [2.83V 1m] "	"Frequency [Hz]"	"Sound Pessure Level [dB]  / [2.83V 1m] "	"Frequency [Hz]"	"Sound Pessure Level [dB]  / [2.83V 1m] "	"Frequency [Hz]"	"Sound Pessure Level [dB]  / [2.83V 1m] "	"Frequency [Hz]"	"Sound Pessure Level [dB]  / [2.83V 1m] "	"Frequency [Hz]"	"Sound Pessure Level [dB]  / [2.83V 1m] "	"Frequency [Hz]"	"Sound Pessure Level [dB]  / [2.83V 1m] "	"Frequency [Hz]"	"Sound Pessure Level [dB]  / [2.83V 1m] "	"Frequency [Hz]"	"Sound Pessure Level [dB]  / [2.83V 1m] "	"Frequency [Hz]"	"Sound Pessure Level [dB]  / [2.83V 1m] "	"Frequency [Hz]"	"Sound Pessure Level [dB]  / [2.83V 1m] "	"Frequency [Hz]"	"Sound Pessure Level [dB]  / [2.83V 1m] "	"Frequency [Hz]"	"Sound Pessure Level [dB]  / [2.83V 1m] "	"Frequency [Hz]"	"Sound Pessure Level [dB]  / [2.83V 1m] "	"Frequency [Hz]"	"Sound Pessure Level [dB]  / [2.83V 1m] "	"Frequency [Hz]"	"Sound Pessure Level [dB]  / [2.83V 1m] "	"Frequency [Hz]"	"Sound Pessure Level [dB]  / [2.83V 1m] "	"Frequency [Hz]"	"Sound Pessure Level [dB]  / [2.83V 1m] "	"Frequency [Hz]"	"Sound Pessure Level [dB]  / [2.83V 1m] "	"Frequency [Hz]"	"Sound Pessure Level [dB]  / [2.83V 1m] "	"Frequency [Hz]"	"Sound Pessure Level [dB]  / [2.83V 1m] "	"Frequency [Hz]"	"Sound Pessure Level [dB]  / [2.83V 1m] "	"Frequency [Hz]"	"Sound Pessure Level [dB]  / [2.83V 1m] "	"Frequency [Hz]"	"Sound Pessure Level [dB]  / [2.83V 1m] "	"Frequency [Hz]"	"Sound Pessure Level [dB]  / [2.83V 1m] "
20.5078	48.5414	20.5078	48.2796	20.5078	48.4915	20.5078	47.6821	20.5078	48.1239	20.5078	46.6893	20.5078	47.4	20.5078	45.1944	20.5078	46.2367	20.5078	43.0493	20.5078	44.4819	20.5078	40.332	20.5078	41.8968	20.5078	39.0881	20.5078	38.5813	20.5078	41.8985	20.5078	38.1806	20.5078	45.5784	20.5078	42.3022	20.5078	48.6078	20.5078	46.1913	20.5078	51.0044	20.5078	49.1762	20.5078	52.9118	20.5078	51.494	20.5078	54.4283	20.5078	53.3225	20.5078	55.6108	20.5078	54.7629	20.5078	56.4909	20.5078	55.8712	20.5078	57.0844	20.5078	56.6774	20.5078	57.3986	20.5078	57.1966	20.5078	57.4361
21.9727	47.9928	21.9727	47.7698	21.9727	47.8658	21.9727	47.1872	21.9727	47.3776	21.9727	46.2272	21.9727	46.4963	21.9727	44.9243	21.9727	45.1912	21.9727	43.5992	21.9727	43.5626	21.9727	43.2958	21.9727	42.3392	21.9727	44.9009	21.9727	43.098	21.9727	47.5011	21.9727	45.6783	21.9727	50.0776	21.9727	48.5281	21.9727	52.3297	21.9727	51.0431	21.9727	54.2366	21.9727	53.1639	21.9727	55.8303	21.9727	54.9358	21.9727	57.1413	21.9727	56.4044	21.9727	58.189	21.9727	57.6003	21.9727	58.9836	21.9727	58.5403	21.9727	59.5292	21.9727	59.2319	21.9727	59.8266	21.9727	59.6773	21.9727	59.8758
23.4375	50.1134	23.4375	49.9037	23.4375	50.0552	23.4375	49.432	23.4375	49.7305	23.4375	48.7318	23.4375	49.1535	23.4375	47.9287	23.4375	48.3847	23.4375	47.3645	23.4375	47.6211	23.4375	47.6016	23.4375	47.3136	23.4375	48.8937	23.4375	47.9829	23.4375	50.8221	23.4375	49.5916	23.4375	52.868	23.4375	51.603	23.4375	54.7727	23.4375	53.601	23.4375	56.4544	23.4375	55.4157	23.4375	57.8976	23.4375	57.0011	23.4375	59.1046	23.4375	58.3518	23.4375	60.0791	23.4375	59.4713	23.4375	60.8222	23.4375	60.362	23.4375	61.3329	23.4375	61.0235	23.4375	61.609	23.4375	61.4534	23.4375	61.6492
24.9023	52.6551	24.9023	52.5203	24.9023	52.6131	24.9023	52.2291	24.9023	52.3974	24.9023	51.8399	24.9023	52.0375	24.9023	51.4804	24.9023	51.6116	24.9023	51.3727	24.9023	51.2827	24.9023	51.768	24.9023	51.3074	24.9023	52.7554	24.9023	51.9146	24.9023	54.1706	24.9023	53.0979	24.9023	55.7572	24.9023	54.624	24.9023	57.3257	24.9023	56.2413	24.9023	58.7756	24.9023	57.7921	24.9023	60.0606	24.9023	59.2001	24.9023	61.1594	24.9023	60.4315	24.9023	62.0601	24.9023	61.4703	24.9023	62.7541	24.9023	62.3068	24.9023	63.2339	24.9023	62.9331	24.9023	63.4939	24.9023	63.3426	24.9023	63.5303
26.3672	55.6098	26.3672	55.5226	26.3672	55.5785	26.3672	55.3367	26.3672	55.4322	26.3672	55.1034	26.3672	55.2	26.3672	54.9183	26.3672	54.9474	26.3672	54.9256	26.3672	54.7905	26.3672	55.2769	26.3672	54.8885	26.3672	56.0414	26.3672	55.3805	26.3672	57.1504	26.3672	56.2881	26.3672	58.4508	26.3672	57.4974	26.3672	59.7954	26.3672	58.8435	26.3672	61.083	26.3672	60.1914	26.3672	62.2537	26.3672	61.4556	26.3672	63.2729	26.3672	62.5872	26.3672	64.1192	26.3672	63.5575	26.3672	64.777	26.3672	64.348	26.3672	65.2345	26.3672	64.9446	26.3672	65.483	26.3672	65.3369	26.3672	65.5175
27.832	58.6229	27.832	58.5678	27.832	58.6049	27.832	58.4567	27.832	58.5171	27.832	58.3303	27.832	58.3841	27.832	58.2582	27.832	58.2561	27.832	58.3352	27.832	58.2128	27.832	58.657	27.832	58.3546	27.832	59.2743	27.832	58.7685	27.832	60.1605	27.832	59.4815	27.832	61.227	27.832	60.4415	27.832	62.3682	27.832	61.5481	27.832	63.4958	27.832	62.6985	27.832	64.5468	27.832	63.8124	27.832	65.4787	27.832	64.8343	27.832	66.2626	27.832	65.7267	27.832	66.8771	27.832	66.4634	27.832	67.3064	27.832	67.0249	27.832	67.5394	27.832	67.397	27.832	67.5699
29.2969	61.5689	29.2969	61.5362	29.2969	61.5585	29.2969	61.4741	29.2969	61.5077	29.2969	61.4141	29.2969	61.436	29.2969	61.4067	29.2969	61.3813	29.2969	61.5169	29.2969	61.3999	29.2969	61.8091	29.2969	61.5591	29.2969	62.3216	29.2969	61.918	29.2969	63.0463	29.2969	62.5013	29.2969	63.9311	29.2969	63.2852	29.2969	64.9019	29.2969	64.2074	29.2969	65.8861	29.2969	65.1921	29.2969	66.8241	29.2969	66.17	29.2969	67.6708	29.2969	67.0864	29.2969	68.3924	29.2969	67.8999	29.2969	68.9635	29.2969	68.5797	29.2969	69.3651	29.2969	69.1023	29.2969	69.584	29.2969	69.4504	29.2969	69.6128
30.7617	64.2544	30.7617	64.2342	30.7617	64.2459	30.7617	64.196	30.7617	64.2109	30.7617	64.1643	30.7617	64.1644	30.7617	64.1768	30.7617	64.1356	30.7617	64.2819	30.7617	64.1665	30.7617	64.5285	30.7617	64.3074	30.7617	64.9501	30.7617	64.6046	30.7617	65.5497	30.7617	65.0831	30.7617	66.2962	30.7617	65.7345	30.7617	67.1358	30.7617	66.5184	30.7617	68.0074	30.7617	67.3768	30.7617	68.8552	30.7617	68.2493	30.7617	69.6329	30.7617	69.0829	30.7617	70.3036	30.7617	69.8343	30.7617	70.8387	30.7617	70.4696	30.7617	71.2167	30.7617	70.9623	30.7617	71.4226	30.7617	71.2929	30.7617	71.4484
32.2266	66.6343	32.2266	66.6235	32.2266	66.6288	32.2266	66.6056	32.2266	66.6089	32.2266	66.6002	32.2266	66.5871	32.2266	66.6376	32.2266	66.5866	32.2266	66.7556	32.2266	66.6406	32.2266	66.9921	32.2266	66.788	32.2266	67.3739	32.2266	67.0644	32.2266	67.9059	32.2266	67.4909	32.2266	68.5672	32.2266	68.0641	32.2266	69.3164	32.2266	68.7559	32.2266	70.1031	32.2266	69.5215	32.2266	70.8774	32.2266	70.3099	32.2266	71.5949	32.2266	71.0729	32.2266	72.2188	32.2266	71.7686	32.2266	72.7194	32.2266	72.3624	32.2266	73.0739	32.2266	72.8266	32.2266	73.2667	32.2266	73.1402	32.2266	73.2891
33.6914	68.9967	33.6914	68.997	33.6914	68.9927	33.6914	69.0008	33.6914	68.9864	33.6914	69.0243	33.6914	68.9881	33.6914	69.0911	33.6914	69.0163	33.6914	69.2301	33.6914	69.0971	33.6914	69.4696	33.6914	69.2599	33.6914	69.8298	33.6914	69.5314	33.6914	70.3147	33.6914	69.9273	33.6914	70.9092	33.6914	70.4459	33.6914	71.5819	33.6914	71.0669	33.6914	72.2919	33.6914	71.7552	33.6914	72.9961	33.6914	72.4691	33.6914	73.6542	33.6914	73.166	33.6914	74.2306	33.6914	73.807	33.6914	74.6958	33.6914	74.3583	33.6914	75.0266	33.6914	74.7919	33.6914	75.2065	33.6914	75.0862	33.6914	75.2268
35.1563	71.4889	35.1563	71.4958	35.1563	71.488	35.1563	71.5145	35.1563	71.4942	35.1563	71.5573	35.1563	71.5154	35.1563	71.6424	35.1563	71.5661	35.1563	71.7913	35.1563	71.6656	35.1563	72.0249	35.1563	71.8358	35.1563	72.3582	35.1563	72.0963	35.1563	72.7948	35.1563	72.459	35.1563	73.3243	35.1563	72.9236	35.1563	73.923	35.1563	73.4755	35.1563	74.5585	35.1563	74.0882	35.1563	75.1941	35.1563	74.7276	35.1563	75.7935	35.1563	75.3572	35.1563	76.3229	35.1563	75.9412	35.1563	76.7533	35.1563	76.4471	35.1563	77.0612	35.1563	76.8473	35.1563	77.2297	35.1563	77.1197	35.1563	77.2495
36.6211	73.8981	36.6211	73.9092	36.6211	73.8987	36.6211	73.9368	36.6211	73.9121	36.6211	73.9903	36.6211	73.9442	36.6211	74.0837	36.6211	74.0064	36.6211	74.2336	36.6211	74.1134	36.6211	74.4557	36.6211	74.2819	36.6211	74.7619	36.6211	74.5268	36.6211	75.1556	36.6211	74.8576	36.6211	75.6294	36.6211	75.2747	36.6211	76.1653	36.6211	75.7675	36.6211	76.7368	36.6211	76.3156	36.6211	77.3125	36.6211	76.8908	36.6211	77.8594	36.6211	77.4614	36.6211	78.346	36.6211	77.9947	36.6211	78.7438	36.6211	78.46	36.6211	79.0294	36.6211	78.8302	36.6211	79.1861	36.6211	79.0834	36.6211	79.2044
38.0859	76.0746	38.0859	76.0897	38.0859	76.0761	38.0859	76.1249	38.0859	76.0948	38.0859	76.1877	38.0859	76.1355	38.0859	76.2889	38.0859	76.207	38.0859	76.441	38.0859	76.3205	38.0859	76.6563	38.0859	76.4889	38.0859	76.9437	38.0859	76.7233	38.0859	77.3058	38.0859	77.0311	38.0859	77.7371	38.0859	77.4127	38.0859	78.2232	38.0859	77.8599	38.0859	78.7423	38.0859	78.3564	38.0859	79.2672	38.0859	78.8789	38.0859	79.7685	38.0859	79.3996	38.0859	80.2167	38.0859	79.8893	38.0859	80.5848	38.0859	80.3189	38.0859	80.8499	38.0859	80.6625	38.0859	80.9954	38.0859	80.8985	38.0859	81.0119
39.5508	78.0148	39.5508	78.0326	39.5508	78.0177	39.5508	78.0738	39.5508	78.0417	39.5508	78.1441	39.5508	78.0904	39.5508	78.2514	39.5508	78.1701	39.5508	78.4051	39.5508	78.2891	39.5508	78.614	39.5508	78.4567	39.5508	78.8845	39.5508	78.6811	39.5508	79.2183	39.5508	78.9676	39.5508	79.6109	39.5508	79.3163	39.5508	80.0509	39.5508	79.7211	39.5508	80.5203	39.5508	80.1689	39.5508	80.9961	39.5508	80.6407	39.5508	81.4523	39.5508	81.1127	39.5508	81.862	39.5508	81.5588	39.5508	82.1998	39.5508	81.9523	39.5508	82.4437	39.5508	82.2686	39.5508	82.5776	39.5508	82.4868	39.5508	82.5922
41.0156	79.744	41.0156	79.7675	41.0156	79.7437	41.0156	79.8161	41.0156	79.7671	41.0156	79.8936	41.0156	79.8166	41.0156	80.0054	41.0156	79.8968	41.0156	80.1576	41.0156	80.0133	41.0156	80.3562	41.0156	80.1727	41.0156	80.6057	41.0156	80.3806	41.0156	80.9072	41.0156	80.6409	41.0156	81.2575	41.0156	80.9538	41.0156	81.6478	41.0156	81.3146	41.0156	82.0641	41.0156	81.7134	41.0156	82.4872	41.0156	82.1347	41.0156	82.8946	41.0156	82.5586	41.0156	83.2621	41.0156	82.9619	41.0156	83.5659	41.0156	83.3206	41.0156	83.7852	41.0156	83.6112	41.0156	83.9042	41.0156	83.8139	41.0156	83.914
42.4805	80.8276	42.4805	80.8514	42.4805	80.8285	42.4805	80.9013	42.4805	80.8544	42.4805	80.98	42.4805	80.9069	42.4805	81.0915	42.4805	80.9891	42.4805	81.2403	42.4805	81.1052	42.4805	81.4305	42.4805	81.2596	42.4805	81.6652	42.4805	81.4565	42.4805	81.9449	42.4805	81.6985	42.4805	82.2666	42.4805	81.9856	42.4805	82.6231	42.4805	82.314	42.4805	83.0022	42.4805	82.6757	42.4805	83.3875	42.4805	83.0578	42.4805	83.759	42.4805	83.4432	42.4805	84.0948	42.4805	83.8114	42.4805	84.3728	42.4805	84.1404	42.4805	84.5735	42.4805	84.4082	42.4805	84.6819	42.4805	84.596	42.4805	84.6896
43.9453	81.4735	43.9453	81.4999	43.9453	81.473	43.9453	81.5531	43.9453	81.4985	43.9453	81.6349	43.9453	81.5512	43.9453	81.748	43.9453	81.6332	43.9453	81.8951	43.9453	81.7474	43.9453	82.0791	43.9453	81.8966	43.9453	82.3017	43.9453	82.0838	43.9453	82.5627	43.9453	82.3105	43.9453	82.8595	43.9453	82.5764	43.9453	83.1857	43.9453	82.8784	43.9453	83.5312	43.9453	83.2095	43.9453	83.8818	43.9453	83.559	43.9453	84.22	43.9453	83.9119	43.9453	84.5259	43.9453	84.25	43.9453	84.7795	43.9453	84.5533	43.9453	84.9623	43.9453	84.8015	43.9453	85.0602	43.9453	84.9766	43.9453	85.0651
45.4102	81.7543	45.4102	81.7834	45.4102	81.7517	45.4102	81.8393	45.4102	81.7756	45.4102	81.9231	45.4102	81.8269	45.4102	82.0364	45.4102	81.907	45.4102	82.1807	45.4102	82.0175	45.4102	82.3577	45.4102	82.1605	45.4102	82.5679	45.4102	82.3376	45.4102	82.811	45.4102	82.5498	45.4102	83.0842	45.4102	82.7963	45.4102	83.3823	45.4102	83.0744	45.4102	83.6966	45.4102	83.3781	45.4102	84.015	45.4102	83.6982	45.4102	84.3222	45.4102	84.0217	45.4102	84.6004	45.4102	84.3324	45.4102	84.8312	45.4102	84.612	45.4102	84.9974	45.4102	84.8418	45.4102	85.0857	45.4102	85.0048	45.4102	85.0883
46.875	81.8282	46.875	81.8584	46.875	81.825	46.875	81.9155	46.875	81.8487	46.875	82	46.875	81.8999	46.875	82.1124	46.875	81.9793	46.875	82.2535	46.875	82.0879	46.875	82.4238	46.875	82.2266	46.875	82.623	46.875	82.3961	46.875	82.8504	46.875	82.5965	46.875	83.1032	46.875	82.8269	46.875	83.377	46.875	83.0844	46.875	83.6643	46.875	83.364	46.875	83.9546	46.875	83.6575	46.875	84.2346	46.875	83.9538	46.875	84.4885	46.875	84.2385	46.875	84.6993	46.875	84.4951	46.875	84.8513	46.875	84.7063	46.875	84.9319	46.875	84.8566	46.875	84.9338
48.3398	81.8054	48.3398	81.8357	48.3398	81.802	48.3398	81.8929	48.3398	81.8258	48.3398	81.9767	48.3398	81.8769	48.3398	82.0871	48.3398	81.9555	48.3398	82.224	48.3398	82.062	48.3398	82.3869	48.3398	82.1964	48.3398	82.5754	48.3398	82.3586	48.3398	82.7879	48.3398	82.5482	48.3398	83.022	48.3398	82.7637	48.3398	83.2737	48.3398	83.0026	48.3398	83.5365	48.3398	83.2602	48.3398	83.8016	48.3398	83.5294	48.3398	84.0571	48.3398	83.8006	48.3398	84.2889	48.3398	84.061	48.3398	84.4819	48.3398	84.2958	48.3398	84.6214	48.3398	84.4892	48.3398	84.6955	48.3398	84.6269	48.3398	84.6976
51.2695	81.6876	51.2695	81.716	51.2695	81.6867	51.2695	81.7715	51.2695	81.7132	51.2695	81.8533	51.2695	81.767	51.2695	81.9601	51.2695	81.8472	51.2695	82.0906	51.2695	81.9528	51.2695	82.2431	51.2695	82.0825	51.2695	82.4158	51.2695	82.2351	51.2695	82.6066	51.2695	82.4086	51.2695	82.8127	51.2695	82.6012	51.2695	83.0306	51.2695	82.8101	51.2695	83.2551	51.2695	83.0314	51.2695	83.4796	51.2695	83.2598	51.2695	83.6949	51.2695	83.4879	51.2695	83.89	51.2695	83.7058	51.2695	84.0526	51.2695	83.9019	51.2695	84.1705	51.2695	84.0633	51.2695	84.2337	51.2695	84.1779	51.2695	84.2364
52.7344	81.6964	52.7344	81.7248	52.7344	81.6954	52.7344	81.78	52.7344	81.7217	52.7344	81.8608	52.7344	81.7748	52.7344	81.9656	52.7344	81.8537	52.7344	82.0926	52.7344	81.9569	52.7344	82.2395	52.7344	82.0827	52.7344	82.4041	52.7344	82.229	52.7344	82.5838	52.7344	82.3938	52.7344	82.7759	52.7344	82.5748	52.7344	82.9769	52.7344	82.7691	52.7344	83.1824	52.7344	82.9733	52.7344	83.3865	52.7344	83.1825	52.7344	83.5815	52.7344	83.3904	52.7344	83.7579	52.7344	83.5885	52.7344	83.9048	52.7344	83.7665	52.7344	84.0112	52.7344	83.9131	52.7344	84.0683	52.7344	84.0172	52.7344	84.0704
54.1992	81.733	54.1992	81.7617	54.1992	81.7315	54.1992	81.817	54.1992	81.7574	54.1992	81.8974	54.1992	81.8099	54.1992	82.001	54.1992	81.8878	54.1992	82.1254	54.1992	81.9891	54.1992	82.268	54.1992	82.1118	54.1992	82.4259	54.1992	82.2533	54.1992	82.5965	54.1992	82.4113	54.1992	82.7767	54.1992	82.583	54.1992	82.9633	54.1992	82.7655	54.1992	83.1524	54.1992	82.9556	54.1992	83.339	54.1992	83.1488	54.1992	83.5163	54.1992	83.3396	54.1992	83.6763	54.1992	83.5206	54.1992	83.8093	54.1992	83.6828	54.1992	83.9056	54.1992	83.8161	54.1992	83.9573	54.1992	83.9107	54.1992	83.9591
55.6641	81.7811	55.6641	81.8094	55.6641	81.7799	55.6641	81.8638	55.6641	81.8058	55.6641	81.9429	55.6641	81.858	55.6641	82.0443	55.6641	81.935	55.6641	82.1654	55.6641	82.0346	55.6641	82.303	55.6641	82.1544	55.6641	82.4543	55.6641	82.2915	55.6641	82.616	55.6641	82.443	55.6641	82.7852	55.6641	82.606	55.6641	82.9587	55.6641	82.7775	55.6641	83.133	55.6641	82.9542	55.6641	83.3037	55.6641	83.1322	55.6641	83.465	55.6641	83.3065	55.6641	83.61	55.6641	83.471	55.6641	83.7303	55.6641	83.6177	55.6641	83.8175	55.6641	83.7379	55.6641	83.8644	55.6641	83.8231	55.6641	83.8664
58.5938	81.9408	58.5938	81.9654	58.5938	81.9431	58.5938	82.0158	58.5938	81.9719	58.5938	82.0903	58.5938	82.0262	58.5938	82.1862	58.5938	82.1039	58.5938	82.3002	58.5938	82.2023	58.5938	82.4289	58.5938	82.318	58.5938	82.5684	58.5938	82.4476	58.5938	82.7151	58.5938	82.5875	58.5938	82.8656	58.5938	82.7343	58.5938	83.0167	58.5938	82.8847	58.5938	83.1654	58.5938	83.0358	58.5938	83.3081	58.5938	83.1844	58.5938	83.441	58.5938	83.327	58.5938	83.5591	58.5938	83.4591	58.5938	83.6566	58.5938	83.5755	58.5938	83.7274	58.5938	83.6699	58.5938	83.766	58.5938	83.7361	58.5938	83.769
60.0586	82.1573	60.0586	82.1818	60.0586	82.1586	60.0586	82.231	60.0586	82.1854	60.0586	82.3031	60.0586	82.2365	60.0586	82.3952	60.0586	82.31	60.0586	82.504	60.0586	82.4029	60.0586	82.6256	60.0586	82.5117	60.0586	82.7562	60.0586	82.6329	60.0586	82.8919	60.0586	82.7626	60.0586	83.0293	60.0586	82.8974	60.0586	83.1652	60.0586	83.0341	60.0586	83.2969	60.0586	83.1697	60.0586	83.4217	60.0586	83.3016	60.0586	83.5364	60.0586	83.427	60.0586	83.6372	60.0586	83.5423	60.0586	83.7198	60.0586	83.6434	60.0586	83.7791	60.0586	83.7253	60.0586	83.8109	60.0586	83.783	60.0586	83.8123
62.9883	82.4539	62.9883	82.4751	62.9883	82.4572	62.9883	82.5199	62.9883	82.4848	62.9883	82.5861	62.9883	82.5354	62.9883	82.6709	62.9883	82.6069	62.9883	82.7707	62.9883	82.6959	62.9883	82.8813	62.9883	82.7989	62.9883	82.9986	62.9883	82.9118	62.9883	83.1185	62.9883	83.0304	62.9883	83.2375	62.9883	83.1509	62.9883	83.3525	62.9883	83.2698	62.9883	83.4612	62.9883	83.3843	62.9883	83.5616	62.9883	83.4921	62.9883	83.6521	62.9883	83.5911	62.9883	83.7307	62.9883	83.6793	62.9883	83.7948	62.9883	83.7543	62.9883	83.8414	62.9883	83.8133	62.9883	83.8678	62.9883	83.8533	62.9883	83.8719
64.4531	82.4795	64.4531	82.499	64.4531	82.4846	64.4531	82.5422	64.4531	82.5142	64.4531	82.6071	64.4531	82.5667	64.4531	82.6907	64.4531	82.6397	64.4531	82.7892	64.4531	82.73	64.4531	82.8983	64.4531	82.8335	64.4531	83.0136	64.4531	82.946	64.4531	83.1308	64.4531	83.063	64.4531	83.2461	64.4531	83.1803	64.4531	83.3562	64.4531	83.2945	64.4531	83.4589	64.4531	83.4025	64.4531	83.5523	64.4531	83.5022	64.4531	83.6351	64.4531	83.5918	64.4531	83.7059	64.4531	83.6699	64.4531	83.7632	64.4531	83.7351	64.4531	83.8048	64.4531	83.7854	64.4531	83.8287	64.4531	83.8188	64.4531	83.8335
67.3828	82.6724	67.3828	82.6889	67.3828	82.68	67.3828	82.7285	67.3828	82.7112	67.3828	82.7892	67.3828	82.7645	67.3828	82.868	67.3828	82.8373	67.3828	82.9608	67.3828	82.9259	67.3828	83.0633	67.3828	83.0262	67.3828	83.1705	67.3828	83.1333	67.3828	83.2779	67.3828	83.2427	67.3828	83.3812	67.3828	83.3497	67.3828	83.4771	67.3828	83.4505	67.3828	83.5632	67.3828	83.5422	67.3828	83.6383	67.3828	83.6228	67.3828	83.7019	67.3828	83.6914	67.3828	83.7541	67.3828	83.7476	67.3828	83.7952	67.3828	83.7915	67.3828	83.8251	67.3828	83.8231	67.3828	83.8432	67.3828	83.8423	67.3828	83.849
68.8477	82.8689	68.8477	82.884	68.8477	82.8765	68.8477	82.9212	68.8477	82.9066	68.8477	82.9782	68.8477	82.9577	68.8477	83.0521	68.8477	83.0271	68.8477	83.139	68.8477	83.1115	68.8477	83.2344	68.8477	83.2065	68.8477	83.3335	68.8477	83.3073	68.8477	83.4316	68.8477	83.4092	68.8477	83.5246	68.8477	83.5077	68.8477	83.6091	68.8477	83.5989	68.8477	83.6831	68.8477	83.6797	68.8477	83.7456	68.8477	83.7484	68.8477	83.7968	68.8477	83.8042	68.8477	83.8376	68.8477	83.8476	68.8477	83.8691	68.8477	83.8792	68.8477	83.892	68.8477	83.9001	68.8477	83.9068	68.8477	83.9113	68.8477	83.9134
71.7773	83.4597	71.7773	83.4677	71.7773	83.4714	71.7773	83.4949	71.7773	83.5026	71.7773	83.5396	71.7773	83.5518	71.7773	83.5987	71.7773	83.6163	71.7773	83.6689	71.7773	83.6927	71.7773	83.7458	71.7773	83.7769	71.7773	83.8248	71.7773	83.8642	71.7773	83.9014	71.7773	83.9498	71.7773	83.9717	71.7773	84.0291	71.7773	84.0324	71.7773	84.0982	71.7773	84.0819	71.7773	84.1542	71.7773	84.1198	71.7773	84.1957	71.7773	84.1474	71.7773	84.2226	71.7773	84.167	71.7773	84.2364	71.7773	84.1814	71.7773	84.2396	71.7773	84.1933	71.7773	84.2353	71.7773	84.2044	71.7773	84.2265	71.7773	84.2157
74.707	83.7807	74.707	83.7835	74.707	83.7975	74.707	83.8051	74.707	83.8335	74.707	83.8437	74.707	83.8871	74.707	83.8965	74.707	83.9556	74.707	83.9597	74.707	84.0352	74.707	84.0288	74.707	84.1215	74.707	84.0992	74.707	84.2091	74.707	84.1662	74.707	84.2928	74.707	84.2258	74.707	84.3673	74.707	84.2749	74.707	84.4283	74.707	84.312	74.707	84.4727	74.707	84.3372	74.707	84.4989	74.707	84.3527	74.707	84.5075	74.707	84.3617	74.707	84.5008	74.707	84.3684	74.707	84.4827	74.707	84.3767	74.707	84.4581	74.707	84.3896	74.707	84.432	74.707	84.4082
77.6367	83.8662	77.6367	83.8814	77.6367	83.8705	77.6367	83.9151	77.6367	83.8943	77.6367	83.9652	77.6367	83.9363	77.6367	84.0286	77.6367	83.9942	77.6367	84.1012	77.6367	84.0645	77.6367	84.1785	77.6367	84.1428	77.6367	84.2552	77.6367	84.2239	77.6367	84.3265	77.6367	84.3025	77.6367	84.3878	77.6367	84.3732	77.6367	84.4355	77.6367	84.4315	77.6367	84.4677	77.6367	84.4743	77.6367	84.4844	77.6367	84.5	77.6367	84.4874	77.6367	84.5094	77.6367	84.4806	77.6367	84.5053	77.6367	84.4689	77.6367	84.4922	77.6367	84.4575	77.6367	84.4755	77.6367	84.4509	77.6367	84.4607	77.6367	84.4518
79.1016	84.1255	79.1016	84.1463	79.1016	84.1235	79.1016	84.1846	79.1016	84.1403	79.1016	84.2382	79.1016	84.1749	79.1016	84.3041	79.1016	84.2253	79.1016	84.3781	79.1016	84.2882	79.1016	84.4555	79.1016	84.3595	79.1016	84.5311	79.1016	84.4342	79.1016	84.5997	79.1016	84.5071	79.1016	84.6565	79.1016	84.5728	79.1016	84.6981	79.1016	84.6266	79.1016	84.7222	79.1016	84.6653	79.1016	84.729	79.1016	84.6873	79.1016	84.7207	79.1016	84.6932	79.1016	84.7016	79.1016	84.686	79.1016	84.6777	79.1016	84.6706	79.1016	84.6552	79.1016	84.653	79.1016	84.6394	79.1016	84.6392	79.1016	84.6339
82.0313	84.8141	82.0313	84.8311	82.0313	84.8105	82.0313	84.8604	82.0313	84.8202	82.0313	84.9003	82.0313	84.8425	82.0313	84.9479	82.0313	84.8755	82.0313	84.9998	82.0313	84.9167	82.0313	85.0515	82.0313	84.9624	82.0313	85.0984	82.0313	85.0082	82.0313	85.1356	82.0313	85.0495	82.0313	85.1587	82.0313	85.0815	82.0313	85.1645	82.0313	85.1002	82.0313	85.1515	82.0313	85.1026	82.0313	85.1207	82.0313	85.0879	82.0313	85.0755	82.0313	85.0578	82.0313	85.0221	82.0313	85.0164	82.0313	84.9686	82.0313	84.9705	82.0313	84.9233	82.0313	84.9281	82.0313	84.8939	82.0313	84.8975	82.0313	84.885
84.9609	84.7916	84.9609	84.8053	84.9609	84.7899	84.9609	84.8301	84.9609	84.8002	84.9609	84.8643	84.9609	84.8214	84.9609	84.9049	84.9609	84.8516	84.9609	84.9483	84.9609	84.8877	84.9609	84.9898	84.9609	84.926	84.9609	85.0245	84.9609	84.962	84.9609	85.0473	84.9609	84.9909	84.9609	85.054	84.9609	85.0079	84.9609	85.0414	84.9609	85.0091	84.9609	85.0084	84.9609	84.9919	84.9609	84.9566	84.9609	84.956	84.9609	84.8907	84.9609	84.9037	84.9609	84.8181	84.9609	84.8402	84.9609	84.7485	84.9609	84.7736	84.9609	84.6919	84.9609	84.7135	84.9609	84.6571	84.9609	84.6695	84.9609	84.6494
87.8906	84.9963	87.8906	84.9995	87.8906	85.0094	87.8906	85.0184	87.8906	85.0379	87.8906	85.0514	87.8906	85.0801	87.8906	85.0956	87.8906	85.1331	87.8906	85.1471	87.8906	85.1931	87.8906	85.2009	87.8906	85.2555	87.8906	85.2515	87.8906	85.315	87.8906	85.2934	87.8906	85.3663	87.8906	85.3215	87.8906	85.4043	87.8906	85.3324	87.8906	85.4249	87.8906	85.3246	87.8906	85.4253	87.8906	85.2991	87.8906	85.4052	87.8906	85.2601	87.8906	85.3665	87.8906	85.2141	87.8906	85.3142	87.8906	85.1696	87.8906	85.2553	87.8906	85.1356	87.8906	85.1985	87.8906	85.1193	87.8906	85.1527	87.8906	85.1249
90.8203	84.8762	90.8203	84.8627	90.8203	84.9141	90.8203	84.8734	90.8203	84.9756	90.8203	84.9074	90.8203	85.059	90.8203	84.9626	90.8203	85.1613	90.8203	85.0358	90.8203	85.2786	90.8203	85.1227	90.8203	85.4054	90.8203	85.2177	90.8203	85.5352	90.8203	85.3149	90.8203	85.661	90.8203	85.4081	90.8203	85.7755	90.8203	85.4922	90.8203	85.8718	90.8203	85.5632	90.8203	85.9445	90.8203	85.6196	90.8203	85.9901	90.8203	85.6626	90.8203	86.0079	90.8203	85.6954	90.8203	85.9997	90.8203	85.7235	90.8203	85.9704	90.8203	85.7525	90.8203	85.9271	90.8203	85.7871	90.8203	85.8777	90.8203	85.8294
95.2148	85.9329	95.2148	85.9487	95.2148	85.9212	95.2148	85.9675	95.2148	85.9139	95.2148	85.9879	95.2148	85.911	95.2148	86.0078	95.2148	85.9115	95.2148	86.0242	95.2148	85.914	95.2148	86.0335	95.2148	85.9157	95.2148	86.0313	95.2148	85.9132	95.2148	86.0131	95.2148	85.9019	95.2148	85.9748	95.2148	85.8773	95.2148	85.9134	95.2148	85.8351	95.2148	85.8282	95.2148	85.7725	95.2148	85.7213	95.2148	85.6893	95.2148	85.5991	95.2148	85.5885	95.2148	85.4714	95.2148	85.4772	95.2148	85.3515	95.2148	85.3666	95.2148	85.2541	95.2148	85.2702	95.2148	85.1923	95.2148	85.2024	95.2148	85.1745
98.1445	85.8234	98.1445	85.8348	98.1445	85.82	98.1445	85.8535	98.1445	85.8246	98.1445	85.8784	98.1445	85.837	98.1445	85.9076	98.1445	85.8561	98.1445	85.9384	98.1445	85.88	98.1445	85.9669	98.1445	85.9058	98.1445	85.9886	98.1445	85.9294	98.1445	85.9982	98.1445	85.9459	98.1445	85.9907	98.1445	85.9501	98.1445	85.9624	98.1445	85.9372	98.1445	85.9113	98.1445	85.9038	98.1445	85.8387	98.1445	85.8488	98.1445	85.7496	98.1445	85.7747	98.1445	85.6527	98.1445	85.6874	98.1445	85.5599	98.1445	85.5969	98.1445	85.4845	98.1445	85.5153	98.1445	85.438	98.1445	85.4556	98.1445	85.428
101.074	86.2094	101.074	86.2112	101.074	86.213	101.074	86.218	101.074	86.2218	101.074	86.2293	101.074	86.2355	101.074	86.2437	101.074	86.2533	101.074	86.2592	101.074	86.2737	101.074	86.2726	101.074	86.294	101.074	86.2798	101.074	86.3106	101.074	86.276	101.074	86.3189	101.074	86.2565	101.074	86.3138	101.074	86.2176	101.074	86.2907	101.074	86.1576	101.074	86.2461	101.074	86.0778	101.074	86.179	101.074	85.9835	101.074	86.0918	101.074	85.8837	101.074	85.9906	101.074	85.7907	101.074	85.8856	101.074	85.7181	101.074	85.7896	101.074	85.6778	101.074	85.7164	101.074	85.677
105.469	86.2279	105.469	86.2341	105.469	86.2249	105.469	86.2429	105.469	86.2255	105.469	86.2533	105.469	86.2304	105.469	86.2642	105.469	86.2394	105.469	86.2736	105.469	86.2519	105.469	86.2786	105.469	86.266	105.469	86.2757	105.469	86.2786	105.469	86.2609	105.469	86.2856	105.469	86.2301	105.469	86.2817	105.469	86.1806	105.469	86.2621	105.469	86.1119	105.469	86.2226	105.469	86.0262	105.469	86.1616	105.469	85.9295	105.469	86.0801	105.469	85.8315	105.469	85.9835	105.469	85.7441	105.469	85.8806	105.469	85.6801	105.469	85.7837	105.469	85.6499	105.469	85.7058	105.469	85.6588
108.398	86.3671	108.398	86.3833	108.398	86.3522	108.398	86.4004	108.398	86.3394	108.398	86.4174	108.398	86.3291	108.398	86.4333	108.398	86.3217	108.398	86.4462	108.398	86.317	108.398	86.4532	108.398	86.3136	108.398	86.4508	108.398	86.3093	108.398	86.4346	108.398	86.3004	108.398	86.4004	108.398	86.2828	108.398	86.3453	108.398	86.2521	108.398	86.2681	108.398	86.2048	108.398	86.1711	108.398	86.1395	108.398	86.0601	108.398	86.0579	108.398	85.9451	108.398	85.9651	108.398	85.8386	108.398	85.8701	108.398	85.7542	108.398	85.7847	108.398	85.7034	108.398	85.7219	108.398	85.6926
112.793	86.9706	112.793	86.9806	112.793	86.9587	112.793	86.989	112.793	86.9446	112.793	86.9959	112.793	86.9285	112.793	87.0012	112.793	86.9106	112.793	87.0035	112.793	86.8907	112.793	87.0003	112.793	86.868	112.793	86.988	112.793	86.8409	112.793	86.9619	112.793	86.8066	112.793	86.9171	112.793	86.7618	112.793	86.8497	112.793	86.7031	112.793	86.7582	112.793	86.6283	112.793	86.6443	112.793	86.5372	112.793	86.5137	112.793	86.4326	112.793	86.3768	112.793	86.3213	112.793	86.2472	112.793	86.2136	112.793	86.1401	112.793	86.1226	112.793	86.0688	112.793	86.0619	112.793	86.0421
117.188	87.0185	117.188	86.9974	117.188	87.0365	117.188	86.9742	117.188	87.0504	117.188	86.9504	117.188	87.0601	117.188	86.9272	117.188	87.0652	117.188	86.9047	117.188	87.0656	117.188	86.8821	117.188	87.0603	117.188	86.8569	117.188	87.0477	117.188	86.8257	117.188	87.0251	117.188	86.7839	117.188	86.9893	117.188	86.7279	117.188	86.9367	117.188	86.6555	117.188	86.8649	117.188	86.5675	117.188	86.7733	117.188	86.4687	117.188	86.6643	117.188	86.3675	117.188	86.5442	117.188	86.2761	117.188	86.423	117.188	86.2073	117.188	86.3133	117.188	86.1728	117.188	86.2285	117.188	86.1797
120.117	87.122	120.117	87.0912	120.117	87.1503	120.117	87.0587	120.117	87.1762	120.117	87.0251	120.117	87.1995	120.117	86.9912	120.117	87.2205	120.117	86.9574	120.117	87.2385	120.117	86.9232	120.117	87.2524	120.117	86.8871	120.117	87.2597	120.117	86.8465	120.117	87.2569	120.117	86.7987	120.117	87.2397	120.117	86.7412	120.117	87.2037	120.117	86.6734	120.117	87.1454	120.117	86.597	120.117	87.0632	120.117	86.5172	120.117	86.9588	120.117	86.4423	120.117	86.8373	120.117	86.3831	120.117	86.7077	120.117	86.3505	120.117	86.5822	120.117	86.3531	120.117	86.474	120.117	86.395
124.512	87.1261	124.512	87.1193	124.512	87.1311	124.512	87.1102	124.512	87.1354	124.512	87.0989	124.512	87.1402	124.512	87.0853	124.512	87.1466	124.512	87.069	124.512	87.1551	124.512	87.0489	124.512	87.1647	124.512	87.0229	124.512	87.1728	124.512	86.9878	124.512	87.1751	124.512	86.9409	124.512	87.1665	124.512	86.8797	124.512	87.1415	124.512	86.8042	124.512	87.0959	124.512	86.7173	124.512	87.0276	124.512	86.6255	124.512	86.9379	124.512	86.5384	124.512	86.8316	124.512	86.4675	124.512	86.7175	124.512	86.424	124.512	86.6071	124.512	86.416	124.512	86.513	124.512	86.4466
128.906	87.0024	128.906	87.016	128.906	86.978	128.906	87.0185	128.906	86.944	128.906	87.0105	128.906	86.9028	128.906	86.993	128.906	86.857	128.906	86.9667	128.906	86.8093	128.906	86.9315	128.906	86.7614	128.906	86.8861	128.906	86.7132	128.906	86.828	128.906	86.6627	128.906	86.7543	128.906	86.6062	128.906	86.6623	128.906	86.5396	128.906	86.5513	128.906	86.4591	128.906	86.4235	128.906	86.3635	128.906	86.285	128.906	86.255	128.906	86.146	128.906	86.1398	128.906	86.0195	128.906	86.028	128.906	85.919	128.906	85.9324	128.906	85.8564	128.906	85.8656	128.906	85.8384
133.301	87.3841	133.301	87.3897	133.301	87.3669	133.301	87.3845	133.301	87.3382	133.301	87.3697	133.301	87.2994	133.301	87.3467	133.301	87.2523	133.301	87.3164	133.301	87.1993	133.301	87.2785	133.301	87.1424	133.301	87.2313	133.301	87.0825	133.301	87.1722	133.301	87.019	133.301	87.0981	133.301	86.95	133.301	87.0064	133.301	86.8724	133.301	86.8965	133.301	86.784	133.301	86.7705	133.301	86.6838	133.301	86.6345	133.301	86.5741	133.301	86.4978	133.301	86.4608	133.301	86.3726	133.301	86.3536	133.301	86.2718	133.301	86.2641	133.301	86.2065	133.301	86.2043	133.301	86.1836
139.16	87.289	139.16	87.2757	139.16	87.2899	139.16	87.2517	139.16	87.2778	139.16	87.2196	139.16	87.2534	139.16	87.182	139.16	87.2182	139.16	87.1409	139.16	87.1744	139.16	87.0971	139.16	87.1235	139.16	87.0494	139.16	87.0666	139.16	86.9949	139.16	87.0034	139.16	86.93	139.16	86.9324	139.16	86.8513	139.16	86.8516	139.16	86.7571	139.16	86.7596	139.16	86.6487	139.16	86.6564	139.16	86.5312	139.16	86.545	139.16	86.4131	139.16	86.4315	139.16	86.3054	139.16	86.3251	139.16	86.2199	139.16	86.2363	139.16	86.1663	139.16	86.1757	139.16	86.1511
143.555	87.3544	143.555	87.3258	143.555	87.3674	143.555	87.2837	143.555	87.3643	143.555	87.2313	143.555	87.3459	143.555	87.1724	143.555	87.314	143.555	87.1102	143.555	87.2708	143.555	87.0472	143.555	87.2183	143.555	86.9839	143.555	87.1575	143.555	86.9186	143.555	87.0881	143.555	86.8487	143.555	87.0089	143.555	86.7707	143.555	86.9179	143.555	86.6826	143.555	86.8143	143.555	86.5847	143.555	86.699	143.555	86.4806	143.555	86.576	143.555	86.377	143.555	86.4525	143.555	86.2831	143.555	86.3386	143.555	86.2089	143.555	86.245	143.555	86.1635	143.555	86.1811	143.555	86.1533
147.949	87.2389	147.949	87.1984	147.949	87.2608	147.949	87.1411	147.949	87.2645	147.949	87.07	147.949	87.2516	147.949	86.9891	147.949	87.2251	147.949	86.9027	147.949	87.1879	147.949	86.8145	147.949	87.1428	147.949	86.7267	147.949	87.0911	147.949	86.6399	147.949	87.0324	147.949	86.5533	147.949	86.9647	147.949	86.4657	147.949	86.8851	147.949	86.3766	147.949	86.7912	147.949	86.2873	147.949	86.6824	147.949	86.2013	147.949	86.561	147.949	86.1245	147.949	86.4332	147.949	86.0642	147.949	86.308	147.949	86.0275	147.949	86.1957	147.949	86.0204	147.949	86.1062	147.949	86.0466
153.809	87.4212	153.809	87.3986	153.809	87.4173	153.809	87.3505	153.809	87.3877	153.809	87.2798	153.809	87.3349	153.809	87.1902	153.809	87.2631	153.809	87.086	153.809	87.1776	153.809	86.971	153.809	87.0834	153.809	86.8482	153.809	86.9848	153.809	86.7196	153.809	86.8842	153.809	86.5862	153.809	86.7822	153.809	86.4494	153.809	86.6772	153.809	86.3117	153.809	86.5671	153.809	86.1777	153.809	86.4506	153.809	86.0542	153.809	86.3282	153.809	85.949	153.809	86.2039	153.809	85.87	153.809	86.0842	153.809	85.8229	153.809	85.9775	153.809	85.8112	153.809	85.892	153.809	85.835
159.668	87.6224	159.668	87.5969	159.668	87.6214	159.668	87.5467	159.668	87.5939	159.668	87.4746	159.668	87.5415	159.668	87.3846	159.668	87.4668	159.668	87.2805	159.668	87.3737	159.668	87.1656	159.668	87.2658	159.668	87.042	159.668	87.1467	159.668	86.9104	159.668	87.019	159.668	86.7708	159.668	86.8842	159.668	86.6235	159.668	86.7433	159.668	86.4703	159.668	86.5974	159.668	86.3158	159.668	86.4485	159.668	86.1673	159.668	86.3005	159.668	86.034	159.668	86.1592	159.668	85.9254	159.668	86.0322	159.668	85.8495	159.668	85.9276	159.668	85.8113	159.668	85.8525	159.668	85.8126
165.527	87.6534	165.527	87.6194	165.527	87.6599	165.527	87.5598	165.527	87.6391	165.527	87.4779	165.527	87.5925	165.527	87.3779	165.527	87.5232	165.527	87.2644	165.527	87.4351	165.527	87.1416	165.527	87.3322	165.527	87.0124	165.527	87.218	165.527	86.8787	165.527	87.0953	165.527	86.7416	165.527	86.9655	165.527	86.602	165.527	86.8299	165.527	86.4622	165.527	86.6898	165.527	86.3263	165.527	86.5474	165.527	86.2007	165.527	86.407	165.527	86.0926	165.527	86.274	165.527	86.0089	165.527	86.1553	165.527	85.9545	165.527	86.0573	165.527	85.9324	165.527	85.9853	165.527	85.9429
171.387	87.4735	171.387	87.426	171.387	87.4917	171.387	87.3516	171.387	87.4801	171.387	87.2547	171.387	87.4403	171.387	87.1409	171.387	87.3755	171.387	87.0165	171.387	87.2894	171.387	86.887	171.387	87.1862	171.387	86.7568	171.387	87.0698	171.387	86.6282	171.387	86.9429	171.387	86.5021	171.387	86.8081	171.387	86.3791	171.387	86.6672	171.387	86.26	171.387	86.523	171.387	86.1474	171.387	86.3794	171.387	86.0454	171.387	86.2417	171.387	85.959	171.387	86.1163	171.387	85.8925	171.387	86.0094	171.387	85.8491	171.387	85.9258	171.387	85.83	171.387	85.8678	171.387	85.8361
177.246	87.2985	177.246	87.2509	177.246	87.3133	177.246	87.1712	177.246	87.2965	177.246	87.0628	177.246	87.2514	177.246	86.9306	177.246	87.1827	177.246	86.7809	177.246	87.0959	177.246	86.6207	177.246	86.9958	177.246	86.4567	177.246	86.8867	177.246	86.2951	177.246	86.771	177.246	86.141	177.246	86.6503	177.246	85.9991	177.246	86.5251	177.246	85.874	177.246	86.3966	177.246	85.7703	177.246	86.2672	177.246	85.6921	177.246	86.1406	177.246	85.6419	177.246	86.0217	177.246	85.6196	177.246	85.915	177.246	85.6227	177.246	85.8237	177.246	85.6473	177.246	85.7487	177.246	85.6898
183.105	87.1656	183.105	87.1361	183.105	87.1578	183.105	87.0699	183.105	87.1149	183.105	86.9697	183.105	87.0409	183.105	86.8403	183.105	86.9423	183.105	86.6875	183.105	86.8262	183.105	86.518	183.105	86.6995	183.105	86.3386	183.105	86.568	183.105	86.1562	183.105	86.4356	183.105	85.9779	183.105	86.3043	183.105	85.8111	183.105	86.1752	183.105	85.6639	183.105	86.0493	183.105	85.544	183.105	85.9289	183.105	85.4571	183.105	85.8174	183.105	85.4055	183.105	85.7182	183.105	85.3868	183.105	85.6338	183.105	85.3945	183.105	85.5639	183.105	85.4207	183.105	85.5066	183.105	85.4591
188.965	87.2043	188.965	87.1824	188.965	87.1816	188.965	87.1182	188.965	87.1146	188.965	87.0154	188.965	87.006	188.965	86.879	188.965	86.861	188.965	86.7144	188.965	86.6872	188.965	86.5268	188.965	86.4939	188.965	86.3216	188.965	86.2911	188.965	86.1043	188.965	86.0887	188.965	85.8819	188.965	85.8951	188.965	85.6638	188.965	85.7172	188.965	85.4621	188.965	85.5602	188.965	85.2907	188.965	85.4278	188.965	85.1613	188.965	85.3219	188.965	85.08	188.965	85.2422	188.965	85.0438	188.965	85.1856	188.965	85.0419	188.965	85.1456	188.965	85.0602	188.965	85.1146	188.965	85.0864
196.289	87.2571	196.289	87.2078	196.289	87.2646	196.289	87.1207	196.289	87.2288	196.289	87.0016	196.289	87.1506	196.289	86.8582	196.289	87.033	196.289	86.6982	196.289	86.8809	196.289	86.5288	196.289	86.7001	196.289	86.3556	196.289	86.4975	196.289	86.1824	196.289	86.2808	196.289	86.012	196.289	86.0584	196.289	85.8472	196.289	85.8402	196.289	85.692	196.289	85.6373	196.289	85.5521	196.289	85.461	196.289	85.4335	196.289	85.3213	196.289	85.3402	196.289	85.2238	196.289	85.2722	196.289	85.1678	196.289	85.2248	196.289	85.1466	196.289	85.1913	196.289	85.1495	196.289	85.1663
203.613	87.1498	203.613	87.0682	203.613	87.1773	203.613	86.935	203.613	87.1505	203.613	86.7558	203.613	87.0722	203.613	86.539	203.613	86.9469	203.613	86.2949	203.613	86.7807	203.613	86.0356	203.613	86.5802	203.613	85.7735	203.613	86.3531	203.613	85.5211	203.613	86.1075	203.613	85.2902	203.613	85.8532	203.613	85.0921	203.613	85.6022	203.613	84.9364	203.613	85.3686	203.613	84.8298	203.613	85.1679	203.613	84.7735	203.613	85.0129	203.613	84.7607	203.613	84.9101	203.613	84.7774	203.613	84.8566	203.613	84.8057	203.613	84.8393	203.613	84.8298	203.613	84.84	203.613	84.8407
210.938	87.1803	210.938	87.116	210.938	87.1907	210.938	86.9977	210.938	87.149	210.938	86.8277	210.938	87.0593	210.938	86.6099	210.938	86.9273	210.938	86.3496	210.938	86.7595	210.938	86.0539	210.938	86.5627	210.938	85.7319	210.938	86.3429	210.938	85.3958	210.938	86.1057	210.938	85.0619	210.938	85.8568	210.938	84.7515	210.938	85.6039	210.938	84.4895	210.938	85.3574	210.938	84.2991	210.938	85.1307	210.938	84.1946	210.938	84.9372	210.938	84.1739	210.938	84.7859	210.938	84.2181	210.938	84.6766	210.938	84.2986	210.938	84.5987	210.938	84.3876	210.938	84.5348	210.938	84.4675
218.262	86.947	218.262	86.9088	218.262	86.9326	218.262	86.8188	218.262	86.8671	218.262	86.6796	218.262	86.7547	218.262	86.4955	218.262	86.6013	218.262	86.2719	218.262	86.4149	218.262	86.0152	218.262	86.204	218.262	85.7327	218.262	85.9771	218.262	85.4334	218.262	85.7423	218.262	85.1298	218.262	85.5071	218.262	84.8385	218.262	85.2793	218.262	84.5805	218.262	85.0675	218.262	84.3778	218.262	84.8812	218.262	84.247	218.262	84.7288	218.262	84.1921	218.262	84.6142	218.262	84.2013	218.262	84.5342	218.262	84.2513	218.262	84.4779	218.262	84.3165	218.262	84.4305	218.262	84.3785
225.586	86.943	225.586	86.9325	225.586	86.8912	225.586	86.8606	225.586	86.7783	225.586	86.73	225.586	86.6082	225.586	86.5445	225.586	86.3876	225.586	86.3088	225.586	86.1264	225.586	86.0284	225.586	85.8371	225.586	85.7105	225.586	85.5349	225.586	85.366	225.586	85.2369	225.586	85.0111	225.586	84.9611	225.586	84.6703	225.586	84.7251	225.586	84.3748	225.586	84.543	225.586	84.1574	225.586	84.423	225.586	84.0402	225.586	84.364	225.586	84.0244	225.586	84.3546	225.586	84.0866	225.586	84.3739	225.586	84.1886	225.586	84.3968	225.586	84.2909	225.586	84.3993	225.586	84.3653
232.91	87.151	232.91	87.1231	232.91	87.1185	232.91	87.0396	232.91	87.0217	232.91	86.9062	232.91	86.8583	232.91	86.7279	232.91	86.6277	232.91	86.5089	232.91	86.3313	232.91	86.2521	232.91	85.9731	232.91	85.9594	232.91	85.5614	232.91	85.6346	232.91	85.1116	232.91	85.2861	232.91	84.6497	232.91	84.9309	232.91	84.2141	232.91	84.5962	232.91	83.8528	232.91	84.3154	232.91	83.6105	232.91	84.1181	232.91	83.5098	232.91	84.0159	232.91	83.5385	232.91	83.9931	232.91	83.6536	232.91	84.0123	232.91	83.7994	232.91	84.0284	232.91	83.9269	232.91	84.0055
241.699	86.8472	241.699	86.7546	241.699	86.8798	241.699	86.6056	241.699	86.8513	241.699	86.4062	241.699	86.7625	241.699	86.1645	241.699	86.6151	241.699	85.8897	241.699	86.4109	241.699	85.5909	241.699	86.1506	241.699	85.277	241.699	85.8347	241.699	84.9567	241.699	85.4649	241.699	84.6414	241.699	85.0483	241.699	84.347	241.699	84.6031	241.699	84.0952	241.699	84.1639	241.699	83.9087	241.699	83.7812	241.699	83.8015	241.699	83.5092	241.699	83.7686	241.699	83.3821	241.699	83.7836	241.699	83.3934	241.699	83.807	241.699	83.4972	241.699	83.8008	241.699	83.6311	241.699	83.7419
250.488	86.8474	250.488	86.7847	250.488	86.8421	250.488	86.6549	250.488	86.769	250.488	86.4602	250.488	86.6301	250.488	86.2037	250.488	86.429	250.488	85.8897	250.488	86.1709	250.488	85.5237	250.488	85.8623	250.488	85.114	250.488	85.5111	250.488	84.6734	250.488	85.1269	250.488	84.2221	250.488	84.7222	250.488	83.7899	250.488	84.3144	250.488	83.4154	250.488	83.9281	250.488	83.1379	250.488	83.5941	250.488	82.9833	250.488	83.3435	250.488	82.949	250.488	83.1949	250.488	83.0016	250.488	83.1428	250.488	83.0899	250.488	83.1559	250.488	83.1656	250.488	83.1887	250.488	83.1996
259.277	87.0027	259.277	86.9372	259.277	87.0134	259.277	86.8194	259.277	86.9674	259.277	86.6524	259.277	86.8634	259.277	86.4392	259.277	86.7001	259.277	86.1816	259.277	86.4756	259.277	85.8799	259.277	86.1879	259.277	85.5333	259.277	85.8353	259.277	85.1434	259.277	85.42	259.277	84.7191	259.277	84.9528	259.277	84.284	259.277	84.4589	259.277	83.8793	259.277	83.9821	259.277	83.5568	259.277	83.5806	259.277	83.3586	259.277	83.3089	259.277	83.2921	259.277	83.1911	259.277	83.3235	259.277	83.2053	259.277	83.3948	259.277	83.2941	259.277	83.4496	259.277	83.3925	259.277	83.4515
268.066	86.4945	268.066	86.3749	268.066	86.549	268.066	86.1956	268.066	86.5358	268.066	85.9642	268.066	86.4536	268.066	85.691	268.066	86.3023	268.066	85.3874	268.066	86.0816	268.066	85.0645	268.066	85.7904	268.066	84.7309	268.066	85.4282	268.066	84.3926	268.066	84.9969	268.066	84.0557	268.066	84.5054	268.066	83.7324	268.066	83.9766	268.066	83.4467	268.066	83.4539	268.066	83.2321	268.066	83.0022	268.066	83.1165	268.066	82.6929	268.066	83.1007	268.066	82.5716	268.066	83.1493	268.066	82.6273	268.066	83.2047	268.066	82.7946	268.066	83.2124	268.066	82.9888	268.066	83.1403
276.855	86.4352	276.855	86.3541	276.855	86.4559	276.855	86.1994	276.855	86.4303	276.855	85.9611	276.855	86.37	276.855	85.6339	276.855	86.2805	276.855	85.2186	276.855	86.1589	276.855	84.7232	276.855	85.9946	276.855	84.166	276.855	85.7723	276.855	83.5795	276.855	85.4782	276.855	83.0118	276.855	85.1069	276.855	82.5243	276.855	84.6687	276.855	82.1779	276.855	84.1944	276.855	82.0121	276.855	83.7349	276.855	82.0263	276.855	83.3496	276.855	82.1778	276.855	83.0844	276.855	82.3976	276.855	82.9479	276.855	82.6157	276.855	82.9065	276.855	82.7812	276.855	82.9012	276.855	82.8727
287.109	86.4771	287.109	86.4652	287.109	86.4104	287.109	86.3742	287.109	86.2722	287.109	86.2061	287.109	86.0772	287.109	85.9624	287.109	85.8459	287.109	85.6408	287.109	85.5984	287.109	85.2362	287.109	85.3463	287.109	84.7438	287.109	85.0867	287.109	84.167	287.109	84.8027	287.109	83.529	287.109	84.4745	287.109	82.8864	287.109	84.0945	287.109	82.3341	287.109	83.6823	287.109	81.9828	287.109	83.2899	287.109	81.8986	287.109	82.9867	287.109	82.0514	287.109	82.8237	287.109	82.3326	287.109	82.7995	287.109	82.6215	287.109	82.86	287.109	82.8337	287.109	82.9278	287.109	82.9333
297.363	86.506	297.363	86.4268	297.363	86.5001	297.363	86.2779	297.363	86.396	297.363	86.074	297.363	86.1868	297.363	85.826	297.363	85.8752	297.363	85.5379	297.363	85.4763	297.363	85.2042	297.363	85.0168	297.363	84.8105	297.363	84.5285	297.363	84.3406	297.363	84.0367	297.363	83.7886	297.363	83.5528	297.363	83.177	297.363	83.0791	297.363	82.5729	297.363	82.6299	297.363	82.0872	297.363	82.252	297.363	81.831	297.363	82.0189	297.363	81.8389	297.363	81.9818	297.363	82.0365	297.363	82.1165	297.363	82.2931	297.363	82.3276	297.363	82.4935	297.363	82.5046	297.363	82.57
307.617	86.5285	307.617	86.4559	307.617	86.5474	307.617	86.3231	307.617	86.5163	307.617	86.1231	307.617	86.4341	307.617	85.8508	307.617	86.2942	307.617	85.5036	307.617	86.0864	307.617	85.0823	307.617	85.8008	307.617	84.5917	307.617	85.432	307.617	84.0432	307.617	84.9821	307.617	83.4602	307.617	84.4629	307.617	82.8852	307.617	83.8965	307.617	82.3855	307.617	83.318	307.617	82.0412	307.617	82.7815	307.617	81.9088	307.617	82.361	307.617	81.9779	307.617	82.1286	307.617	82.169	307.617	82.1065	307.617	82.3748	307.617	82.2361	307.617	82.5062	307.617	82.4067	307.617	82.5157
319.336	86.2878	319.336	86.2661	319.336	86.2398	319.336	86.173	319.336	86.1279	319.336	86.0094	319.336	85.9608	319.336	85.7755	319.336	85.7475	319.336	85.4664	319.336	85.4934	319.336	85.0695	319.336	85.1977	319.336	84.5667	319.336	84.8548	319.336	83.9428	319.336	84.4584	319.336	83.2031	319.336	84.0097	319.336	82.3997	319.336	83.5256	319.336	81.6586	319.336	83.0468	319.336	81.1673	319.336	82.6366	319.336	81.0682	319.336	82.3654	319.336	81.3302	319.336	82.2755	319.336	81.7738	319.336	82.3479	319.336	82.2104	319.336	82.5032	319.336	82.5217	319.336	82.6373	319.336	82.6612
329.59	86.2777	329.59	86.2485	329.59	86.2358	329.59	86.1494	329.59	86.1272	329.59	85.9855	329.59	85.9609	329.59	85.7623	329.59	85.7475	329.59	85.4805	329.59	85.4936	329.59	85.1305	329.59	85.1965	329.59	84.6905	329.59	84.8418	329.59	84.1307	329.59	84.4079	329.59	83.4268	329.59	83.8773	329.59	82.5868	329.59	83.2542	329.59	81.6923	329.59	82.5852	329.59	80.9353	329.59	81.9718	329.59	80.5625	329.59	81.5499	329.59	80.671	329.59	81.4121	329.59	81.0935	329.59	81.5304	329.59	81.5669	329.59	81.7712	329.59	81.9094	329.59	81.981	329.59	82.0468
341.309	85.6744	341.309	85.6906	341.309	85.5729	341.309	85.6244	341.309	85.3932	341.309	85.4852	341.309	85.1528	341.309	85.2848	341.309	84.8785	341.309	85.0313	341.309	84.5995	341.309	84.7227	341.309	84.3366	341.309	84.344	341.309	84.0919	341.309	83.8712	341.309	83.8467	341.309	83.283	341.309	83.5732	341.309	82.5835	341.309	83.2531	341.309	81.8338	341.309	82.8976	341.309	81.1802	341.309	82.5574	341.309	80.8236	341.309	82.3089	341.309	80.8791	341.309	82.2107	341.309	81.2549	341.309	82.2556	341.309	81.7351	341.309	82.3656	341.309	82.1382	341.309	82.435	341.309	82.3749
353.027	85.9298	353.027	85.8833	353.027	85.8813	353.027	85.7565	353.027	85.7277	353.027	85.5659	353.027	85.4657	353.027	85.3251	353.027	85.0992	353.027	85.0397	353.027	84.6387	353.027	84.7025	353.027	84.0984	353.027	84.2918	353.027	83.4904	353.027	83.7748	353.027	82.8208	353.027	83.1193	353.027	82.0936	353.027	82.3158	353.027	81.3334	353.027	81.4189	353.027	80.6224	353.027	80.5974	353.027	80.1211	353.027	80.1218	353.027	79.9993	353.027	80.1691	353.027	80.2803	353.027	80.618	353.027	80.7939	353.027	81.1722	353.027	81.3119	353.027	81.5951	353.027	81.6669	353.027	81.7704
366.211	86.1568	366.211	86.0281	366.211	86.1847	366.211	85.8081	366.211	86.1112	366.211	85.5158	366.211	85.9443	366.211	85.1751	366.211	85.6976	366.211	84.8059	366.211	85.3861	366.211	84.4107	366.211	85.0185	366.211	83.9649	366.211	84.5879	366.211	83.4192	366.211	84.064	366.211	82.7172	366.211	83.3936	366.211	81.8264	366.211	82.5138	366.211	80.7863	366.211	81.3863	366.211	79.7776	366.211	80.0732	366.211	79.1348	366.211	78.8712	366.211	79.1107	366.211	78.3189	366.211	79.5632	366.211	78.6496	366.211	80.1128	366.211	79.4223	366.211	80.4665	366.211	80.1146	366.211	80.4813
379.395	86.0171	379.395	85.9746	379.395	85.9815	379.395	85.8641	379.395	85.8672	379.395	85.7026	379.395	85.6838	379.395	85.5101	379.395	85.4513	379.395	85.3018	379.395	85.1971	379.395	85.0772	379.395	84.9458	379.395	84.8117	379.395	84.7072	379.395	84.4564	379.395	84.465	379.395	83.9484	379.395	84.1774	379.395	83.2286	379.395	83.7868	379.395	82.2679	379.395	83.2381	379.395	81.1123	379.395	82.5035	379.395	79.953	379.395	81.6169	379.395	79.1391	379.395	80.7125	379.395	78.9253	379.395	80.0123	379.395	79.1557	379.395	79.6759	379.395	79.4609	379.395	79.6246	379.395	79.6156
392.578	86.0899	392.578	85.9718	392.578	86.0385	392.578	85.7064	392.578	85.813	392.578	85.3377	392.578	85.4252	392.578	84.9335	392.578	84.9068	392.578	84.5761	392.578	84.3162	392.578	84.3303	392.578	83.7406	392.578	84.2008	392.578	83.2792	392.578	84.1172	392.578	82.9972	392.578	83.9659	392.578	82.8796	392.578	83.639	392.578	82.8342	392.578	83.069	392.578	82.7423	392.578	82.2513	392.578	82.511	392.578	81.27	392.578	82.1046	392.578	80.3221	392.578	81.559	392.578	79.6673	392.578	80.9763	392.578	79.4444	392.578	80.4725	392.578	79.5511	392.578	80.0933	392.578	79.7967
405.762	87.0148	405.762	86.8429	405.762	87.0058	405.762	86.4899	405.762	86.8135	405.762	85.9555	405.762	86.4329	405.762	85.2466	405.762	85.8593	405.762	84.3929	405.762	85.0944	405.762	83.4742	405.762	84.1588	405.762	82.6463	405.762	83.1162	405.762	82.1073	405.762	82.1058	405.762	81.9577	405.762	81.345	405.762	82.0929	405.762	81.0278	405.762	82.3039	405.762	81.1549	405.762	82.4396	405.762	81.5326	405.762	82.4601	405.762	81.9445	405.762	82.4066	405.762	82.2601	405.762	82.3465	405.762	82.438	405.762	82.3259	405.762	82.4938	405.762	82.3531	405.762	82.4696	405.762	82.4105
420.41	87.3731	420.41	87.2681	420.41	87.3786	420.41	87.0604	420.41	87.2845	420.41	86.7433	420.41	87.087	420.41	86.3061	420.41	86.7782	420.41	85.7345	420.41	86.3435	420.41	85.012	420.41	85.76	420.41	84.1284	420.41	84.9947	420.41	83.1	420.41	84.0095	420.41	82.0107	420.41	82.7823	420.41	81.0571	420.41	81.3648	420.41	80.5098	420.41	80.0033	420.41	80.5034	420.41	79.2093	420.41	80.8941	420.41	79.3524	420.41	81.4255	420.41	80.1383	420.41	81.9172	420.41	81.0381	420.41	82.2817	420.41	81.7664	420.41	82.4766	420.41	82.2441	420.41	82.473
435.059	86.6646	435.059	86.5528	435.059	86.6731	435.059	86.3415	435.059	86.5768	435.059	86.0328	435.059	86.3788	435.059	85.624	435.059	86.0856	435.059	85.1066	435.059	85.7028	435.059	84.4699	435.059	85.2286	435.059	83.7091	435.059	84.6503	435.059	82.8394	435.059	83.9491	435.059	81.9218	435.059	83.1154	435.059	81.0955	435.059	82.1787	435.059	80.5738	435.059	81.2516	435.059	80.525	435.059	80.5565	435.059	80.9069	435.059	80.336	435.059	81.4989	435.059	80.6314	435.059	82.078	435.059	81.2305	435.059	82.5043	435.059	81.8695	435.059	82.7093	435.059	82.3758	435.059	82.6662
451.172	87.2309	451.172	87.1492	451.172	87.2161	451.172	86.9726	451.172	87.1052	451.172	86.7037	451.172	86.8987	451.172	86.3417	451.172	86.594	451.172	85.8755	451.172	86.1833	451.172	85.2798	451.172	85.6517	451.172	84.5169	451.172	84.9772	451.172	83.5454	451.172	84.1335	451.172	82.3424	451.172	83.1	451.172	80.9585	451.172	81.8926	451.172	79.6463	451.172	80.6336	451.172	78.9575	451.172	79.6519	451.172	79.2959	451.172	79.3946	451.172	80.2976	451.172	79.9417	451.172	81.3502	451.172	80.8697	451.172	82.1367	451.172	81.7467	451.172	82.5694	451.172	82.3605	451.172	82.6411
465.82	86.8426	465.82	86.7467	465.82	86.8381	465.82	86.5561	465.82	86.7351	465.82	86.2814	465.82	86.5435	465.82	85.933	465.82	86.2764	465.82	85.514	465.82	85.9407	465.82	85.0122	465.82	85.5262	465.82	84.3981	465.82	85.0008	465.82	83.6325	465.82	84.3174	465.82	82.6846	465.82	83.4318	465.82	81.5602	465.82	82.3349	465.82	80.3557	465.82	81.113	465.82	79.3449	465.82	80.031	465.82	78.9631	465.82	79.5032	465.82	79.4006	465.82	79.7274	465.82	80.298	465.82	80.4236	465.82	81.1677	465.82	81.1736	465.82	81.7379	465.82	81.7135	465.82	81.9193
483.398	86.3347	483.398	86.25	483.398	86.3217	483.398	86.081	483.398	86.2062	483.398	85.8434	483.398	85.9947	483.398	85.5444	483.398	85.7008	483.398	85.1733	483.398	85.3358	483.398	84.6926	483.398	84.8959	483.398	84.0375	483.398	84.3526	483.398	83.1262	483.398	83.6541	483.398	81.8929	483.398	82.7402	483.398	80.3764	483.398	81.5811	483.398	78.9298	483.398	80.269	483.398	78.3339	483.398	79.1846	483.398	78.9482	483.398	78.9543	483.398	80.1165	483.398	79.7056	483.398	81.2092	483.398	80.8346	483.398	82.0148	483.398	81.8075	483.398	82.4972	483.398	82.4203	483.398	82.6419
499.512	86.6161	499.512	86.5065	499.512	86.5981	499.512	86.2824	499.512	86.4582	499.512	85.9777	499.512	86.2151	499.512	85.6397	499.512	85.8961	499.512	85.3043	499.512	85.5283	499.512	84.9655	499.512	85.1238	499.512	84.5616	499.512	84.6593	499.512	83.9877	499.512	84.0631	499.512	83.1251	499.512	83.2239	499.512	81.8764	499.512	82.0239	499.512	80.2442	499.512	80.4181	499.512	78.5746	499.512	78.6624	499.512	77.8533	499.512	77.684	499.512	78.6616	499.512	78.287	499.512	80.0835	499.512	79.6945	499.512	81.264	499.512	80.9627	499.512	81.9492	499.512	81.7855	499.512	82.1173
517.09	86.5093	517.09	86.3856	517.09	86.5084	517.09	86.1456	517.09	86.3902	517.09	85.8109	517.09	86.1804	517.09	85.412	517.09	85.9181	517.09	84.9757	517.09	85.6384	517.09	84.5058	517.09	85.3432	517.09	83.9655	517.09	84.9828	517.09	83.2827	517.09	84.4651	517.09	82.3775	517.09	83.6862	517.09	81.2106	517.09	82.5665	517.09	79.8688	517.09	81.1031	517.09	78.7201	517.09	79.5044	517.09	78.3938	517.09	78.4007	517.09	79.0678	517.09	78.4852	517.09	80.154	517.09	79.4678	517.09	81.0841	517.09	80.5595	517.09	81.6214	517.09	81.3459	517.09	81.7087
536.133	86.4858	536.133	86.309	536.133	86.4813	536.133	85.9729	536.133	86.2904	536.133	85.5159	536.133	85.9252	536.133	84.9871	536.133	85.4147	536.133	84.4302	536.133	84.8033	536.133	83.8543	536.133	84.1407	536.133	83.2051	536.133	83.4554	536.133	82.3626	536.133	82.7225	536.133	81.1786	536.133	81.854	536.133	79.5723	536.133	80.7434	536.133	77.7929	536.133	79.3919	536.133	76.8754	536.133	78.1855	536.133	77.7109	536.133	78.0145	536.133	79.3788	536.133	79.1267	536.133	80.8961	536.133	80.6302	536.133	81.9928	536.133	81.8505	536.133	82.6445	536.133	82.5944	536.133	82.8508
555.176	86.8012	555.176	86.6293	555.176	86.8135	555.176	86.3076	555.176	86.678	555.176	85.8744	555.176	86.4233	555.176	85.396	555.176	86.0912	555.176	84.9424	555.176	85.7258	555.176	84.5341	555.176	85.3489	555.176	84.0972	555.176	84.9282	555.176	83.4705	555.176	84.361	555.176	82.4459	555.176	83.4814	555.176	80.793	555.176	82.0683	555.176	78.2894	555.176	79.8256	555.176	75.1582	555.176	76.3921	555.176	74.137	555.176	72.5757	555.176	76.6235	555.176	73.9684	555.176	79.1391	555.176	77.5528	555.176	80.7592	555.176	79.9306	555.176	81.5921	555.176	81.2398	555.176	81.7516
574.219	86.5863	574.219	86.4392	574.219	86.5643	574.219	86.1351	574.219	86.3811	574.219	85.7103	574.219	86.064	574.219	85.2266	574.219	85.6616	574.219	84.7572	574.219	85.2402	574.219	84.3433	574.219	84.8628	574.219	83.9411	574.219	84.5431	574.219	83.4062	574.219	84.2044	574.219	82.531	574.219	83.6832	574.219	81.0819	574.219	82.7714	574.219	78.8192	574.219	81.2521	574.219	75.7092	574.219	78.9475	574.219	73.5674	574.219	76.0818	574.219	75.4055	574.219	74.7394	574.219	78.121	574.219	76.5155	574.219	79.9359	574.219	78.7425	574.219	80.8262	574.219	80.2253	574.219	80.9086
594.727	85.6361	594.727	85.4476	594.727	85.6356	594.727	85.0825	594.727	85.4508	594.727	84.5814	594.727	85.1068	594.727	84.0299	594.727	84.6644	594.727	83.5518	594.727	84.2239	594.727	83.2437	594.727	83.8833	594.727	83.0816	594.727	83.6535	594.727	82.9055	594.727	83.4189	594.727	82.499	594.727	82.9919	594.727	81.6617	594.727	82.183	594.727	80.2442	594.727	80.8338	594.727	78.2398	594.727	78.8907	594.727	76.2164	594.727	76.7935	594.727	75.7832	594.727	76.1078	594.727	77.174	594.727	77.3719	594.727	78.761	594.727	78.9211	594.727	79.8	594.727	79.8949	594.727	80.1813
615.234	85.4538	615.234	85.2848	615.234	85.4228	615.234	84.9295	615.234	85.1948	615.234	84.4194	615.234	84.7965	615.234	83.81	615.234	84.2851	615.234	83.1788	615.234	83.7436	615.234	82.585	615.234	83.2493	615.234	81.9933	615.234	82.8147	615.234	81.2336	615.234	82.3479	615.234	80.0533	615.234	81.6767	615.234	78.2116	615.234	80.6158	615.234	75.684	615.234	79.0457	615.234	73.5681	615.234	77.1011	615.234	74.2335	615.234	75.6842	615.234	76.4795	615.234	76.1192	615.234	78.4187	615.234	77.7689	615.234	79.7505	615.234	79.3196	615.234	80.5116	615.234	80.3204	615.234	80.7104
637.207	86.669	637.207	86.4228	637.207	86.6104	637.207	85.8821	637.207	86.2546	637.207	85.0993	637.207	85.6331	637.207	84.2253	637.207	84.8376	637.207	83.5522	637.207	84.0715	637.207	83.3593	637.207	83.6136	637.207	83.5544	637.207	83.5647	637.207	83.6846	637.207	83.6646	637.207	83.2797	637.207	83.4976	637.207	81.949	637.207	82.7076	637.207	79.2287	637.207	80.9794	637.207	74.4939	637.207	77.9855	637.207	72.0126	637.207	74.39	637.207	76.8701	637.207	75.4487	637.207	80.279	637.207	79.0148	637.207	82.1482	637.207	81.4198	637.207	83.0434	637.207	82.724	637.207	83.2207
659.18	87.9399	659.18	87.7462	659.18	87.8985	659.18	87.2927	659.18	87.6335	659.18	86.5648	659.18	87.1353	659.18	85.5939	659.18	86.3947	659.18	84.5181	659.18	85.4657	659.18	83.6351	659.18	84.5476	659.18	83.248	659.18	83.9487	659.18	83.2598	659.18	83.7626	659.18	83.1611	659.18	83.6456	659.18	82.4084	659.18	83.0863	659.18	80.5061	659.18	81.6188	659.18	76.7564	659.18	78.6965	659.18	70.9331	659.18	73.5494	659.18	73.732	659.18	71.6951	659.18	78.5441	659.18	77.0308	659.18	81.1638	659.18	80.3636	659.18	82.4307	659.18	82.083	659.18	82.7144
682.617	88.1522	682.617	87.9323	682.617	88.1401	682.617	87.481	682.617	87.8732	682.617	86.7817	682.617	87.3216	682.617	85.84	682.617	86.4795	682.617	84.7702	682.617	85.4239	682.617	83.8877	682.617	84.4003	682.617	83.5483	682.617	83.7931	682.617	83.6608	682.617	83.7414	682.617	83.6955	682.617	83.8728	682.617	83.1408	682.617	83.6587	682.617	81.5884	682.617	82.6759	682.617	78.5204	682.617	80.5191	682.617	73.5149	682.617	76.7634	682.617	73.539	682.617	73.6612	682.617	78.3235	682.617	76.9526	682.617	81.1561	682.617	80.266	682.617	82.4881	682.617	82.0696	682.617	82.7543
707.52	88.271	707.52	88.0697	707.52	88.2015	707.52	87.5921	707.52	87.8656	707.52	86.8342	707.52	87.2638	707.52	85.8104	707.52	86.3984	707.52	84.6143	707.52	85.3107	707.52	83.5216	707.52	84.1708	707.52	82.9423	707.52	83.3425	707.52	82.9471	707.52	83.1233	707.52	83.0227	707.52	83.2652	707.52	82.524	707.52	83.1419	707.52	80.8955	707.52	82.1742	707.52	77.4483	707.52	79.8114	707.52	71.8231	707.52	75.3534	707.52	73.8368	707.52	71.9252	707.52	78.6688	707.52	76.6086	707.52	81.2955	707.52	80.1514	707.52	82.5216	707.52	82.0093	707.52	82.7358
732.422	87.6265	732.422	87.4715	732.422	87.5519	732.422	87.0834	732.422	87.2561	732.422	86.4553	732.422	86.7481	732.422	85.5755	732.422	86.027	732.422	84.4641	732.422	85.0906	732.422	83.2725	732.422	84.0002	732.422	82.357	732.422	82.989	732.422	81.9896	732.422	82.4044	732.422	81.875	732.422	82.2646	732.422	81.3773	732.422	82.0746	732.422	79.9233	732.422	81.2335	732.422	76.8805	732.422	79.1858	732.422	71.3773	732.422	75.1879	732.422	70.9294	732.422	70.5951	732.422	76.5852	732.422	74.9451	732.422	79.8183	732.422	79.0022	732.422	81.3942	732.422	81.0617	732.422	81.7799
757.324	87.2006	757.324	87.0173	757.324	87.1757	757.324	86.5908	757.324	86.9332	757.324	85.8708	757.324	86.414	757.324	84.837	757.324	85.5434	757.324	83.5802	757.324	84.3181	757.324	82.458	757.324	82.9775	757.324	82.0507	757.324	82.1236	757.324	82.405	757.324	82.1477	757.324	82.7927	757.324	82.5383	757.324	82.5164	757.324	82.5556	757.324	81.1117	757.324	81.7296	757.324	78.0273	757.324	79.6451	757.324	72.3309	757.324	75.5616	757.324	70.5126	757.324	69.2626	757.324	75.9228	757.324	72.9516	757.324	78.9088	757.324	77.5589	757.324	80.2896	757.324	79.7939	757.324	80.5805
785.156	86.7345	785.156	86.5512	785.156	86.672	785.156	86.1328	785.156	86.3626	785.156	85.4666	785.156	85.8198	785.156	84.4992	785.156	85.0396	785.156	83.1823	785.156	83.9756	785.156	81.6319	785.156	82.5885	785.156	80.4039	785.156	81.0425	785.156	80.1971	785.156	79.985	785.156	80.5984	785.156	79.9716	785.156	80.5136	785.156	80.3118	785.156	79.1758	785.156	79.9619	785.156	75.887	785.156	78.2305	785.156	69.6203	785.156	74.2735	785.156	70.4075	785.156	68.3812	785.156	76.2545	785.156	73.4631	785.156	79.4561	785.156	78.1526	785.156	81.0416	785.156	80.5081	785.156	81.3825
811.523	85.8434	811.523	85.6675	811.523	85.8195	811.523	85.281	811.523	85.5637	811.523	84.6238	811.523	85.0234	811.523	83.6057	811.523	84.1483	811.523	82.1738	811.523	82.9086	811.523	80.5214	811.523	81.3678	811.523	79.4328	811.523	79.9344	811.523	79.6379	811.523	79.4396	811.523	80.3922	811.523	79.9507	811.523	80.6112	811.523	80.4184	811.523	79.6852	811.523	79.9768	811.523	76.9862	811.523	78.0678	811.523	71.1444	811.523	74.0004	811.523	68.7447	811.523	68.9819	811.523	75.2629	811.523	72.9638	811.523	78.3574	811.523	76.8701	811.523	79.5693	811.523	78.8607	811.523	79.6735
840.82	85.3087	840.82	85.1855	840.82	85.2002	840.82	84.8006	840.82	84.9022	840.82	84.1243	840.82	84.4252	840.82	83.0841	840.82	83.6835	840.82	81.5524	840.82	82.4961	840.82	79.4956	840.82	80.6923	840.82	77.6181	840.82	78.4599	840.82	77.5715	840.82	77.1798	840.82	78.7156	840.82	77.9522	840.82	79.1697	840.82	79.0048	840.82	78.1719	840.82	78.9727	840.82	75.1856	840.82	77.3137	840.82	68.8714	840.82	73.2234	840.82	67.1804	840.82	66.6593	840.82	73.9545	840.82	71.941	840.82	77.3647	840.82	76.5462	840.82	78.9879	840.82	78.7069	840.82	79.4129
870.117	84.5159	870.117	84.3884	870.117	84.4805	870.117	84.0945	870.117	84.2715	870.117	83.5761	870.117	83.8728	870.117	82.6921	870.117	83.223	870.117	81.2421	870.117	82.1699	870.117	79.1037	870.117	80.5186	870.117	76.8181	870.117	78.3444	870.117	76.3968	870.117	76.8451	870.117	77.7724	870.117	77.396	870.117	78.6104	870.117	78.4255	870.117	77.8636	870.117	78.3596	870.117	74.7026	870.117	76.5225	870.117	66.302	870.117	71.8484	870.117	68.3234	870.117	64.955	870.117	75.3534	870.117	72.3847	870.117	78.349	870.117	76.8337	870.117	79.6369	870.117	78.9785	870.117	79.819
900.879	83.8579	900.879	83.8075	900.879	83.8644	900.879	83.6823	900.879	83.8043	900.879	83.3739	900.879	83.6063	900.879	82.6764	900.879	83.1298	900.879	81.2682	900.879	82.1413	900.879	78.6898	900.879	80.3018	900.879	74.7453	900.879	77.2704	900.879	73.6191	900.879	74.2498	900.879	76.7738	900.879	75.6383	900.879	78.4065	900.879	77.9406	900.879	77.7038	900.879	78.3385	900.879	73.8272	900.879	76.3584	900.879	57.9843	900.879	70.3255	900.879	71.1503	900.879	60.8396	900.879	77.1982	900.879	74.0404	900.879	79.7413	900.879	78.4911	900.879	80.88	900.879	80.4919	900.879	81.1467
933.105	83.1514	933.105	83.1564	933.105	83.1594	933.105	83.229	933.105	83.1852	933.105	83.3519	933.105	83.2472	933.105	83.2769	933.105	83.252	933.105	82.5522	933.105	82.9159	933.105	80.5731	933.105	81.7789	933.105	76.3823	933.105	79.1956	933.105	71.3742	933.105	74.5796	933.105	76.2895	933.105	73.8302	933.105	79.6543	933.105	78.0057	933.105	80.1993	933.105	79.7418	933.105	78.2165	933.105	78.8399	933.105	73.7776	933.105	74.5467	933.105	74.4302	933.105	68.1937	933.105	79.133	933.105	76.4118	933.105	81.8758	933.105	80.8041	933.105	83.1964	933.105	82.8147	933.105	83.4976
965.332	83.5687	965.332	83.2252	965.332	83.5346	965.332	82.7241	965.332	83.2649	965.332	82.6449	965.332	83.1068	965.332	83.2057	965.332	83.3029	965.332	83.7178	965.332	83.6173	965.332	83.2963	965.332	83.4183	965.332	81.061	965.332	81.9211	965.332	74.9808	965.332	77.8115	965.332	67.9921	965.332	67.4824	965.332	78.203	965.332	75.6733	965.332	81.3004	965.332	80.4201	965.332	81.291	965.332	81.2741	965.332	78.6641	965.332	79.1727	965.332	75.5746	965.332	74.6068	965.332	79.4585	965.332	76.94	965.332	83.1132	965.332	81.5218	965.332	84.7865	965.332	83.9873	965.332	85.0051
1,000.49	85.5495	1,000.49	85.13	1,000.49	85.4363	1,000.49	84.2188	1,000.49	84.7902	1,000.49	83.0735	1,000.49	83.7278	1,000.49	82.4151	1,000.49	82.7327	1,000.49	82.63	1,000.49	82.477	1,000.49	82.8027	1,000.49	82.6807	1,000.49	81.7934	1,000.49	82.2554	1,000.49	78.5027	1,000.49	80.1522	1,000.49	71.0698	1,000.49	74.7041	1,000.49	74.6547	1,000.49	71.3395	1,000.49	79.8044	1,000.49	78.5638	1,000.49	81.1715	1,000.49	81.1919	1,000.49	79.6955	1,000.49	80.6673	1,000.49	75.3324	1,000.49	77.0418	1,000.49	75.2792	1,000.49	73.1515	1,000.49	80.0844	1,000.49	77.9627	1,000.49	82.4032	1,000.49	81.3774	1,000.49	82.729
1,035.64	85.4622	1,035.64	85.134	1,035.64	85.3933	1,035.64	84.4252	1,035.64	84.8851	1,035.64	83.3794	1,035.64	83.9226	1,035.64	82.247	1,035.64	82.6793	1,035.64	81.4972	1,035.64	81.6582	1,035.64	81.0983	1,035.64	81.1774	1,035.64	80.1793	1,035.64	80.6445	1,035.64	77.6387	1,035.64	79.0601	1,035.64	72.3335	1,035.64	75.3678	1,035.64	71.6699	1,035.64	70.7439	1,035.64	76.406	1,035.64	74.5985	1,035.64	77.7232	1,035.64	77.2832	1,035.64	75.6754	1,035.64	76.7287	1,035.64	68.2996	1,035.64	72.5965	1,035.64	69.7683	1,035.64	67.1782	1,035.64	76.713	1,035.64	74.3364	1,035.64	79.3909	1,035.64	78.3844	1,035.64	79.8568
1,072.27	83.9	1,072.27	83.4361	1,072.27	83.8333	1,072.27	82.5539	1,072.27	83.227	1,072.27	81.4834	1,072.27	82.1858	1,072.27	80.6673	1,072.27	81.0372	1,072.27	80.5493	1,072.27	80.4573	1,072.27	80.7428	1,072.27	80.7038	1,072.27	80.1934	1,072.27	80.8111	1,072.27	77.8369	1,072.27	79.549	1,072.27	72.3211	1,072.27	75.582	1,072.27	71.015	1,072.27	67.0763	1,072.27	76.255	1,072.27	72.9919	1,072.27	77.6413	1,072.27	76.8795	1,072.27	75.6511	1,072.27	76.8809	1,072.27	69.976	1,072.27	73.4412	1,072.27	71.6639	1,072.27	68.8347	1,072.27	76.8308	1,072.27	74.3883	1,072.27	79.0956	1,072.27	78.1006	1,072.27	79.4602
1,108.89	85.0034	1,108.89	84.6707	1,108.89	84.978	1,108.89	83.8397	1,108.89	84.5705	1,108.89	82.2918	1,108.89	83.6031	1,108.89	80.006	1,108.89	81.8816	1,108.89	78.2563	1,108.89	79.6643	1,108.89	79.0396	1,108.89	78.7153	1,108.89	80.1921	1,108.89	79.6716	1,108.89	79.404	1,108.89	80.0038	1,108.89	74.9391	1,108.89	78.0245	1,108.89	63.9171	1,108.89	71.125	1,108.89	75.088	1,108.89	68.1298	1,108.89	78.3508	1,108.89	76.6708	1,108.89	77.7016	1,108.89	78.6761	1,108.89	74.181	1,108.89	77.151	1,108.89	73.6289	1,108.89	73.2027	1,108.89	78.2023	1,108.89	75.5944	1,108.89	80.7739	1,108.89	79.569	1,108.89	81.1877
1,148.44	87.0672	1,148.44	86.7453	1,148.44	87.1295	1,148.44	86.0921	1,148.44	86.9099	1,148.44	84.9903	1,148.44	86.3133	1,148.44	83.3077	1,148.44	85.2442	1,148.44	81.1664	1,148.44	83.6628	1,148.44	79.8571	1,148.44	81.8568	1,148.44	80.2771	1,148.44	80.9007	1,148.44	80.2901	1,148.44	80.9963	1,148.44	78.0899	1,148.44	80.3682	1,148.44	72.1792	1,148.44	77.3673	1,148.44	71.4281	1,148.44	71.6649	1,148.44	76.246	1,148.44	75.4694	1,148.44	76.8462	1,148.44	78.4348	1,148.44	73.8943	1,148.44	77.5326	1,148.44	71.0656	1,148.44	73.2085	1,148.44	76.5317	1,148.44	72.2926	1,148.44	79.669	1,148.44	77.3656	1,148.44	79.8503
1,189.45	87.7305	1,189.45	87.3305	1,189.45	87.7894	1,189.45	86.6989	1,189.45	87.4974	1,189.45	85.8322	1,189.45	86.9218	1,189.45	84.5277	1,189.45	86.0323	1,189.45	82.6617	1,189.45	84.7067	1,189.45	80.7516	1,189.45	83.0372	1,189.45	79.9244	1,189.45	81.7233	1,189.45	79.5847	1,189.45	81.294	1,189.45	77.7893	1,189.45	80.5801	1,189.45	73.3073	1,189.45	78.0243	1,189.45	73.1591	1,189.45	74.6087	1,189.45	77.3406	1,189.45	76.8689	1,189.45	78.1333	1,189.45	79.0318	1,189.45	75.332	1,189.45	78.2496	1,189.45	70.2275	1,189.45	73.4465	1,189.45	74.4593	1,189.45	67.6119	1,189.45	78.0118	1,189.45	75.8514	1,189.45	78.5837
1,230.47	87.2269	1,230.47	86.8663	1,230.47	87.3712	1,230.47	86.2801	1,230.47	87.2421	1,230.47	85.367	1,230.47	86.7546	1,230.47	84.0278	1,230.47	85.8049	1,230.47	82.3164	1,230.47	84.3749	1,230.47	80.654	1,230.47	82.769	1,230.47	79.784	1,230.47	81.6897	1,230.47	79.4269	1,230.47	81.2255	1,230.47	77.9929	1,230.47	80.2195	1,230.47	73.9261	1,230.47	77.4655	1,230.47	71.8201	1,230.47	74.0722	1,230.47	76.2776	1,230.47	76.3859	1,230.47	77.3913	1,230.47	78.5403	1,230.47	74.8891	1,230.47	77.4571	1,230.47	69.9797	1,230.47	71.1792	1,230.47	73.7383	1,230.47	67.5153	1,230.47	77.5356	1,230.47	76.0795	1,230.47	78.3582
1,274.41	86.9538	1,274.41	86.5423	1,274.41	87.0452	1,274.41	85.8331	1,274.41	86.7851	1,274.41	84.8751	1,274.41	86.1816	1,274.41	83.6851	1,274.41	85.2923	1,274.41	82.1353	1,274.41	84.11	1,274.41	80.3455	1,274.41	82.5841	1,274.41	79.3876	1,274.41	81.1129	1,274.41	79.3352	1,274.41	80.4707	1,274.41	78.1978	1,274.41	79.8292	1,274.41	73.9164	1,274.41	77.2193	1,274.41	68.4803	1,274.41	72.289	1,274.41	75.2894	1,274.41	75.7569	1,274.41	77.6927	1,274.41	78.9139	1,274.41	76.1288	1,274.41	78.1611	1,274.41	70.4942	1,274.41	72.6743	1,274.41	72.4228	1,274.41	66.7002	1,274.41	76.9109	1,274.41	75.1998	1,274.41	77.7421
1,319.82	86.1612	1,319.82	85.8365	1,319.82	86.1836	1,319.82	85.1887	1,319.82	85.977	1,319.82	84.2979	1,319.82	85.5366	1,319.82	83.1359	1,319.82	84.7658	1,319.82	81.4326	1,319.82	83.5328	1,319.82	79.2265	1,319.82	81.7385	1,319.82	77.7406	1,319.82	79.768	1,319.82	77.588	1,319.82	78.8547	1,319.82	77.0162	1,319.82	78.707	1,319.82	74.5603	1,319.82	77.1116	1,319.82	70.5788	1,319.82	72.2975	1,319.82	72.5621	1,319.82	72.1497	1,319.82	75.3586	1,319.82	76.3898	1,319.82	74.874	1,319.82	76.1947	1,319.82	70.2082	1,319.82	70.6866	1,319.82	70.5592	1,319.82	67.0368	1,319.82	75.5519	1,319.82	74.3038	1,319.82	76.5644
1,366.7	85.1908	1,366.7	84.7195	1,366.7	85.214	1,366.7	83.9905	1,366.7	84.8329	1,366.7	83.2275	1,366.7	84.3418	1,366.7	82.3894	1,366.7	83.7826	1,366.7	81.145	1,366.7	82.6628	1,366.7	79.1669	1,366.7	80.732	1,366.7	76.8401	1,366.7	78.7714	1,366.7	75.9453	1,366.7	77.7988	1,366.7	76.0438	1,366.7	77.2117	1,366.7	74.5455	1,366.7	75.9002	1,366.7	70.9311	1,366.7	72.8238	1,366.7	71.6963	1,366.7	70.5681	1,366.7	74.3566	1,366.7	74.1024	1,366.7	73.6824	1,366.7	75.1114	1,366.7	68.5566	1,366.7	71.9764	1,366.7	67.1453	1,366.7	64.5563	1,366.7	73.5325	1,366.7	72.0396	1,366.7	75.049
1,413.57	84.5895	1,413.57	84.2303	1,413.57	84.5705	1,413.57	83.5701	1,413.57	84.2093	1,413.57	82.8182	1,413.57	83.501	1,413.57	81.9473	1,413.57	82.6295	1,413.57	80.7673	1,413.57	81.7685	1,413.57	79.1561	1,413.57	80.5217	1,413.57	77.207	1,413.57	78.5544	1,413.57	75.8207	1,413.57	76.6832	1,413.57	75.2247	1,413.57	75.9906	1,413.57	73.3574	1,413.57	74.8262	1,413.57	69.3949	1,413.57	70.8738	1,413.57	70.4846	1,413.57	67.533	1,413.57	73.1194	1,413.57	72.6576	1,413.57	72.5935	1,413.57	74.0229	1,413.57	67.4335	1,413.57	70.9068	1,413.57	64.5141	1,413.57	61.7485	1,413.57	71.6044	1,413.57	68.3798	1,413.57	72.3969
1,463.38	84.7013	1,463.38	84.2835	1,463.38	84.6839	1,463.38	83.3603	1,463.38	84.2721	1,463.38	82.1033	1,463.38	83.4686	1,463.38	80.9928	1,463.38	82.4484	1,463.38	80.0649	1,463.38	81.5194	1,463.38	78.7901	1,463.38	80.4696	1,463.38	77.2941	1,463.38	78.6724	1,463.38	76.7069	1,463.38	76.7029	1,463.38	76.5172	1,463.38	76.3938	1,463.38	74.9171	1,463.38	76.0008	1,463.38	71.1815	1,463.38	73.1674	1,463.38	69.4592	1,463.38	69.3439	1,463.38	71.8628	1,463.38	71.3497	1,463.38	71.4785	1,463.38	71.8773	1,463.38	66.4873	1,463.38	68.8699	1,463.38	63.9108	1,463.38	60.7479	1,463.38	69.2492	1,463.38	66.915	1,463.38	70.3768
1,516.11	84.7903	1,516.11	84.2088	1,516.11	85.0204	1,516.11	83.6338	1,516.11	84.477	1,516.11	82.7744	1,516.11	83.3778	1,516.11	81.5347	1,516.11	82.2647	1,516.11	80.4181	1,516.11	81.1449	1,516.11	79.3885	1,516.11	79.6592	1,516.11	77.9294	1,516.11	77.9064	1,516.11	76.6968	1,516.11	76.5775	1,516.11	76.2153	1,516.11	76.2604	1,516.11	74.9784	1,516.11	75.7991	1,516.11	71.484	1,516.11	73.1998	1,516.11	68.2924	1,516.11	67.7096	1,516.11	71.2679	1,516.11	70.1655	1,516.11	72.058	1,516.11	73.153	1,516.11	68.0995	1,516.11	71.7066	1,516.11	59.1842	1,516.11	60.5727	1,516.11	66.2105	1,516.11	65.2966	1,516.11	69.0008
1,568.85	85.0551	1,568.85	84.7569	1,568.85	84.8635	1,568.85	83.9745	1,568.85	84.3434	1,568.85	82.8963	1,568.85	83.4584	1,568.85	81.5706	1,568.85	82.0903	1,568.85	80.1581	1,568.85	80.4608	1,568.85	79.0753	1,568.85	79.0361	1,568.85	78.1184	1,568.85	77.7609	1,568.85	76.7174	1,568.85	76.0337	1,568.85	75.5168	1,568.85	74.3965	1,568.85	74.9006	1,568.85	74.3005	1,568.85	73.4106	1,568.85	73.673	1,568.85	70.3299	1,568.85	70.0102	1,568.85	69.805	1,568.85	67.7273	1,568.85	71.6382	1,568.85	70.4973	1,568.85	69.8583	1,568.85	69.3363	1,568.85	61.2586	1,568.85	60.5127	1,568.85	66.2867	1,568.85	63.0605	1,568.85	68.2605
1,624.51	84.6363	1,624.51	84.5672	1,624.51	84.1524	1,624.51	83.6648	1,624.51	83.548	1,624.51	82.3524	1,624.51	82.7376	1,624.51	81.3186	1,624.51	81.5096	1,624.51	80.4442	1,624.51	80.0187	1,624.51	79.0987	1,624.51	78.5139	1,624.51	77.3456	1,624.51	77.0237	1,624.51	75.9693	1,624.51	75.3107	1,624.51	75.2964	1,624.51	73.1622	1,624.51	73.994	1,624.51	72.3061	1,624.51	72.061	1,624.51	72.1042	1,624.51	71.5325	1,624.51	68.865	1,624.51	70.6849	1,624.51	65.639	1,624.51	70.6047	1,624.51	69.4184	1,624.51	69.8382	1,624.51	69.2979	1,624.51	61.3916	1,624.51	62.4139	1,624.51	63.5198	1,624.51	59.9903	1,624.51	66.7568
1,681.64	83.8057	1,681.64	83.5713	1,681.64	84.0585	1,681.64	83.3412	1,681.64	83.5782	1,681.64	82.8194	1,681.64	82.2232	1,681.64	82.0221	1,681.64	81.0431	1,681.64	80.7124	1,681.64	80.2245	1,681.64	78.643	1,681.64	78.6424	1,681.64	76.4903	1,681.64	76.4953	1,681.64	75.7121	1,681.64	75.3137	1,681.64	75.5523	1,681.64	74.1683	1,681.64	73.9718	1,681.64	72.141	1,681.64	71.3764	1,681.64	71.3836	1,681.64	70.8083	1,681.64	70.658	1,681.64	71.2098	1,681.64	68.5934	1,681.64	70.2124	1,681.64	69.5029	1,681.64	68.1294	1,681.64	67.744	1,681.64	58.3079	1,681.64	60.1302	1,681.64	62.5097	1,681.64	55.6358	1,681.64	62.8343
1,741.7	84.7746	1,741.7	84.4453	1,741.7	84.2743	1,741.7	83.5044	1,741.7	83.3927	1,741.7	82.1894	1,741.7	82.8268	1,741.7	80.9024	1,741.7	81.8307	1,741.7	80.0232	1,741.7	80.0432	1,741.7	78.7056	1,741.7	78.8439	1,741.7	76.426	1,741.7	77.5773	1,741.7	75.2472	1,741.7	75.2832	1,741.7	74.317	1,741.7	74.8915	1,741.7	71.173	1,741.7	74.6095	1,741.7	70.9511	1,741.7	71.6334	1,741.7	70.7299	1,741.7	70.7008	1,741.7	68.9117	1,741.7	70.8879	1,741.7	70.6728	1,741.7	69.629	1,741.7	68.3005	1,741.7	69.7747	1,741.7	63.8742	1,741.7	66.7218	1,741.7	61.3242	1,741.7	44.7228	1,741.7	59.9444
1,803.22	84.8067	1,803.22	84.8656	1,803.22	84.6512	1,803.22	84.2791	1,803.22	84.3786	1,803.22	83.0175	1,803.22	83.497	1,803.22	81.6264	1,803.22	81.9982	1,803.22	80.3428	1,803.22	80.8326	1,803.22	79.097	1,803.22	80.0325	1,803.22	77.2512	1,803.22	78.1624	1,803.22	74.5082	1,803.22	75.3689	1,803.22	73.7111	1,803.22	74.3382	1,803.22	72.9762	1,803.22	74.2053	1,803.22	69.6191	1,803.22	72.3374	1,803.22	70.5348	1,803.22	70.3916	1,803.22	69.9747	1,803.22	70.7921	1,803.22	67.8741	1,803.22	70.8429	1,803.22	68.1187	1,803.22	70.0175	1,803.22	61.3624	1,803.22	66.7501	1,803.22	66.6388	1,803.22	60.8742	1,803.22	66.5597
1,866.21	85.0846	1,866.21	85.0933	1,866.21	84.7211	1,866.21	84.3426	1,866.21	84.4601	1,866.21	83.2808	1,866.21	83.9523	1,866.21	81.7901	1,866.21	82.8678	1,866.21	80.0972	1,866.21	80.9733	1,866.21	79.2196	1,866.21	79.2372	1,866.21	78.1727	1,866.21	78.4544	1,866.21	75.6192	1,866.21	76.7583	1,866.21	74.2121	1,866.21	74.1945	1,866.21	73.3218	1,866.21	73.5049	1,866.21	69.2655	1,866.21	71.4117	1,866.21	71.3546	1,866.21	69.9406	1,866.21	71.9378	1,866.21	70.4635	1,866.21	66.7046	1,866.21	69.4205	1,866.21	65.5901	1,866.21	68.0251	1,866.21	58.2945	1,866.21	63.4198	1,866.21	64.1619	1,866.21	58.4548	1,866.21	64.2558
1,932.13	84.0326	1,932.13	83.5601	1,932.13	84.241	1,932.13	83.3373	1,932.13	83.827	1,932.13	83.0906	1,932.13	82.983	1,932.13	81.796	1,932.13	82.3549	1,932.13	80.1351	1,932.13	80.9391	1,932.13	79.1151	1,932.13	78.5235	1,932.13	77.6471	1,932.13	78.0696	1,932.13	75.2569	1,932.13	77.664	1,932.13	73.2354	1,932.13	74.4845	1,932.13	71.6474	1,932.13	73.061	1,932.13	69.9947	1,932.13	71.2732	1,932.13	70.3096	1,932.13	67.4367	1,932.13	71.4516	1,932.13	70.6118	1,932.13	70.2595	1,932.13	70.3659	1,932.13	64.4088	1,932.13	69.1463	1,932.13	53.3141	1,932.13	64.6049	1,932.13	62.76	1,932.13	62.5466	1,932.13	67.0416
1,999.51	85.0043	1,999.51	84.6762	1,999.51	84.8574	1,999.51	83.6433	1,999.51	84.4941	1,999.51	82.4571	1,999.51	83.7572	1,999.51	81.4648	1,999.51	82.7754	1,999.51	79.7887	1,999.51	81.6008	1,999.51	78.0421	1,999.51	79.9467	1,999.51	77.1023	1,999.51	78.6888	1,999.51	73.7752	1,999.51	77.4021	1,999.51	69.8865	1,999.51	74.0135	1,999.51	71.5154	1,999.51	72.9461	1,999.51	68.2675	1,999.51	73.2544	1,999.51	68.9846	1,999.51	68.5672	1,999.51	71.9896	1,999.51	69.4675	1,999.51	70.3169	1,999.51	71.19	1,999.51	66.0894	1,999.51	69.4708	1,999.51	54.3688	1,999.51	63.6164	1,999.51	65.0332	1,999.51	59.4696	1,999.51	67.6974
2,069.82	85.8279	2,069.82	85.6361	2,069.82	85.7959	2,069.82	84.8428	2,069.82	85.3622	2,069.82	83.3766	2,069.82	84.266	2,069.82	82.0594	2,069.82	83.108	2,069.82	80.9198	2,069.82	82.1473	2,069.82	78.6299	2,069.82	80.8381	2,069.82	76.7542	2,069.82	79.1352	2,069.82	75.4364	2,069.82	77.6201	2,069.82	70.935	2,069.82	75.5582	2,069.82	71.765	2,069.82	74.0566	2,069.82	72.1356	2,069.82	73.5974	2,069.82	63.4112	2,069.82	70.0067	2,069.82	69.5642	2,069.82	67.8076	2,069.82	69.9008	2,069.82	72.8181	2,069.82	67.9096	2,069.82	72.7919	2,069.82	57.8331	2,069.82	67.4725	2,069.82	65.3722	2,069.82	56.7654	2,069.82	65.4807
2,143.07	85.2397	2,143.07	84.7003	2,143.07	85.3828	2,143.07	84.3378	2,143.07	84.6499	2,143.07	83.9012	2,143.07	83.4791	2,143.07	82.6434	2,143.07	82.4734	2,143.07	80.9869	2,143.07	80.9211	2,143.07	78.8984	2,143.07	79.113	2,143.07	76.9654	2,143.07	78.0883	2,143.07	76.7411	2,143.07	76.876	2,143.07	74.7745	2,143.07	74.662	2,143.07	71.1904	2,143.07	71.9985	2,143.07	70.351	2,143.07	70.9983	2,143.07	65.1726	2,143.07	70.0903	2,143.07	67.3401	2,143.07	67.9083	2,143.07	70.0556	2,143.07	66.9053	2,143.07	68.7301	2,143.07	68.9393	2,143.07	65.2498	2,143.07	67.7057	2,143.07	56.8908	2,143.07	55.6947	2,143.07	61.4671
2,219.24	85.2424	2,219.24	84.7357	2,219.24	84.7152	2,219.24	83.9252	2,219.24	84.3466	2,219.24	82.8988	2,219.24	84.0188	2,219.24	81.3909	2,219.24	82.4254	2,219.24	79.9979	2,219.24	80.3673	2,219.24	77.9794	2,219.24	79.1226	2,219.24	75.6669	2,219.24	77.1967	2,219.24	75.0643	2,219.24	74.2114	2,219.24	73.6604	2,219.24	72.1824	2,219.24	73.0529	2,219.24	69.6243	2,219.24	71.7937	2,219.24	68.9884	2,219.24	68.5626	2,219.24	69.9611	2,219.24	67.1991	2,219.24	68.1322	2,219.24	66.5718	2,219.24	67.7351	2,219.24	69.7511	2,219.24	69.091	2,219.24	63.1499	2,219.24	69.4173	2,219.24	54.3019	2,219.24	61.8123	2,219.24	59.6552
2,296.88	85.3875	2,296.88	84.8903	2,296.88	85.8729	2,296.88	84.2961	2,296.88	85.8064	2,296.88	83.361	2,296.88	85.0507	2,296.88	82.1757	2,296.88	83.7733	2,296.88	80.0712	2,296.88	82.6289	2,296.88	77.5743	2,296.88	80.6814	2,296.88	75.4172	2,296.88	78.6272	2,296.88	73.7461	2,296.88	77.7788	2,296.88	72.1238	2,296.88	75.101	2,296.88	71.2042	2,296.88	72.6043	2,296.88	71.0992	2,296.88	70.3712	2,296.88	69.7579	2,296.88	69.3928	2,296.88	67.3803	2,296.88	69.398	2,296.88	66.9247	2,296.88	66.6547	2,296.88	69.1892	2,296.88	71.6653	2,296.88	64.8708	2,296.88	71.1527	2,296.88	55.6818	2,296.88	66.158	2,296.88	55.3173
2,378.91	86.5422	2,378.91	86.2806	2,378.91	86.6513	2,378.91	85.7473	2,378.91	86.4647	2,378.91	84.6391	2,378.91	85.7466	2,378.91	83.0043	2,378.91	84.125	2,378.91	81.4234	2,378.91	82.5705	2,378.91	78.8439	2,378.91	81.2118	2,378.91	75.7234	2,378.91	78.6189	2,378.91	74.5181	2,378.91	76.8749	2,378.91	71.7505	2,378.91	75.3365	2,378.91	69.1289	2,378.91	71.9301	2,378.91	66.967	2,378.91	71.2633	2,378.91	69.3048	2,378.91	69.0505	2,378.91	70.3515	2,378.91	69.8425	2,378.91	64.4086	2,378.91	64.4734	2,378.91	70.5245	2,378.91	68.1508	2,378.91	69.2595	2,378.91	70.4557	2,378.91	57.8308	2,378.91	65.2752	2,378.91	59.8924
2,462.4	86.1185	2,462.4	85.8652	2,462.4	86.1105	2,462.4	85.4367	2,462.4	85.6506	2,462.4	84.5163	2,462.4	84.9627	2,462.4	82.7116	2,462.4	83.8413	2,462.4	80.8877	2,462.4	81.7954	2,462.4	78.8965	2,462.4	79.8602	2,462.4	76.0122	2,462.4	77.4923	2,462.4	74.1112	2,462.4	74.8802	2,462.4	72.2411	2,462.4	74.0013	2,462.4	70.8637	2,462.4	71.5431	2,462.4	69.7631	2,462.4	69.7692	2,462.4	65.2819	2,462.4	67.3265	2,462.4	69.5053	2,462.4	67.9024	2,462.4	64.747	2,462.4	68.8444	2,462.4	67.3971	2,462.4	64.7712	2,462.4	68.6282	2,462.4	68.9861	2,462.4	62.024	2,462.4	66.2537	2,462.4	62.9934
2,548.83	86.0763	2,548.83	85.5732	2,548.83	86.0411	2,548.83	84.683	2,548.83	85.4986	2,548.83	83.7259	2,548.83	84.799	2,548.83	82.0262	2,548.83	83.7536	2,548.83	79.7157	2,548.83	81.8655	2,548.83	77.5099	2,548.83	79.9948	2,548.83	74.8181	2,548.83	77.7156	2,548.83	72.5556	2,548.83	74.5996	2,548.83	71.1453	2,548.83	73.1118	2,548.83	68.5131	2,548.83	71.0741	2,548.83	68.5058	2,548.83	69.0151	2,548.83	65.0438	2,548.83	66.4718	2,548.83	70.2432	2,548.83	68.2178	2,548.83	69.5519	2,548.83	68.7422	2,548.83	64.598	2,548.83	61.3595	2,548.83	66.1444	2,548.83	66.773	2,548.83	51.3499	2,548.83	64.6902	2,548.83	62.5984
2,639.65	86.4837	2,639.65	86.1292	2,639.65	86.4099	2,639.65	85.321	2,639.65	86.0682	2,639.65	84.0828	2,639.65	85.3257	2,639.65	82.576	2,639.65	84.0585	2,639.65	80.5895	2,639.65	82.3414	2,639.65	77.9898	2,639.65	80.2629	2,639.65	75.3237	2,639.65	77.8602	2,639.65	72.611	2,639.65	74.5379	2,639.65	70.3033	2,639.65	72.0115	2,639.65	68.3454	2,639.65	70.7854	2,639.65	67.5561	2,639.65	67.9326	2,639.65	63.3616	2,639.65	66.7563	2,639.65	64.4348	2,639.65	65.6725	2,639.65	69.5036	2,639.65	68.5982	2,639.65	67.2706	2,639.65	65.9438	2,639.65	65.8635	2,639.65	66.4545	2,639.65	60.6292	2,639.65	62.595	2,639.65	61.845
2,731.93	86.2291	2,731.93	85.816	2,731.93	86.1499	2,731.93	84.9787	2,731.93	85.8264	2,731.93	83.9878	2,731.93	84.9626	2,731.93	82.4724	2,731.93	83.3334	2,731.93	80.3005	2,731.93	81.5867	2,731.93	77.9869	2,731.93	79.5998	2,731.93	75.5743	2,731.93	76.8152	2,731.93	72.8719	2,731.93	73.791	2,731.93	70.6635	2,731.93	70.82	2,731.93	68.1616	2,731.93	68.7374	2,731.93	65.3172	2,731.93	66.9956	2,731.93	62.9932	2,731.93	63.5959	2,731.93	64.9039	2,731.93	65.7698	2,731.93	65.7427	2,731.93	64.8712	2,731.93	66.771	2,731.93	63.149	2,731.93	64.7875	2,731.93	67.3549	2,731.93	57.5437	2,731.93	62.0418	2,731.93	63.6539
2,828.61	86.1712	2,828.61	85.8462	2,828.61	86.1341	2,828.61	84.8318	2,828.61	85.7977	2,828.61	83.4892	2,828.61	84.5855	2,828.61	81.6949	2,828.61	83.0515	2,828.61	79.4505	2,828.61	81.4822	2,828.61	77.3068	2,828.61	79.0503	2,828.61	74.8634	2,828.61	76.2148	2,828.61	72.3674	2,828.61	73.8721	2,828.61	70.1665	2,828.61	71.6599	2,828.61	67.4935	2,828.61	69.4198	2,828.61	67.4506	2,828.61	68.0297	2,828.61	63.9683	2,828.61	64.6468	2,828.61	63.0722	2,828.61	61.3575	2,828.61	63.6566	2,828.61	65.6323	2,828.61	67.2626	2,828.61	61.1887	2,828.61	65.5989	2,828.61	67.9703	2,828.61	51.0091	2,828.61	59.1217	2,828.61	57.5013
2,928.22	85.859	2,928.22	85.627	2,928.22	85.7568	2,928.22	84.9459	2,928.22	85.3552	2,928.22	83.437	2,928.22	84.4237	2,928.22	81.4509	2,928.22	82.9277	2,928.22	79.1422	2,928.22	81.0313	2,928.22	76.6664	2,928.22	78.1342	2,928.22	74.41	2,928.22	75.4331	2,928.22	72.2906	2,928.22	73.1468	2,928.22	70.165	2,928.22	70.4969	2,928.22	66.9276	2,928.22	68.1267	2,928.22	67.3969	2,928.22	66.785	2,928.22	65.17	2,928.22	66.8215	2,928.22	64.3983	2,928.22	61.1259	2,928.22	62.6265	2,928.22	65.7211	2,928.22	65.079	2,928.22	61.8824	2,928.22	67.7918	2,928.22	67.0119	2,928.22	57.5081	2,928.22	62.6389	2,928.22	47.4175
3,030.76	85.0728	3,030.76	84.833	3,030.76	85.0373	3,030.76	84.1717	3,030.76	84.6258	3,030.76	82.5536	3,030.76	83.7505	3,030.76	80.2275	3,030.76	82.1673	3,030.76	77.817	3,030.76	79.9026	3,030.76	75.6123	3,030.76	77.0092	3,030.76	72.9026	3,030.76	74.2617	3,030.76	70.4666	3,030.76	71.8543	3,030.76	68.8435	3,030.76	69.2899	3,030.76	66.24	3,030.76	66.9498	3,030.76	66.0163	3,030.76	65.3722	3,030.76	65.6071	3,030.76	63.6735	3,030.76	62.6603	3,030.76	58.1394	3,030.76	63.076	3,030.76	61.351	3,030.76	64.877	3,030.76	61.837	3,030.76	64.748	3,030.76	65.4901	3,030.76	51.812	3,030.76	60.2595	3,030.76	55.5185
3,137.7	85.3985	3,137.7	85.0212	3,137.7	85.1517	3,137.7	84.2365	3,137.7	84.548	3,137.7	82.8527	3,137.7	83.6697	3,137.7	80.6672	3,137.7	81.9444	3,137.7	77.8544	3,137.7	79.4128	3,137.7	74.6466	3,137.7	76.5115	3,137.7	71.4809	3,137.7	73.7689	3,137.7	69.2185	3,137.7	70.2378	3,137.7	67.8694	3,137.7	67.674	3,137.7	65.9386	3,137.7	65.8627	3,137.7	64.503	3,137.7	63.9051	3,137.7	62.4254	3,137.7	64.4166	3,137.7	63.7896	3,137.7	59.6945	3,137.7	62.6797	3,137.7	63.8485	3,137.7	64.013	3,137.7	57.4694	3,137.7	67.953	3,137.7	66.1894	3,137.7	55.1301	3,137.7	63.9264	3,137.7	52.5132
3,249.02	85.1097	3,249.02	84.7718	3,249.02	84.9661	3,249.02	83.9328	3,249.02	84.4402	3,249.02	82.4022	3,249.02	83.2292	3,249.02	80.1305	3,249.02	81.4916	3,249.02	77.5912	3,249.02	79.0031	3,249.02	75.093	3,249.02	75.3728	3,249.02	72.6682	3,249.02	72.5464	3,249.02	70.085	3,249.02	69.8226	3,249.02	67.6767	3,249.02	66.0037	3,249.02	66.3425	3,249.02	65.2448	3,249.02	64.3382	3,249.02	62.8781	3,249.02	63.3252	3,249.02	63.2002	3,249.02	58.8035	3,249.02	59.9192	3,249.02	64.6725	3,249.02	63.8706	3,249.02	59.5871	3,249.02	61.8218	3,249.02	66.1445	3,249.02	62.6234	3,249.02	60.3012	3,249.02	63.9191	3,249.02	54.3767
3,363.28	84.6954	3,363.28	84.4342	3,363.28	84.6935	3,363.28	83.7176	3,363.28	84.176	3,363.28	82.0738	3,363.28	83.2077	3,363.28	80.0294	3,363.28	81.4105	3,363.28	77.3357	3,363.28	78.6016	3,363.28	73.7548	3,363.28	75.3114	3,363.28	72.0339	3,363.28	72.4225	3,363.28	70.5846	3,363.28	69.8228	3,363.28	67.2476	3,363.28	66.5473	3,363.28	66.5904	3,363.28	64.1825	3,363.28	64.6789	3,363.28	62.6028	3,363.28	62.9649	3,363.28	62.3539	3,363.28	58.8394	3,363.28	62.1729	3,363.28	62.983	3,363.28	59.3342	3,363.28	60.7531	3,363.28	60.521	3,363.28	64.336	3,363.28	61.3779	3,363.28	59.019	3,363.28	62.2993	3,363.28	56.0374
3,481.93	84.2684	3,481.93	84.0945	3,481.93	84.1915	3,481.93	83.5189	3,481.93	83.9552	3,481.93	82.1558	3,481.93	83.1586	3,481.93	79.807	3,481.93	81.1037	3,481.93	76.9934	3,481.93	78.3338	3,481.93	73.8556	3,481.93	75.5656	3,481.93	70.8835	3,481.93	72.5967	3,481.93	68.9799	3,481.93	70.1052	3,481.93	67.4635	3,481.93	68.7177	3,481.93	66.1469	3,481.93	65.4928	3,481.93	63.1971	3,481.93	64.1729	3,481.93	62.7732	3,481.93	63.925	3,481.93	58.3562	3,481.93	61.2552	3,481.93	59.812	3,481.93	58.9558	3,481.93	62.4895	3,481.93	61.9813	3,481.93	63.1137	3,481.93	62.244	3,481.93	55.1079	3,481.93	60.3529	3,481.93	58.1687
3,604.98	84.2109	3,604.98	84.0218	3,604.98	84.0434	3,604.98	83.4349	3,604.98	84.0089	3,604.98	82.2236	3,604.98	82.9243	3,604.98	79.9107	3,604.98	80.7536	3,604.98	77.6792	3,604.98	78.2432	3,604.98	74.8874	3,604.98	75.4313	3,604.98	71.0606	3,604.98	72.5796	3,604.98	68.7524	3,604.98	70.157	3,604.98	67.9357	3,604.98	68.5504	3,604.98	65.6329	3,604.98	67.6699	3,604.98	63.5383	3,604.98	65.5819	3,604.98	62.9575	3,604.98	63.0028	3,604.98	61.5588	3,604.98	60.5817	3,604.98	59.7199	3,604.98	57.1789	3,604.98	60.4965	3,604.98	60.1363	3,604.98	63.8538	3,604.98	61.6879	3,604.98	51.6977	3,604.98	60.6222	3,604.98	56.9889
3,732.42	83.98	3,732.42	83.9803	3,732.42	84.0954	3,732.42	83.5497	3,732.42	83.8702	3,732.42	81.9254	3,732.42	82.7917	3,732.42	79.8343	3,732.42	80.8941	3,732.42	77.5824	3,732.42	78.2599	3,732.42	75.3244	3,732.42	75.5194	3,732.42	73.716	3,732.42	72.9603	3,732.42	71.3437	3,732.42	70.9522	3,732.42	68.4132	3,732.42	68.1792	3,732.42	65.7947	3,732.42	66.1981	3,732.42	63.9053	3,732.42	64.4378	3,732.42	63.1442	3,732.42	63.4635	3,732.42	61.539	3,732.42	63.8561	3,732.42	61.5842	3,732.42	56.2511	3,732.42	62.9874	3,732.42	60.4761	3,732.42	62.9294	3,732.42	61.7708	3,732.42	50.5694	3,732.42	58.7736	3,732.42	56.7973
3,864.26	84.1817	3,864.26	84.3244	3,864.26	84.4919	3,864.26	83.9313	3,864.26	84.052	3,864.26	82.0669	3,864.26	82.9758	3,864.26	80.146	3,864.26	81.0971	3,864.26	77.7649	3,864.26	78.5028	3,864.26	75.783	3,864.26	76.1492	3,864.26	74.7489	3,864.26	73.6607	3,864.26	71.9851	3,864.26	71.4093	3,864.26	68.0314	3,864.26	69.6362	3,864.26	67.0853	3,864.26	67.5807	3,864.26	64.8661	3,864.26	65.0808	3,864.26	64.1699	3,864.26	63.9529	3,864.26	59.7142	3,864.26	65.5369	3,864.26	60.6012	3,864.26	58.3575	3,864.26	62.3849	3,864.26	60.2525	3,864.26	62.5239	3,864.26	61.5212	3,864.26	54.4402	3,864.26	57.6919	3,864.26	58.9974
4,000.49	84.5872	4,000.49	84.5627	4,000.49	84.307	4,000.49	83.8221	4,000.49	84.0552	4,000.49	82.4176	4,000.49	82.9672	4,000.49	79.8785	4,000.49	80.6223	4,000.49	77.5058	4,000.49	78.6156	4,000.49	75.6736	4,000.49	76.3758	4,000.49	73.2816	4,000.49	73.8654	4,000.49	71.1799	4,000.49	71.5419	4,000.49	68.9829	4,000.49	69.4471	4,000.49	67.8387	4,000.49	67.33	4,000.49	66.0626	4,000.49	65.5089	4,000.49	65.4427	4,000.49	59.5224	4,000.49	62.9752	4,000.49	63.0081	4,000.49	59.3256	4,000.49	59.8175	4,000.49	62.1374	4,000.49	57.7748	4,000.49	62.7347	4,000.49	61.7612	4,000.49	52.2288	4,000.49	58.2995	4,000.49	57.8851
4,141.11	84.8559	4,141.11	84.735	4,141.11	84.2409	4,141.11	83.6893	4,141.11	84.2009	4,141.11	82.6302	4,141.11	82.6853	4,141.11	80.7716	4,141.11	80.6638	4,141.11	79.3149	4,141.11	78.8434	4,141.11	76.1633	4,141.11	76.4779	4,141.11	71.9008	4,141.11	74.1808	4,141.11	70.3121	4,141.11	71.571	4,141.11	69.3872	4,141.11	69.4595	4,141.11	66.6354	4,141.11	65.9928	4,141.11	64.7325	4,141.11	64.7389	4,141.11	62.9476	4,141.11	63.4614	4,141.11	62.9243	4,141.11	60.6516	4,141.11	54.6334	4,141.11	60.2222	4,141.11	60.2634	4,141.11	58.3751	4,141.11	61.9753	4,141.11	60.5691	4,141.11	52.0906	4,141.11	59.1982	4,141.11	57.9615
4,287.6	85.0331	4,287.6	84.3982	4,287.6	85.6056	4,287.6	83.7838	4,287.6	84.5882	4,287.6	82.0107	4,287.6	83.0275	4,287.6	80.9601	4,287.6	81.7106	4,287.6	79.0463	4,287.6	79.2811	4,287.6	76.0525	4,287.6	77.2412	4,287.6	74.4745	4,287.6	74.9015	4,287.6	71.6167	4,287.6	72.0376	4,287.6	68.7993	4,287.6	69.5761	4,287.6	66.6115	4,287.6	68.6033	4,287.6	66.8936	4,287.6	65.2722	4,287.6	62.4578	4,287.6	62.6586	4,287.6	62.7366	4,287.6	63.2063	4,287.6	57.4082	4,287.6	59.5851	4,287.6	63.8843	4,287.6	60.3406	4,287.6	62.1511	4,287.6	61.3142	4,287.6	58.5316	4,287.6	58.6319	4,287.6	61.8326
4,438.48	85.5803	4,438.48	85.3119	4,438.48	85.6258	4,438.48	84.6759	4,438.48	84.5846	4,438.48	83.108	4,438.48	83.5809	4,438.48	81.4296	4,438.48	81.4817	4,438.48	79.0892	4,438.48	79.3478	4,438.48	77.9371	4,438.48	77.6211	4,438.48	75.511	4,438.48	74.9508	4,438.48	71.7923	4,438.48	71.5238	4,438.48	69.4722	4,438.48	69.2277	4,438.48	67.3997	4,438.48	65.4942	4,438.48	62.9425	4,438.48	65.0947	4,438.48	62.0032	4,438.48	63.4281	4,438.48	61.8861	4,438.48	59.6602	4,438.48	60.4059	4,438.48	57.619	4,438.48	62.682	4,438.48	57.9546	4,438.48	58.642	4,438.48	63.4913	4,438.48	57.3224	4,438.48	54.9031	4,438.48	60.9266
4,595.21	85.9771	4,595.21	85.6349	4,595.21	84.8003	4,595.21	83.798	4,595.21	84.5156	4,595.21	82.7845	4,595.21	83.1413	4,595.21	80.9522	4,595.21	81.2115	4,595.21	79.3209	4,595.21	80.1084	4,595.21	76.9965	4,595.21	77.5528	4,595.21	73.5234	4,595.21	73.9855	4,595.21	70.7857	4,595.21	72.0888	4,595.21	69.2885	4,595.21	69.9316	4,595.21	66.9001	4,595.21	67.9991	4,595.21	65.4798	4,595.21	66.2051	4,595.21	63.7604	4,595.21	63.986	4,595.21	62.7671	4,595.21	63.104	4,595.21	62.0727	4,595.21	61.1134	4,595.21	61.8075	4,595.21	59.721	4,595.21	61.7656	4,595.21	60.4671	4,595.21	57.2125	4,595.21	52.1142	4,595.21	60.2821
4,756.35	85.715	4,756.35	84.6166	4,756.35	85.8532	4,756.35	83.8415	4,756.35	84.3909	4,756.35	82.6247	4,756.35	82.7253	4,756.35	82.1658	4,756.35	81.8637	4,756.35	80.3718	4,756.35	79.9704	4,756.35	75.9502	4,756.35	76.8807	4,756.35	73.2066	4,756.35	74.3399	4,756.35	71.3723	4,756.35	71.8246	4,756.35	68.9339	4,756.35	69.312	4,756.35	66.0885	4,756.35	67.062	4,756.35	63.6552	4,756.35	66.445	4,756.35	63.4447	4,756.35	64.3351	4,756.35	61.6718	4,756.35	60.7951	4,756.35	57.6377	4,756.35	59.4444	4,756.35	61.8878	4,756.35	52.5996	4,756.35	60.3409	4,756.35	60.8801	4,756.35	51.9202	4,756.35	55.2492	4,756.35	59.5382
4,924.8	85.7303	4,924.8	85.2336	4,924.8	86.0399	4,924.8	84.6279	4,924.8	84.8021	4,924.8	83.2999	4,924.8	83.5331	4,924.8	81.5248	4,924.8	82.1575	4,924.8	78.0804	4,924.8	79.8966	4,924.8	75.9447	4,924.8	77.5067	4,924.8	73.0104	4,924.8	74.7053	4,924.8	70.1313	4,924.8	71.2153	4,924.8	67.2423	4,924.8	69.7035	4,924.8	66.131	4,924.8	67.892	4,924.8	65.7345	4,924.8	66.3166	4,924.8	62.5868	4,924.8	66.0275	4,924.8	63.003	4,924.8	62.6817	4,924.8	56.4323	4,924.8	62.01	4,924.8	62.376	4,924.8	60.59	4,924.8	61.7676	4,924.8	60.6959	4,924.8	59.432	4,924.8	58.9059	4,924.8	60.8809
5,097.66	86.0499	5,097.66	85.6347	5,097.66	85.1069	5,097.66	83.935	5,097.66	84.5141	5,097.66	82.9718	5,097.66	83.3004	5,097.66	81.112	5,097.66	81.5755	5,097.66	78.8554	5,097.66	79.8522	5,097.66	76.7293	5,097.66	77.4119	5,097.66	74.0072	5,097.66	74.3255	5,097.66	70.422	5,097.66	72.1584	5,097.66	67.8932	5,097.66	69.9099	5,097.66	66.0898	5,097.66	67.1179	5,097.66	66.5267	5,097.66	64.4898	5,097.66	60.1978	5,097.66	62.3925	5,097.66	63.0333	5,097.66	63.0568	5,097.66	58.0063	5,097.66	61.5022	5,097.66	61.4122	5,097.66	60.2022	5,097.66	59.759	5,097.66	59.1521	5,097.66	60.2874	5,097.66	55.7882	5,097.66	61.919
5,277.83	86.0883	5,277.83	84.9575	5,277.83	85.8261	5,277.83	83.8551	5,277.83	84.2596	5,277.83	82.6746	5,277.83	82.8513	5,277.83	81.5564	5,277.83	81.7806	5,277.83	79.2589	5,277.83	79.7043	5,277.83	75.4957	5,277.83	77.0303	5,277.83	72.6092	5,277.83	74.7507	5,277.83	70.5294	5,277.83	72.6057	5,277.83	68.567	5,277.83	70.0938	5,277.83	65.8645	5,277.83	66.9779	5,277.83	63.5237	5,277.83	64.8715	5,277.83	63.3716	5,277.83	65.2362	5,277.83	62.8491	5,277.83	60.9759	5,277.83	60.7708	5,277.83	63.4329	5,277.83	62.517	5,277.83	57.2149	5,277.83	55.8542	5,277.83	63.5812	5,277.83	59.5423	5,277.83	51.1719	5,277.83	61.4981
5,463.87	85.5959	5,463.87	84.6127	5,463.87	85.6549	5,463.87	83.5442	5,463.87	83.8971	5,463.87	82.1369	5,463.87	82.6314	5,463.87	80.2392	5,463.87	81.6602	5,463.87	76.896	5,463.87	79.8155	5,463.87	75.2991	5,463.87	77.7696	5,463.87	73.1704	5,463.87	75.6447	5,463.87	70.7401	5,463.87	72.7916	5,463.87	68.6171	5,463.87	69.7003	5,463.87	66.0148	5,463.87	66.2621	5,463.87	63.9357	5,463.87	64.9036	5,463.87	61.1605	5,463.87	63.7211	5,463.87	62.2805	5,463.87	62.9654	5,463.87	60.1706	5,463.87	63.5688	5,463.87	61.4372	5,463.87	62.6423	5,463.87	57.872	5,463.87	62.5208	5,463.87	57.0107	5,463.87	55.5122	5,463.87	59.9023
5,657.23	85.8797	5,657.23	85.1336	5,657.23	84.7224	5,657.23	83.3307	5,657.23	83.3029	5,657.23	82.2333	5,657.23	82.1785	5,657.23	80.0608	5,657.23	80.9529	5,657.23	78.2771	5,657.23	79.8307	5,657.23	76.9823	5,657.23	77.9311	5,657.23	74.5273	5,657.23	74.7445	5,657.23	71.6334	5,657.23	72.1494	5,657.23	68.0726	5,657.23	69.8496	5,657.23	64.9488	5,657.23	67.3849	5,657.23	64.3161	5,657.23	63.4915	5,657.23	58.4036	5,657.23	63.4733	5,657.23	60.6065	5,657.23	59.2302	5,657.23	53.2238	5,657.23	60.9168	5,657.23	60.9627	5,657.23	60.2653	5,657.23	58.2233	5,657.23	62.3878	5,657.23	56.3698	5,657.23	59.9054	5,657.23	58.9535
5,856.45	85.9739	5,856.45	84.8404	5,856.45	85.6538	5,856.45	83.6374	5,856.45	84.0193	5,856.45	81.5872	5,856.45	82.7187	5,856.45	80.1548	5,856.45	81.5747	5,856.45	78.8435	5,856.45	80.0854	5,856.45	75.3988	5,856.45	77.4631	5,856.45	72.0126	5,856.45	75.2655	5,856.45	69.5047	5,856.45	72.4646	5,856.45	66.1068	5,856.45	69.5062	5,856.45	64.4128	5,856.45	66.2947	5,856.45	62.3924	5,856.45	64.5112	5,856.45	63.6416	5,856.45	63.0449	5,856.45	59.3743	5,856.45	59.2037	5,856.45	58.5899	5,856.45	58.7641	5,856.45	58.6669	5,856.45	55.4517	5,856.45	56.1916	5,856.45	60.0547	5,856.45	51.6227	5,856.45	59.5227	5,856.45	58.5322
6,062.99	86.1015	6,062.99	85.4675	6,062.99	85.6469	6,062.99	83.8941	6,062.99	84.6152	6,062.99	82.235	6,062.99	83.5261	6,062.99	80.6707	6,062.99	82.0857	6,062.99	77.8181	6,062.99	79.9773	6,062.99	75.3909	6,062.99	77.7276	6,062.99	72.6441	6,062.99	75.4535	6,062.99	68.6466	6,062.99	72.5395	6,062.99	67.3698	6,062.99	69.5885	6,062.99	64.1149	6,062.99	67.2367	6,062.99	59.6049	6,062.99	64.4923	6,062.99	58.6269	6,062.99	63.4963	6,062.99	61.1676	6,062.99	61.4692	6,062.99	56.5373	6,062.99	60.2624	6,062.99	60.6075	6,062.99	57.6788	6,062.99	50.8157	6,062.99	59.8572	6,062.99	55.5535	6,062.99	53.6031	6,062.99	57.137
6,276.86	86.1503	6,276.86	85.4703	6,276.86	85.7314	6,276.86	84.3793	6,276.86	85.0045	6,276.86	83.1286	6,276.86	83.7221	6,276.86	81.523	6,276.86	81.875	6,276.86	79.4014	6,276.86	80.1245	6,276.86	77.0497	6,276.86	77.8501	6,276.86	73.7195	6,276.86	75.2688	6,276.86	71.0731	6,276.86	71.9348	6,276.86	67.4713	6,276.86	69.4895	6,276.86	65.0183	6,276.86	66.7554	6,276.86	63.0981	6,276.86	63.0786	6,276.86	60.8622	6,276.86	61.9755	6,276.86	59.0626	6,276.86	61.169	6,276.86	55.9431	6,276.86	62.2641	6,276.86	60.9506	6,276.86	54.2851	6,276.86	52.0511	6,276.86	58.2766	6,276.86	55.8294	6,276.86	53.0832	6,276.86	56.0766
6,498.05	85.9193	6,498.05	85.6768	6,498.05	85.9424	6,498.05	85.1071	6,498.05	85.42	6,498.05	83.7283	6,498.05	83.7809	6,498.05	82.6678	6,498.05	81.8135	6,498.05	80.5413	6,498.05	80.0468	6,498.05	77.2604	6,498.05	77.7455	6,498.05	73.9797	6,498.05	74.564	6,498.05	70.6854	6,498.05	71.5968	6,498.05	67.1139	6,498.05	69.526	6,498.05	66.0017	6,498.05	66.4536	6,498.05	64.0444	6,498.05	64.1239	6,498.05	63.9202	6,498.05	63.0264	6,498.05	60.3333	6,498.05	57.7246	6,498.05	60.9684	6,498.05	60.8354	6,498.05	60.2371	6,498.05	55.2131	6,498.05	54.6139	6,498.05	58.1225	6,498.05	54.1273	6,498.05	57.676	6,498.05	48.9512
6,726.56	85.9347	6,726.56	86.0969	6,726.56	85.9354	6,726.56	85.3196	6,726.56	85.9112	6,726.56	84.1594	6,726.56	84.2025	6,726.56	82.756	6,726.56	82.1802	6,726.56	80.0295	6,726.56	80.1885	6,726.56	77.3729	6,726.56	77.4373	6,726.56	74.2285	6,726.56	74.4168	6,726.56	71.1354	6,726.56	71.9577	6,726.56	69.5074	6,726.56	69.2356	6,726.56	66.8773	6,726.56	65.8739	6,726.56	62.5406	6,726.56	63.1232	6,726.56	62.77	6,726.56	63.0898	6,726.56	60.3552	6,726.56	61.2349	6,726.56	61.096	6,726.56	62.4122	6,726.56	61.1032	6,726.56	52.4724	6,726.56	53.938	6,726.56	60.2122	6,726.56	57.6558	6,726.56	53.8867	6,726.56	55.1024
6,963.87	85.1996	6,963.87	85.4902	6,963.87	85.8037	6,963.87	84.954	6,963.87	85.7354	6,963.87	83.7053	6,963.87	83.6229	6,963.87	82.2607	6,963.87	81.9378	6,963.87	80.197	6,963.87	79.7563	6,963.87	77.7048	6,963.87	77.4287	6,963.87	74.6743	6,963.87	74.7383	6,963.87	71.5087	6,963.87	72.1669	6,963.87	68.8535	6,963.87	69.1335	6,963.87	66.1085	6,963.87	67.0764	6,963.87	63.6143	6,963.87	63.3799	6,963.87	63.2983	6,963.87	61.1247	6,963.87	58.0391	6,963.87	59.0608	6,963.87	59.0068	6,963.87	61.9406	6,963.87	60.0548	6,963.87	58.3944	6,963.87	55.4189	6,963.87	59.3339	6,963.87	59.7051	6,963.87	47.751	6,963.87	58.2514
7,209.96	84.7344	7,209.96	85.279	7,209.96	85.44	7,209.96	84.0862	7,209.96	85.4622	7,209.96	82.7385	7,209.96	82.8946	7,209.96	81.6138	7,209.96	81.1746	7,209.96	79.2897	7,209.96	79.638	7,209.96	77.2218	7,209.96	77.9499	7,209.96	74.7488	7,209.96	75.3807	7,209.96	71.2514	7,209.96	72.478	7,209.96	68.2204	7,209.96	68.7272	7,209.96	66.1931	7,209.96	65.9569	7,209.96	62.3992	7,209.96	63.5549	7,209.96	62.0331	7,209.96	58.9081	7,209.96	60.5614	7,209.96	59.1664	7,209.96	59.5151	7,209.96	59.5747	7,209.96	57.8712	7,209.96	57.0014	7,209.96	56.6668	7,209.96	60.4538	7,209.96	53.0756	7,209.96	47.4429	7,209.96	54.3359
7,464.84	85.2739	7,464.84	85.2033	7,464.84	85.6597	7,464.84	83.7437	7,464.84	85.0403	7,464.84	82.632	7,464.84	82.4904	7,464.84	80.7183	7,464.84	81.4399	7,464.84	79.0653	7,464.84	79.0083	7,464.84	76.7114	7,464.84	77.2329	7,464.84	73.1709	7,464.84	74.6973	7,464.84	69.437	7,464.84	71.0544	7,464.84	67.3372	7,464.84	67.3457	7,464.84	63.6739	7,464.84	64.3901	7,464.84	61.0469	7,464.84	61.5165	7,464.84	59.6049	7,464.84	57.884	7,464.84	57.3451	7,464.84	59.4956	7,464.84	56.6666	7,464.84	56.1947	7,464.84	54.3399	7,464.84	56.3742	7,464.84	56.6098	7,464.84	57.9014	7,464.84	52.9551	7,464.84	56.3845	7,464.84	47.1479
7,727.05	85.3369	7,727.05	85.2724	7,727.05	85.7663	7,727.05	83.819	7,727.05	85.0523	7,727.05	82.6548	7,727.05	82.6984	7,727.05	80.5791	7,727.05	81.2664	7,727.05	78.5132	7,727.05	78.7658	7,727.05	75.9687	7,727.05	77.4998	7,727.05	72.2626	7,727.05	73.919	7,727.05	68.8162	7,727.05	70.7955	7,727.05	66.684	7,727.05	66.0182	7,727.05	62.412	7,727.05	63.8636	7,727.05	59.2899	7,727.05	62.163	7,727.05	60.2623	7,727.05	58.798	7,727.05	57.917	7,727.05	55.0663	7,727.05	56.1807	7,727.05	54.1131	7,727.05	54.6005	7,727.05	55.8596	7,727.05	51.6515	7,727.05	51.9658	7,727.05	53.529	7,727.05	55.0393	7,727.05	41.6498
7,999.51	86.1034	7,999.51	85.8396	7,999.51	86.3139	7,999.51	84.4394	7,999.51	85.6262	7,999.51	82.8771	7,999.51	83.8077	7,999.51	80.1943	7,999.51	82.0604	7,999.51	79.027	7,999.51	79.6577	7,999.51	75.9337	7,999.51	77.6456	7,999.51	72.2484	7,999.51	73.3268	7,999.51	68.1243	7,999.51	70.1273	7,999.51	64.9423	7,999.51	67.0905	7,999.51	62.7911	7,999.51	62.9553	7,999.51	59.9373	7,999.51	59.3214	7,999.51	60.6752	7,999.51	55.2169	7,999.51	54.9272	7,999.51	57.6718	7,999.51	55.2047	7,999.51	56.4095	7,999.51	56.3375	7,999.51	50.8826	7,999.51	53.2115	7,999.51	55.411	7,999.51	51.8888	7,999.51	53.9901	7,999.51	40.9705
8,282.23	86.5235	8,282.23	86.3277	8,282.23	86.8058	8,282.23	85.0132	8,282.23	86.1411	8,282.23	83.4959	8,282.23	84.3651	8,282.23	81.361	8,282.23	82.6347	8,282.23	79.8764	8,282.23	80.6609	8,282.23	76.6031	8,282.23	78.7522	8,282.23	72.9002	8,282.23	74.5127	8,282.23	69.084	8,282.23	70.817	8,282.23	66.0425	8,282.23	67.1776	8,282.23	63.5395	8,282.23	64.6098	8,282.23	60.5409	8,282.23	61.6499	8,282.23	60.9984	8,282.23	60.7332	8,282.23	56.5444	8,282.23	59.1794	8,282.23	55.8083	8,282.23	55.7601	8,282.23	55.07	8,282.23	51.3294	8,282.23	52.369	8,282.23	52.876	8,282.23	48.1951	8,282.23	56.388	8,282.23	44.0524
8,573.73	87.0449	8,573.73	86.4779	8,573.73	87.0987	8,573.73	85.121	8,573.73	86.2654	8,573.73	83.3286	8,573.73	84.7448	8,573.73	81.4513	8,573.73	82.8937	8,573.73	80.4889	8,573.73	81.3601	8,573.73	77.1128	8,573.73	78.8254	8,573.73	73.1674	8,573.73	74.8768	8,573.73	68.0902	8,573.73	71.0823	8,573.73	66.2017	8,573.73	68.038	8,573.73	64.2401	8,573.73	64.912	8,573.73	62.7925	8,573.73	62.5035	8,573.73	61.5888	8,573.73	59.1999	8,573.73	54.7931	8,573.73	59.8829	8,573.73	55.6883	8,573.73	59.0877	8,573.73	56.0815	8,573.73	47.5599	8,573.73	55.2798	8,573.73	54.5275	8,573.73	54.1869	8,573.73	56.8844	8,573.73	36.9783
8,876.95	86.8738	8,876.95	86.2204	8,876.95	86.8109	8,876.95	84.6318	8,876.95	85.9823	8,876.95	82.9854	8,876.95	84.3439	8,876.95	82.0113	8,876.95	82.7456	8,876.95	80.1775	8,876.95	81.5481	8,876.95	76.4901	8,876.95	78.771	8,876.95	72.2426	8,876.95	74.8792	8,876.95	68.7994	8,876.95	70.8804	8,876.95	65.3141	8,876.95	67.7957	8,876.95	63.4248	8,876.95	63.4645	8,876.95	61.0945	8,876.95	62.6249	8,876.95	60.4858	8,876.95	59.3977	8,876.95	53.7044	8,876.95	59.056	8,876.95	55.1206	8,876.95	59.0678	8,876.95	54.3589	8,876.95	50.293	8,876.95	53.2028	8,876.95	53.2735	8,876.95	53.6719	8,876.95	58.2191	8,876.95	45.306
9,188.96	86.3013	9,188.96	85.5274	9,188.96	86.2063	9,188.96	84.346	9,188.96	85.3677	9,188.96	82.8984	9,188.96	84.2451	9,188.96	82.0293	9,188.96	83.0339	9,188.96	79.4703	9,188.96	81.6178	9,188.96	76.3313	9,188.96	78.3441	9,188.96	72.5534	9,188.96	74.995	9,188.96	68.75	9,188.96	70.6529	9,188.96	66.0638	9,188.96	68.7493	9,188.96	60.8175	9,188.96	64.6244	9,188.96	62.549	9,188.96	62.3711	9,188.96	57.9204	9,188.96	57.8477	9,188.96	53.4839	9,188.96	59.0603	9,188.96	57.3422	9,188.96	57.509	9,188.96	54.5941	9,188.96	47.7424	9,188.96	49.09	9,188.96	53.7055	9,188.96	55.2714	9,188.96	58.9479	9,188.96	46.6725
9,514.16	85.5858	9,514.16	85.0223	9,514.16	85.3159	9,514.16	83.8857	9,514.16	84.9474	9,514.16	82.7762	9,514.16	84.0797	9,514.16	81.8345	9,514.16	83.3195	9,514.16	78.6504	9,514.16	81.2519	9,514.16	76.189	9,514.16	78.2109	9,514.16	72.3517	9,514.16	74.8172	9,514.16	67.8874	9,514.16	71.0112	9,514.16	65.5895	9,514.16	68.5053	9,514.16	62.201	9,514.16	64.1993	9,514.16	61.7728	9,514.16	63.9446	9,514.16	56.3117	9,514.16	60.9393	9,514.16	57.1209	9,514.16	61.1992	9,514.16	56.0533	9,514.16	55.0729	9,514.16	50.9299	9,514.16	42.0379	9,514.16	49.2686	9,514.16	55.6777	9,514.16	50.824	9,514.16	58.5087	9,514.16	51.4235
9,849.61	85.6917	9,849.61	85.0397	9,849.61	85.3528	9,849.61	83.8217	9,849.61	84.7419	9,849.61	82.9601	9,849.61	83.9261	9,849.61	81.8169	9,849.61	83.2802	9,849.61	78.8979	9,849.61	80.8671	9,849.61	76.1539	9,849.61	78.6361	9,849.61	72.2451	9,849.61	74.7311	9,849.61	68.0024	9,849.61	70.9066	9,849.61	66.7001	9,849.61	68.5188	9,849.61	61.923	9,849.61	64.8861	9,849.61	60.6814	9,849.61	62.7925	9,849.61	54.6328	9,849.61	61.0661	9,849.61	55.1181	9,849.61	60.0067	9,849.61	55.8661	9,849.61	56.9254	9,849.61	52.4447	9,849.61	44.5	9,849.61	42.8676	9,849.61	56.444	9,849.61	50.1739	9,849.61	58.6686	9,849.61	53.7775
10,196.8	86.2748	10,196.8	85.4943	10,196.8	85.9675	10,196.8	83.8833	10,196.8	85.0909	10,196.8	83.4874	10,196.8	84.1666	10,196.8	81.9377	10,196.8	83.4606	10,196.8	79.2341	10,196.8	80.7778	10,196.8	76.3235	10,196.8	78.6941	10,196.8	72.6191	10,196.8	74.8781	10,196.8	68.0802	10,196.8	71.8745	10,196.8	66.3299	10,196.8	67.7066	10,196.8	63.2424	10,196.8	64.3858	10,196.8	59.3945	10,196.8	61.3039	10,196.8	56.522	10,196.8	60.9883	10,196.8	56.8874	10,196.8	60.1337	10,196.8	54.5163	10,196.8	55.3061	10,196.8	48.4072	10,196.8	47.8003	10,196.8	51.8744	10,196.8	47.2446	10,196.8	38.9073	10,196.8	58.5772	10,196.8	53.9095
10,555.7	86.2473	10,555.7	85.4629	10,555.7	86.2368	10,555.7	84.1088	10,555.7	85.3229	10,555.7	83.591	10,555.7	84.3828	10,555.7	81.4536	10,555.7	83.6927	10,555.7	79.2809	10,555.7	81.0771	10,555.7	76.2642	10,555.7	78.5872	10,555.7	73.4298	10,555.7	75.4336	10,555.7	68.6535	10,555.7	71.8573	10,555.7	65.8923	10,555.7	67.2949	10,555.7	62.292	10,555.7	64.5208	10,555.7	59.2279	10,555.7	61.0031	10,555.7	56.6308	10,555.7	60.2109	10,555.7	54.9123	10,555.7	58.7133	10,555.7	54.1598	10,555.7	53.554	10,555.7	47.6247	10,555.7	49.2436	10,555.7	51.3194	10,555.7	54.7027	10,555.7	41.4752	10,555.7	58.0034	10,555.7	53.6478
10,927.7	85.7792	10,927.7	85.2245	10,927.7	85.9048	10,927.7	84.213	10,927.7	85.1533	10,927.7	83.7723	10,927.7	84.5094	10,927.7	81.2952	10,927.7	83.6072	10,927.7	78.8312	10,927.7	80.9487	10,927.7	75.8021	10,927.7	78.3417	10,927.7	71.8204	10,927.7	75.2094	10,927.7	66.668	10,927.7	71.104	10,927.7	62.8171	10,927.7	67.0062	10,927.7	60.3055	10,927.7	63.2273	10,927.7	58.7005	10,927.7	60.7359	10,927.7	54.6747	10,927.7	60.5289	10,927.7	54.0051	10,927.7	57.546	10,927.7	50.1681	10,927.7	54.2517	10,927.7	39.0915	10,927.7	44.0252	10,927.7	45.3696	10,927.7	48.6267	10,927.7	36.6262	10,927.7	55.515	10,927.7	52.6368
11,313	85.3584	11,313	85.0354	11,313	85.4338	11,313	84.4364	11,313	84.8632	11,313	83.6491	11,313	84.2933	11,313	80.6784	11,313	83.0786	11,313	77.5012	11,313	80.084	11,313	74.1262	11,313	77.4935	11,313	68.9986	11,313	74.0438	11,313	63.8576	11,313	69.5095	11,313	59.8204	11,313	66.7403	11,313	57.3774	11,313	62.8911	11,313	57.5805	11,313	60.4472	11,313	52.693	11,313	59.6791	11,313	52.6623	11,313	56.3211	11,313	46.794	11,313	53.8514	11,313	37.0231	11,313	46.6452	11,313	44.0625	11,313	48.0073	11,313	45.7	11,313	53.727	11,313	49.3442
11,712.9	85.4186	11,712.9	85.4699	11,712.9	85.0152	11,712.9	84.828	11,712.9	84.0394	11,712.9	83.3038	11,712.9	83.3038	11,712.9	79.4539	11,712.9	81.3797	11,712.9	76.5436	11,712.9	78.6035	11,712.9	73.1783	11,712.9	76.3771	11,712.9	68.5471	11,712.9	72.9061	11,712.9	64.9984	11,712.9	68.732	11,712.9	62.7844	11,712.9	64.9594	11,712.9	60.206	11,712.9	61.8041	11,712.9	58.5771	11,712.9	60.4041	11,712.9	52.5774	11,712.9	57.0558	11,712.9	51.4033	11,712.9	54.8471	11,712.9	49.5002	11,712.9	53.6848	11,712.9	44.8391	11,712.9	42.476	11,712.9	38.3173	11,712.9	46.1307	11,712.9	36.3677	11,712.9	50.9773	11,712.9	46.1347
12,126	85.8589	12,126	85.5635	12,126	85.0246	12,126	84.7305	12,126	83.6586	12,126	82.8533	12,126	82.8719	12,126	79.3323	12,126	80.4669	12,126	77.6148	12,126	78.7191	12,126	74.6435	12,126	76.5255	12,126	71.4011	12,126	72.8266	12,126	67.834	12,126	69.8595	12,126	65.1537	12,126	65.262	12,126	60.8777	12,126	62.9661	12,126	58.5891	12,126	60.5781	12,126	52.8355	12,126	58.0158	12,126	52.0413	12,126	54.9876	12,126	49.4028	12,126	50.8558	12,126	51.6031	12,126	45.1838	12,126	36.1724	12,126	50.3047	12,126	40.2083	12,126	47.0171	12,126	50.5032
12,553.7	86.206	12,553.7	85.2431	12,553.7	85.6428	12,553.7	84.338	12,553.7	84.7116	12,553.7	82.5659	12,553.7	84.0155	12,553.7	80.1585	12,553.7	81.4959	12,553.7	78.1272	12,553.7	79.8032	12,553.7	75.217	12,553.7	76.6924	12,553.7	72.3232	12,553.7	73.3945	12,553.7	68.2955	12,553.7	71.0611	12,553.7	64.1956	12,553.7	65.4277	12,553.7	60.8437	12,553.7	63.3473	12,553.7	57.4264	12,553.7	60.1056	12,553.7	52.5473	12,553.7	58.5179	12,553.7	53.304	12,553.7	55.3236	12,553.7	47.5208	12,553.7	50.6895	12,553.7	51.6363	12,553.7	46.0462	12,553.7	35.0544	12,553.7	51.9956	12,553.7	42.1139	12,553.7	50.2604	12,553.7	50.5133
12,996.1	86.2036	12,996.1	85.1321	12,996.1	85.7103	12,996.1	84.4238	12,996.1	84.9308	12,996.1	82.2898	12,996.1	84.0936	12,996.1	80.128	12,996.1	81.5786	12,996.1	76.9683	12,996.1	79.405	12,996.1	74.3459	12,996.1	76.0247	12,996.1	70.8379	12,996.1	73.4231	12,996.1	66.9795	12,996.1	70.1964	12,996.1	61.6718	12,996.1	64.6101	12,996.1	60.0003	12,996.1	62.9289	12,996.1	56.3967	12,996.1	59.1655	12,996.1	55.0189	12,996.1	58.9633	12,996.1	51.9337	12,996.1	55.7021	12,996.1	46.8194	12,996.1	52.6432	12,996.1	50.7625	12,996.1	47.7706	12,996.1	41.0489	12,996.1	52.6761	12,996.1	47.8213	12,996.1	51.2798	12,996.1	50.0776
13,454.6	86.0252	13,454.6	85.0121	13,454.6	85.3228	13,454.6	84.237	13,454.6	84.7489	13,454.6	81.6119	13,454.6	83.5825	13,454.6	79.5927	13,454.6	81.4118	13,454.6	76.6955	13,454.6	78.7452	13,454.6	74.7984	13,454.6	75.886	13,454.6	70.3188	13,454.6	73.2578	13,454.6	67.0516	13,454.6	69.8575	13,454.6	62.351	13,454.6	64.3422	13,454.6	59.8014	13,454.6	62.303	13,454.6	58.2712	13,454.6	57.0959	13,454.6	55.5307	13,454.6	59.386	13,454.6	52.4486	13,454.6	53.1532	13,454.6	43.8227	13,454.6	52.0976	13,454.6	49.2229	13,454.6	50.0372	13,454.6	34.2577	13,454.6	48.3996	13,454.6	49.0176	13,454.6	49.8959	13,454.6	54.4968
13,929.2	85.3999	13,929.2	84.6151	13,929.2	84.6748	13,929.2	84.0333	13,929.2	84.425	13,929.2	81.756	13,929.2	83.1552	13,929.2	79.9193	13,929.2	81.6106	13,929.2	77.4752	13,929.2	78.4722	13,929.2	75.1536	13,929.2	76.3298	13,929.2	70.3027	13,929.2	73.1778	13,929.2	66.7507	13,929.2	70.0541	13,929.2	62.2653	13,929.2	64.4268	13,929.2	59.5198	13,929.2	60.8913	13,929.2	58.1298	13,929.2	57.7975	13,929.2	55.1962	13,929.2	58.0012	13,929.2	53.5271	13,929.2	54.4755	13,929.2	48.3418	13,929.2	53.8393	13,929.2	47.2195	13,929.2	50.8705	13,929.2	42.2824	13,929.2	49.8398	13,929.2	49.2283	13,929.2	49.5053	13,929.2	56.999
14,419.9	84.3938	14,419.9	84.098	14,419.9	84.1718	14,419.9	83.8484	14,419.9	84.2377	14,419.9	81.7506	14,419.9	82.7208	14,419.9	79.4013	14,419.9	81.7795	14,419.9	77.4843	14,419.9	78.2363	14,419.9	74.5797	14,419.9	76.2783	14,419.9	69.6254	14,419.9	73.2354	14,419.9	66.4535	14,419.9	69.5205	14,419.9	62.1297	14,419.9	64.656	14,419.9	57.7776	14,419.9	59.8751	14,419.9	58.434	14,419.9	59.1425	14,419.9	54.5961	14,419.9	59.3425	14,419.9	51.7079	14,419.9	52.393	14,419.9	46.5266	14,419.9	48.3897	14,419.9	47.8548	14,419.9	48.2062	14,419.9	49.0723	14,419.9	49.1567	14,419.9	46.1156	14,419.9	50.1661	14,419.9	57.1443
14,928.2	83.6535	14,928.2	84.2999	14,928.2	84.3469	14,928.2	83.3956	14,928.2	84.2582	14,928.2	81.3276	14,928.2	82.4418	14,928.2	78.0252	14,928.2	81.3488	14,928.2	76.9202	14,928.2	78.1891	14,928.2	74.5587	14,928.2	75.713	14,928.2	69.4903	14,928.2	72.9578	14,928.2	66.9976	14,928.2	69.0664	14,928.2	62.3783	14,928.2	65.5519	14,928.2	57.9064	14,928.2	60.5903	14,928.2	58.7584	14,928.2	59.8269	14,928.2	54.2649	14,928.2	59.269	14,928.2	50.1898	14,928.2	48.5669	14,928.2	51.0286	14,928.2	44.5403	14,928.2	46.927	14,928.2	47.1725	14,928.2	47.8801	14,928.2	48.9115	14,928.2	49.7938	14,928.2	53.0493	14,928.2	58.2976
15,455.6	83.4244	15,455.6	84.6228	15,455.6	84.5829	15,455.6	83.1737	15,455.6	84.3153	15,455.6	81.5156	15,455.6	82.5651	15,455.6	78.7624	15,455.6	80.8035	15,455.6	76.8553	15,455.6	78.9176	15,455.6	75.6326	15,455.6	75.8481	15,455.6	70.2463	15,455.6	72.8026	15,455.6	66.5362	15,455.6	69.4929	15,455.6	62.0751	15,455.6	64.8022	15,455.6	56.2359	15,455.6	61.0746	15,455.6	57.8267	15,455.6	59.6523	15,455.6	50.6086	15,455.6	56.2914	15,455.6	45.0289	15,455.6	45.0533	15,455.6	49.9376	15,455.6	44.5378	15,455.6	45.1564	15,455.6	44.5414	15,455.6	42.3382	15,455.6	46.5217	15,455.6	51.415	15,455.6	51.7706	15,455.6	55.718
16,000.5	84.2027	16,000.5	84.8987	16,000.5	84.9617	16,000.5	83.2069	16,000.5	84.1743	16,000.5	81.683	16,000.5	82.5738	16,000.5	79.6912	16,000.5	80.5807	16,000.5	76.7509	16,000.5	78.9594	16,000.5	75.0611	16,000.5	76.0722	16,000.5	68.6473	16,000.5	72.1391	16,000.5	63.6626	16,000.5	68.79	16,000.5	61.3317	16,000.5	62.7123	16,000.5	53.1233	16,000.5	61.1028	16,000.5	52.6548	16,000.5	57.7715	16,000.5	40.5638	16,000.5	52.0877	16,000.5	36.4364	16,000.5	45.8801	16,000.5	49.8504	16,000.5	48.0543	16,000.5	42.8926	16,000.5	47.0944	16,000.5	43.1459	16,000.5	49.5471	16,000.5	55.7826	16,000.5	50.5929	16,000.5	36.3545
16,564.5	84.7803	16,564.5	84.7597	16,564.5	84.9485	16,564.5	83.1296	16,564.5	83.8307	16,564.5	81.6249	16,564.5	82.6402	16,564.5	79.2119	16,564.5	80.8042	16,564.5	76.2164	16,564.5	78.8941	16,564.5	72.9826	16,564.5	76.1311	16,564.5	67.6602	16,564.5	72.1198	16,564.5	62.8375	16,564.5	68.1275	16,564.5	61.1687	16,564.5	61.8732	16,564.5	52.8277	16,564.5	61.0891	16,564.5	52.5184	16,564.5	55.0923	16,564.5	48.2417	16,564.5	54.7111	16,564.5	21.2541	16,564.5	49.476	16,564.5	42.9869	16,564.5	50.2161	16,564.5	42.5793	16,564.5	47.8433	16,564.5	49.3599	16,564.5	51.3167	16,564.5	56.1199	16,564.5	43.8117	16,564.5	51.1328
17,148.9	84.8532	17,148.9	84.7739	17,148.9	84.7158	17,148.9	83.2401	17,148.9	83.4794	17,148.9	81.4601	17,148.9	82.5965	17,148.9	79.1641	17,148.9	80.9046	17,148.9	75.7565	17,148.9	78.6664	17,148.9	73.0271	17,148.9	76.408	17,148.9	67.6892	17,148.9	72.1785	17,148.9	61.697	17,148.9	68.4044	17,148.9	60.8913	17,148.9	62.416	17,148.9	49.8031	17,148.9	59.3205	17,148.9	53.8801	17,148.9	54.3525	17,148.9	49.2084	17,148.9	54.4642	17,148.9	39.4294	17,148.9	50.8851	17,148.9	37.0751	17,148.9	49.5282	17,148.9	51.392	17,148.9	51.5919	17,148.9	48.9732	17,148.9	47.508	17,148.9	58.5663	17,148.9	51.3875	17,148.9	55.192
17,752.4	84.5462	17,752.4	84.4411	17,752.4	84.4998	17,752.4	82.9841	17,752.4	83.4426	17,752.4	81.4632	17,752.4	82.7252	17,752.4	79.2519	17,752.4	81.0212	17,752.4	75.5656	17,752.4	78.2903	17,752.4	72.8124	17,752.4	75.9726	17,752.4	68.1807	17,752.4	71.2873	17,752.4	59.9146	17,752.4	67.0956	17,752.4	60.6181	17,752.4	61.0761	17,752.4	50.0322	17,752.4	56.8888	17,752.4	52.9455	17,752.4	53.7297	17,752.4	48.789	17,752.4	53.8154	17,752.4	47.8505	17,752.4	50.3255	17,752.4	46.7693	17,752.4	49.7734	17,752.4	53.1755	17,752.4	53.0141	17,752.4	51.2608	17,752.4	51.6268	17,752.4	61.0648	17,752.4	56.8502	17,752.4	56.2664
18,379.4	83.5349	18,379.4	83.557	18,379.4	83.4535	18,379.4	82.4944	18,379.4	82.7705	18,379.4	81.3162	18,379.4	82.506	18,379.4	78.8343	18,379.4	80.7764	18,379.4	75.1767	18,379.4	77.6354	18,379.4	72.8979	18,379.4	75.2495	18,379.4	68.7543	18,379.4	71.1162	18,379.4	62.4571	18,379.4	65.176	18,379.4	60.8892	18,379.4	59.8481	18,379.4	55.5587	18,379.4	57.845	18,379.4	52.8082	18,379.4	53.3093	18,379.4	47.8869	18,379.4	55.4377	18,379.4	50.1315	18,379.4	52.0236	18,379.4	48.184	18,379.4	50.186	18,379.4	55.4423	18,379.4	54.9109	18,379.4	56.0445	18,379.4	55.6721	18,379.4	62.7151	18,379.4	59.4026	18,379.4	57.5411
19,026.9	82.5682	19,026.9	82.7803	19,026.9	82.3912	19,026.9	81.7297	19,026.9	82.1163	19,026.9	80.3615	19,026.9	81.6197	19,026.9	77.6286	19,026.9	79.9254	19,026.9	73.9547	19,026.9	76.5432	19,026.9	71.6381	19,026.9	74.4839	19,026.9	68.8752	19,026.9	69.7745	19,026.9	62.9644	19,026.9	66.3229	19,026.9	58.9796	19,026.9	59.7497	19,026.9	56.8824	19,026.9	58.537	19,026.9	52.7818	19,026.9	53.0405	19,026.9	47.934	19,026.9	55.5768	19,026.9	49.6568	19,026.9	51.0942	19,026.9	48.03	19,026.9	49.2579	19,026.9	56.2746	19,026.9	55.7357	19,026.9	56.5684	19,026.9	56.7184	19,026.9	62.9996	19,026.9	59.661	19,026.9	57.7717
19,697.8	81.1	19,697.8	82.1877	19,697.8	80.6322	19,697.8	81.4038	19,697.8	81.4772	19,697.8	79.6804	19,697.8	81.2168	19,697.8	76.7816	19,697.8	79.4984	19,697.8	73.4305	19,697.8	76.015	19,697.8	70.2733	19,697.8	73.7565	19,697.8	69.2313	19,697.8	69.7756	19,697.8	63.3138	19,697.8	66.511	19,697.8	57.2452	19,697.8	57.2907	19,697.8	57.5487	19,697.8	57.7238	19,697.8	51.1565	19,697.8	50.7278	19,697.8	48.8513	19,697.8	54.3759	19,697.8	49.379	19,697.8	51.8282	19,697.8	51.8367	19,697.8	48.0278	19,697.8	56.7737	19,697.8	56.6493	19,697.8	57.9666	19,697.8	57.7546	19,697.8	63.4213	19,697.8	59.704	19,697.8	57.6744
19,999.5	80.5125	19,999.5	81.9372	19,999.5	79.893	19,999.5	81.1777	19,999.5	81.0291	19,999.5	79.2661	19,999.5	80.9893	19,999.5	76.4989	19,999.5	79.1569	19,999.5	73.1844	19,999.5	76.1632	19,999.5	70.1745	19,999.5	73.4541	19,999.5	69.4952	19,999.5	70.1518	19,999.5	63.8832	19,999.5	65.0303	19,999.5	56.3564	19,999.5	54.601	19,999.5	59.2464	19,999.5	57.4133	19,999.5	47.3895	19,999.5	51.5021	19,999.5	52.6366	19,999.5	55.4456	19,999.5	45.0075	19,999.5	50.6986	19,999.5	45.2671	19,999.5	49.7392	19,999.5	59.7904	19,999.5	59.8711	19,999.5	58.8644	19,999.5	60.664	19,999.5	62.8128	19,999.5	58.0893	19,999.5	58.9982
