"SPL Vertical"																																																																							
"On-Axis"		"10°"		"-10°"		"20°"		"-20°"		"30°"		"-30°"		"40°"		"-40°"		"50°"		"-50°"		"60°"		"-60°"		"70°"		"-70°"		"80°"		"-80°"		"90°"		"-90°"		"100°"		"-100°"		"110°"		"-110°"		"120°"		"-120°"		"130°"		"-130°"		"140°"		"-140°"		"150°"		"-150°"		"160°"		"-160°"		"170°"		"-170°"		"180°"	
"Frequency [Hz]"	"Sound Pessure Level [dB]  / [2.83V 1m] "	"Frequency [Hz]"	"Sound Pessure Level [dB]  / [2.83V 1m] "	"Frequency [Hz]"	"Sound Pessure Level [dB]  / [2.83V 1m] "	"Frequency [Hz]"	"Sound Pessure Level [dB]  / [2.83V 1m] "	"Frequency [Hz]"	"Sound Pessure Level [dB]  / [2.83V 1m] "	"Frequency [Hz]"	"Sound Pessure Level [dB]  / [2.83V 1m] "	"Frequency [Hz]"	"Sound Pessure Level [dB]  / [2.83V 1m] "	"Frequency [Hz]"	"Sound Pessure Level [dB]  / [2.83V 1m] "	"Frequency [Hz]"	"Sound Pessure Level [dB]  / [2.83V 1m] "	"Frequency [Hz]"	"Sound Pessure Level [dB]  / [2.83V 1m] "	"Frequency [Hz]"	"Sound Pessure Level [dB]  / [2.83V 1m] "	"Frequency [Hz]"	"Sound Pessure Level [dB]  / [2.83V 1m] "	"Frequency [Hz]"	"Sound Pessure Level [dB]  / [2.83V 1m] "	"Frequency [Hz]"	"Sound Pessure Level [dB]  / [2.83V 1m] "	"Frequency [Hz]"	"Sound Pessure Level [dB]  / [2.83V 1m] "	"Frequency [Hz]"	"Sound Pessure Level [dB]  / [2.83V 1m] "	"Frequency [Hz]"	"Sound Pessure Level [dB]  / [2.83V 1m] "	"Frequency [Hz]"	"Sound Pessure Level [dB]  / [2.83V 1m] "	"Frequency [Hz]"	"Sound Pessure Level [dB]  / [2.83V 1m] "	"Frequency [Hz]"	"Sound Pessure Level [dB]  / [2.83V 1m] "	"Frequency [Hz]"	"Sound Pessure Level [dB]  / [2.83V 1m] "	"Frequency [Hz]"	"Sound Pessure Level [dB]  / [2.83V 1m] "	"Frequency [Hz]"	"Sound Pessure Level [dB]  / [2.83V 1m] "	"Frequency [Hz]"	"Sound Pessure Level [dB]  / [2.83V 1m] "	"Frequency [Hz]"	"Sound Pessure Level [dB]  / [2.83V 1m] "	"Frequency [Hz]"	"Sound Pessure Level [dB]  / [2.83V 1m] "	"Frequency [Hz]"	"Sound Pessure Level [dB]  / [2.83V 1m] "	"Frequency [Hz]"	"Sound Pessure Level [dB]  / [2.83V 1m] "	"Frequency [Hz]"	"Sound Pessure Level [dB]  / [2.83V 1m] "	"Frequency [Hz]"	"Sound Pessure Level [dB]  / [2.83V 1m] "	"Frequency [Hz]"	"Sound Pessure Level [dB]  / [2.83V 1m] "	"Frequency [Hz]"	"Sound Pessure Level [dB]  / [2.83V 1m] "	"Frequency [Hz]"	"Sound Pessure Level [dB]  / [2.83V 1m] "	"Frequency [Hz]"	"Sound Pessure Level [dB]  / [2.83V 1m] "	"Frequency [Hz]"	"Sound Pessure Level [dB]  / [2.83V 1m] "	"Frequency [Hz]"	"Sound Pessure Level [dB]  / [2.83V 1m] "
20.5078	48.5414	20.5078	48.0745	20.5078	48.6829	20.5078	47.2338	20.5078	48.5128	20.5078	45.9224	20.5078	48.0147	20.5078	43.9716	20.5078	47.1374	20.5078	41.1778	20.5078	45.7825	20.5078	38.2721	20.5078	43.7871	20.5078	39.6228	20.5078	41.0141	20.5078	43.7765	20.5078	38.5682	20.5078	47.3021	20.5078	40.4342	20.5078	50.0285	20.5078	44.4139	20.5078	52.1672	20.5078	47.7717	20.5078	53.8622	20.5078	50.3962	20.5078	55.1958	20.5078	52.4678	20.5078	56.2133	20.5078	54.1113	20.5078	56.9381	20.5078	55.3987	20.5078	57.3815	20.5078	56.3697	20.5078	57.5474	20.5078	57.0453	20.5078	57.4361
21.9727	47.9928	21.9727	47.4726	21.9727	48.1504	21.9727	46.5594	21.9727	47.9565	21.9727	45.236	21.9727	47.3995	21.9727	43.6592	21.9727	46.4516	21.9727	42.6892	21.9727	45.1098	21.9727	43.7699	21.9727	43.5872	21.9727	46.4013	21.9727	42.8431	21.9727	49.174	21.9727	44.1589	21.9727	51.6045	21.9727	46.8109	21.9727	53.6527	21.9727	49.5237	21.9727	55.3618	21.9727	51.8962	21.9727	56.7734	21.9727	53.8998	21.9727	57.9151	21.9727	55.5737	21.9727	58.8022	21.9727	56.9546	21.9727	59.4413	21.9727	58.066	21.9727	59.8339	21.9727	58.9204	21.9727	59.9792	21.9727	59.5231	21.9727	59.8758
23.4375	50.1134	23.4375	49.7301	23.4375	50.2266	23.4375	49.0917	23.4375	50.0692	23.4375	48.2709	23.4375	49.6456	23.4375	47.5072	23.4375	48.9796	23.4375	47.3231	23.4375	48.1654	23.4375	48.2175	23.4375	47.482	23.4375	49.9994	23.4375	47.4684	23.4375	52.0775	23.4375	48.5239	23.4375	54.0767	23.4375	50.3596	23.4375	55.8636	23.4375	52.4179	23.4375	57.4088	23.4375	54.3763	23.4375	58.7133	23.4375	56.123	23.4375	59.7832	23.4375	57.6324	23.4375	60.6222	23.4375	58.9042	23.4375	61.2303	23.4375	59.9414	23.4375	61.6057	23.4375	60.7454	23.4375	61.7459	23.4375	61.3153	23.4375	61.6492
24.9023	52.6551	24.9023	52.3984	24.9023	52.7374	24.9023	52.0051	24.9023	52.6371	24.9023	51.5697	24.9023	52.367	24.9023	51.2835	24.9023	51.9715	24.9023	51.4237	24.9023	51.5551	24.9023	52.1883	24.9023	51.3183	24.9023	53.4992	24.9023	51.5323	24.9023	55.0877	24.9023	52.363	24.9023	56.7144	24.9023	53.7056	24.9023	58.2437	24.9023	55.2956	24.9023	59.6139	24.9023	56.9097	24.9023	60.7991	24.9023	58.4225	24.9023	61.787	24.9023	59.7757	24.9023	62.57	24.9023	60.9429	24.9023	63.1412	24.9023	61.9103	24.9023	63.4945	24.9023	62.6686	24.9023	63.6251	24.9023	63.2104	24.9023	63.5303
26.3672	55.6098	26.3672	55.4279	26.3672	55.6784	26.3672	55.1722	26.3672	55.6224	26.3672	54.9243	26.3672	55.4529	26.3672	54.8209	26.3672	55.2076	26.3672	55.032	26.3672	54.9648	26.3672	55.6735	26.3672	54.8545	26.3672	56.7168	26.3672	55.0408	26.3672	58.012	26.3672	55.6425	26.3672	59.3918	26.3672	56.6443	26.3672	60.7349	26.3672	57.9089	26.3672	61.9694	26.3672	59.2734	26.3672	63.0553	26.3672	60.6149	26.3672	63.9691	26.3672	61.8578	26.3672	64.6948	26.3672	62.9588	26.3672	65.2202	26.3672	63.8914	26.3672	65.536	26.3672	64.6371	26.3672	65.6359	26.3672	65.1825	26.3672	65.5175
27.832	58.6229	27.832	58.5048	27.832	58.6739	27.832	58.3537	27.832	58.6463	27.832	58.2327	27.832	58.5489	27.832	58.2352	27.832	58.412	27.832	58.4675	27.832	58.2931	27.832	59.0032	27.832	58.2792	27.832	59.8378	27.832	58.4733	27.832	60.8901	27.832	58.9552	27.832	62.048	27.832	59.7352	27.832	63.2123	27.832	60.7459	27.832	64.3113	27.832	61.8817	27.832	65.2976	27.832	63.0422	27.832	66.1393	27.832	64.1516	27.832	66.8139	27.832	65.1578	27.832	67.3043	27.832	66.0251	27.832	67.5983	27.832	66.7279	27.832	67.6878	27.832	67.2473	27.832	67.5699
29.2969	61.5689	29.2969	61.5021	29.2969	61.5978	29.2969	61.4242	29.2969	61.5793	29.2969	61.3815	29.2969	61.5206	29.2969	61.4386	29.2969	61.4458	29.2969	61.666	29.2969	61.3978	29.2969	62.1156	29.2969	61.4379	29.2969	62.7942	29.2969	61.6355	29.2969	63.6583	29.2969	62.0462	29.2969	64.6332	29.2969	62.6852	29.2969	65.6409	29.2969	63.5177	29.2969	66.6156	29.2969	64.4749	29.2969	67.5076	29.2969	65.4795	29.2969	68.2801	29.2969	66.4635	29.2969	68.9058	29.2969	67.3739	29.2969	69.3641	29.2969	68.1705	29.2969	69.64	29.2969	68.8232	29.2969	69.724	29.2969	69.3093	29.2969	69.6128
30.7617	64.2544	30.7617	64.2136	30.7617	64.2711	30.7617	64.1699	30.7617	64.256	30.7617	64.1584	30.7617	64.2144	30.7617	64.2267	30.7617	64.1648	30.7617	64.4271	30.7617	64.1398	30.7617	64.8009	30.7617	64.1852	30.7617	65.361	30.7617	64.3535	30.7617	66.0841	30.7617	64.6899	30.7617	66.9189	30.7617	65.2142	30.7617	67.8029	30.7617	65.9106	30.7617	68.6765	30.7617	66.7323	30.7617	69.4901	30.7617	67.6175	30.7617	70.2043	30.7617	68.5047	30.7617	70.7884	30.7617	69.3409	30.7617	71.2187	30.7617	70.083	30.7617	71.4782	30.7617	70.6974	30.7617	71.556	30.7617	71.1586	30.7617	71.4484
32.2266	66.6343	32.2266	66.6131	32.2266	66.6429	32.2266	66.5965	32.2266	66.6327	32.2266	66.6128	32.2266	66.6081	32.2266	66.6991	32.2266	66.5844	32.2266	66.896	32.2266	66.588	32.2266	67.2359	32.2266	66.655	32.2266	67.7317	32.2266	66.826	32.2266	68.369	32.2266	67.1362	32.2266	69.1103	32.2266	67.603	32.2266	69.9048	32.2266	68.2176	32.2266	70.7006	32.2266	68.9464	32.2266	71.4508	32.2266	69.7404	32.2266	72.116	32.2266	70.5465	32.2266	72.6643	32.2266	71.3156	32.2266	73.0706	32.2266	72.0052	32.2266	73.3166	32.2266	72.5807	32.2266	73.3908	32.2266	73.0152	32.2266	73.2891
33.6914	68.9967	33.6914	68.9922	33.6914	69.0006	33.6914	69.0013	33.6914	68.9984	33.6914	69.0464	33.6914	68.9938	33.6914	69.1566	33.6914	68.999	33.6914	69.3623	33.6914	69.0348	33.6914	69.688	33.6914	69.129	33.6914	70.1434	33.6914	69.3121	33.6914	70.7187	33.6914	69.6108	33.6914	71.3853	33.6914	70.0386	33.6914	72.103	33.6914	70.5905	33.6914	72.8274	33.6914	71.2422	33.6914	73.5162	33.6914	71.9555	33.6914	74.1317	33.6914	72.6862	33.6914	74.6424	33.6914	73.3901	33.6914	75.0226	33.6914	74.027	33.6914	75.2533	33.6914	74.5626	33.6914	75.3228	33.6914	74.9692	33.6914	75.2268
35.1563	71.4889	35.1563	71.5005	35.1563	71.4858	35.1563	71.5318	35.1563	71.487	35.1563	71.6	35.1563	71.4951	35.1563	71.7268	35.1563	71.5198	35.1563	71.9348	35.1563	71.577	35.1563	72.2418	35.1563	71.6876	35.1563	72.6555	35.1563	71.8744	35.1563	73.1693	35.1563	72.157	35.1563	73.7624	35.1563	72.546	35.1563	74.4032	35.1563	73.039	35.1563	75.0548	35.1563	73.6184	35.1563	75.6795	35.1563	74.2551	35.1563	76.2423	35.1563	74.9124	35.1563	76.7123	35.1563	75.5515	35.1563	77.0637	35.1563	76.1353	35.1563	77.2772	35.1563	76.6301	35.1563	77.3405	35.1563	77.0085	35.1563	77.2495
36.6211	73.8981	36.6211	73.9189	36.6211	73.8913	36.6211	73.9624	36.6211	73.895	36.6211	74.042	36.6211	73.9112	36.6211	74.1743	36.6211	73.9473	36.6211	74.3763	36.6211	74.0157	36.6211	74.662	36.6211	74.1321	36.6211	75.0376	36.6211	74.314	36.6211	75.4987	36.6211	74.5765	36.6211	76.0296	36.6211	74.9286	36.6211	76.6051	36.6211	75.3692	36.6211	77.194	36.6211	75.886	36.6211	77.7627	36.6211	76.4561	36.6211	78.2786	36.6211	77.0492	36.6211	78.7117	36.6211	77.6311	36.6211	79.0366	36.6211	78.1672	36.6211	79.2339	36.6211	78.6254	36.6211	79.2912	36.6211	78.9781	36.6211	79.2044
38.0859	76.0746	38.0859	76.1039	38.0859	76.0637	38.0859	76.1584	38.0859	76.0684	38.0859	76.2484	38.0859	76.0902	38.0859	76.3866	38.0859	76.1348	38.0859	76.5859	38.0859	76.2119	38.0859	76.8569	38.0859	76.3335	38.0859	77.2045	38.0859	76.513	38.0859	77.6253	38.0859	76.762	38.0859	78.1071	38.0859	77.0876	38.0859	78.6294	38.0859	77.4894	38.0859	79.1656	38.0859	77.958	38.0859	79.686	38.0859	78.4752	38.0859	80.1603	38.0859	79.0155	38.0859	80.5602	38.0859	79.5488	38.0859	80.8609	38.0859	80.0435	38.0859	81.0432	38.0859	80.4691	38.0859	81.0949	38.0859	80.7989	38.0859	81.0119
39.5508	78.0148	39.5508	78.0514	39.5508	78.0004	39.5508	78.1153	39.5508	78.0061	39.5508	78.2143	39.5508	78.0328	39.5508	78.3576	39.5508	78.0848	39.5508	78.5546	39.5508	78.1691	39.5508	78.8128	39.5508	78.2945	39.5508	79.1356	39.5508	78.4708	39.5508	79.5203	39.5508	78.7065	39.5508	79.9571	39.5508	79.0071	39.5508	80.4294	39.5508	79.3724	39.5508	80.9149	39.5508	79.7957	39.5508	81.3875	39.5508	80.2625	39.5508	81.82	39.5508	80.7518	39.5508	82.1858	39.5508	81.2378	39.5508	82.4611	39.5508	81.6917	39.5508	82.6272	39.5508	82.0851	39.5508	82.6722	39.5508	82.3921	39.5508	82.5922
41.0156	79.744	41.0156	79.7847	41.0156	79.7278	41.0156	79.8538	41.0156	79.7343	41.0156	79.9568	41.0156	79.7639	41.0156	80.1005	41.0156	79.8195	41.0156	80.2911	41.0156	79.9055	41.0156	80.5339	41.0156	80.0282	41.0156	80.8308	41.0156	80.1943	41.0156	81.1796	41.0156	80.4101	41.0156	81.5723	41.0156	80.6797	41.0156	81.9957	41.0156	81.0036	41.0156	82.4309	41.0156	81.3772	41.0156	82.8555	41.0156	81.7897	41.0156	83.2446	41.0156	82.2248	41.0156	83.5733	41.0156	82.6609	41.0156	83.819	41.0156	83.073	41.0156	83.9638	41.0156	83.435	41.0156	83.9965	41.0156	83.7222	41.0156	83.914
42.4805	80.8276	42.4805	80.8743	42.4805	80.8068	42.4805	80.9496	42.4805	80.8105	42.4805	81.0578	42.4805	80.8388	42.4805	81.2032	42.4805	80.8938	42.4805	81.3905	42.4805	80.9786	42.4805	81.623	42.4805	81.0976	42.4805	81.9017	42.4805	81.2559	42.4805	82.2242	42.4805	81.4579	42.4805	82.5839	42.4805	81.7069	42.4805	82.9694	42.4805	82.0032	42.4805	83.3647	42.4805	82.3434	42.4805	83.75	42.4805	82.7189	42.4805	84.1028	42.4805	83.1162	42.4805	84.4004	42.4805	83.5166	42.4805	84.6215	42.4805	83.8977	42.4805	84.7491	42.4805	84.2353	42.4805	84.7727	42.4805	84.5059	42.4805	84.6896
43.9453	81.4735	43.9453	81.5229	43.9453	81.4509	43.9453	81.6011	43.9453	81.4541	43.9453	81.7106	43.9453	81.4833	43.9453	81.8547	43.9453	81.5396	43.9453	82.0361	43.9453	81.6254	43.9453	82.257	43.9453	81.7435	43.9453	82.5176	43.9453	81.8973	43.9453	82.8158	43.9453	82.0899	43.9453	83.1458	43.9453	82.3234	43.9453	83.4979	43.9453	82.5978	43.9453	83.8586	43.9453	82.9101	43.9453	84.2102	43.9453	83.2535	43.9453	84.5327	43.9453	83.6163	43.9453	84.8051	43.9453	83.9825	43.9453	85.0074	43.9453	84.3322	43.9453	85.1236	43.9453	84.6433	43.9453	85.1436	43.9453	84.8939	43.9453	85.0651
45.4102	81.7543	45.4102	81.8061	45.4102	81.7297	45.4102	81.8862	45.4102	81.7317	45.4102	81.9962	45.4102	81.7603	45.4102	82.1381	45.4102	81.8163	45.4102	82.3134	45.4102	81.901	45.4102	82.5232	45.4102	82.0164	45.4102	82.7671	45.4102	82.1644	45.4102	83.043	45.4102	82.347	45.4102	83.3459	45.4102	82.5654	45.4102	83.6676	45.4102	82.8194	45.4102	83.9962	45.4102	83.1064	45.4102	84.3165	45.4102	83.4205	45.4102	84.6104	45.4102	83.7522	45.4102	84.8585	45.4102	84.0875	45.4102	85.0425	45.4102	84.4087	45.4102	85.1472	45.4102	84.6957	45.4102	85.1632	45.4102	84.9282	45.4102	85.0883
46.875	81.8282	46.875	81.8816	46.875	81.8024	46.875	81.963	46.875	81.8038	46.875	82.0732	46.875	81.8324	46.875	82.2131	46.875	81.8884	46.875	82.3831	46.875	81.9726	46.875	82.5835	46.875	82.0858	46.875	82.8132	46.875	82.2289	46.875	83.07	46.875	82.403	46.875	83.3495	46.875	82.6085	46.875	83.6445	46.875	82.8447	46.875	83.9448	46.875	83.1094	46.875	84.237	46.875	83.3978	46.875	84.505	46.875	83.7016	46.875	84.7311	46.875	84.0089	46.875	84.8984	46.875	84.304	46.875	84.9927	46.875	84.5687	46.875	85.0051	46.875	84.7843	46.875	84.9338
48.3398	81.8054	48.3398	81.8596	48.3398	81.7787	48.3398	81.9414	48.3398	81.7795	48.3398	82.0507	48.3398	81.8077	48.3398	82.1875	48.3398	81.8633	48.3398	82.3516	48.3398	81.9465	48.3398	82.5422	48.3398	82.0573	48.3398	82.7581	48.3398	82.1959	48.3398	82.9968	48.3398	82.3623	48.3398	83.2545	48.3398	82.5563	48.3398	83.5248	48.3398	82.7769	48.3398	83.7992	48.3398	83.0219	48.3398	84.0656	48.3398	83.2871	48.3398	84.3099	48.3398	83.5656	48.3398	84.5161	48.3398	83.8469	48.3398	84.6686	48.3398	84.1173	48.3398	84.7541	48.3398	84.3604	48.3398	84.7643	48.3398	84.5591	48.3398	84.6976
51.2695	81.6876	51.2695	81.7417	51.2695	81.6614	51.2695	81.823	51.2695	81.6633	51.2695	81.9304	51.2695	81.6933	51.2695	82.0625	51.2695	81.7507	51.2695	82.2177	51.2695	81.8346	51.2695	82.3939	51.2695	81.9438	51.2695	82.5891	51.2695	82.0769	51.2695	82.8004	51.2695	82.2326	51.2695	83.0243	51.2695	82.4094	51.2695	83.2558	51.2695	82.6055	51.2695	83.4883	51.2695	82.8188	51.2695	83.7125	51.2695	83.0458	51.2695	83.9173	51.2695	83.2815	51.2695	84.0897	51.2695	83.5182	51.2695	84.2168	51.2695	83.7455	51.2695	84.2873	51.2695	83.9503	51.2695	84.2943	51.2695	84.1184	51.2695	84.2364
52.7344	81.6964	52.7344	81.7517	52.7344	81.6688	52.7344	81.8335	52.7344	81.6693	52.7344	81.9403	52.7344	81.6979	52.7344	82.0702	52.7344	81.7536	52.7344	82.221	52.7344	81.8354	52.7344	82.3902	52.7344	81.9416	52.7344	82.5752	52.7344	82.0702	52.7344	82.7731	52.7344	82.2193	52.7344	82.9806	52.7344	82.3869	52.7344	83.1931	52.7344	82.571	52.7344	83.4048	52.7344	82.7692	52.7344	83.6079	52.7344	82.9786	52.7344	83.7924	52.7344	83.1947	52.7344	83.9471	52.7344	83.4111	52.7344	84.0602	52.7344	83.6187	52.7344	84.1218	52.7344	83.8062	52.7344	84.1256	52.7344	83.9609	52.7344	84.0704
54.1992	81.733	54.1992	81.7893	54.1992	81.7042	54.1992	81.8716	54.1992	81.7036	54.1992	81.9782	54.1992	81.7309	54.1992	82.1064	54.1992	81.7855	54.1992	82.2537	54.1992	81.8657	54.1992	82.4172	54.1992	81.9695	54.1992	82.5939	54.1992	82.0946	54.1992	82.7808	54.1992	82.2385	54.1992	82.9744	54.1992	82.3988	54.1992	83.1708	54.1992	82.5731	54.1992	83.3648	54.1992	82.7589	54.1992	83.5495	54.1992	82.9535	54.1992	83.7164	54.1992	83.1531	54.1992	83.8555	54.1992	83.352	54.1992	83.9565	54.1992	83.5426	54.1992	84.0104	54.1992	83.7148	54.1992	84.0116	54.1992	83.8573	54.1992	83.9591
55.6641	81.7811	55.6641	81.8377	55.6641	81.7516	55.6641	81.9199	55.6641	81.7501	55.6641	82.0254	55.6641	81.7765	55.6641	82.1514	55.6641	81.8298	55.6641	82.2948	55.6641	81.9083	55.6641	82.4525	55.6641	82.0098	55.6641	82.6211	55.6641	82.1314	55.6641	82.7974	55.6641	82.2704	55.6641	82.9781	55.6641	82.4238	55.6641	83.1594	55.6641	82.589	55.6641	83.3367	55.6641	82.7635	55.6641	83.5043	55.6641	82.9444	55.6641	83.6548	55.6641	83.1284	55.6641	83.7795	55.6641	83.3108	55.6641	83.8693	55.6641	83.4849	55.6641	83.9163	55.6641	83.6422	55.6641	83.9156	55.6641	83.7727	55.6641	83.8664
58.5938	81.9408	58.5938	81.9967	58.5938	81.9118	58.5938	82.0774	58.5938	81.9104	58.5938	82.1801	58.5938	81.9368	58.5938	82.3013	58.5938	81.9898	58.5938	82.4373	58.5938	82.0671	58.5938	82.5841	58.5938	82.166	58.5938	82.7378	58.5938	82.2828	58.5938	82.8948	58.5938	82.414	58.5938	83.0518	58.5938	82.5559	58.5938	83.2056	58.5938	82.7051	58.5938	83.3526	58.5938	82.8586	58.5938	83.4888	58.5938	83.0139	58.5938	83.6092	58.5938	83.1683	58.5938	83.7075	58.5938	83.3185	58.5938	83.7773	58.5938	83.4601	58.5938	83.8127	58.5938	83.5873	58.5938	83.8101	58.5938	83.6927	58.5938	83.769
60.0586	82.1573	60.0586	82.2112	60.0586	82.1291	60.0586	82.2885	60.0586	82.1275	60.0586	82.3864	60.0586	82.1525	60.0586	82.5013	60.0586	82.2031	60.0586	82.6292	60.0586	82.277	60.0586	82.7661	60.0586	82.3712	60.0586	82.908	60.0586	82.4821	60.0586	83.0513	60.0586	82.6056	60.0586	83.1928	60.0586	82.7379	60.0586	83.3296	60.0586	82.8753	60.0586	83.4588	60.0586	83.0148	60.0586	83.5771	60.0586	83.1539	60.0586	83.6806	60.0586	83.2903	60.0586	83.7644	60.0586	83.4216	60.0586	83.8232	60.0586	83.5445	60.0586	83.8524	60.0586	83.6545	60.0586	83.8488	60.0586	83.7458	60.0586	83.8123
62.9883	82.4539	62.9883	82.5064	62.9883	82.426	62.9883	82.5812	62.9883	82.4239	62.9883	82.675	62.9883	82.4474	62.9883	82.784	62.9883	82.4955	62.9883	82.9039	62.9883	82.5656	62.9883	83.0301	62.9883	82.6545	62.9883	83.1584	62.9883	82.758	62.9883	83.285	62.9883	82.8719	62.9883	83.4064	62.9883	82.9917	62.9883	83.5202	62.9883	83.1134	62.9883	83.624	62.9883	83.2338	62.9883	83.7159	62.9883	83.3503	62.9883	83.7934	62.9883	83.4614	62.9883	83.8538	62.9883	83.5656	62.9883	83.894	62.9883	83.6616	62.9883	83.9112	62.9883	83.7469	62.9883	83.9036	62.9883	83.8184	62.9883	83.8719
64.4531	82.4795	64.4531	82.5331	64.4531	82.4506	64.4531	82.6091	64.4531	82.4476	64.4531	82.704	64.4531	82.4705	64.4531	82.8136	64.4531	82.5181	64.4531	82.9334	64.4531	82.5878	64.4531	83.0586	64.4531	82.6762	64.4531	83.1847	64.4531	82.7791	64.4531	83.3076	64.4531	82.8917	64.4531	83.4238	64.4531	83.0094	64.4531	83.5306	64.4531	83.128	64.4531	83.6261	64.4531	83.2439	64.4531	83.7087	64.4531	83.3547	64.4531	83.7767	64.4531	83.4586	64.4531	83.8282	64.4531	83.5548	64.4531	83.861	64.4531	83.6422	64.4531	83.8732	64.4531	83.7195	64.4531	83.8639	64.4531	83.7843	64.4531	83.8335
67.3828	82.6724	67.3828	82.7211	67.3828	82.6476	67.3828	82.7912	67.3828	82.6479	67.3828	82.8792	67.3828	82.6732	67.3828	82.981	67.3828	82.7224	67.3828	83.0918	67.3828	82.7928	67.3828	83.2066	67.3828	82.8807	67.3828	83.3208	67.3828	82.9814	67.3828	83.4299	67.3828	83.0898	67.3828	83.5305	67.3828	83.2006	67.3828	83.6199	67.3828	83.3092	67.3828	83.6967	67.3828	83.4114	67.3828	83.7601	67.3828	83.5047	67.3828	83.8098	67.3828	83.5876	67.3828	83.8458	67.3828	83.6598	67.3828	83.8678	67.3828	83.7219	67.3828	83.8755	67.3828	83.7743	67.3828	83.869	67.3828	83.817	67.3828	83.849
68.8477	82.8689	68.8477	82.9116	68.8477	82.8488	68.8477	82.9747	68.8477	82.8524	68.8477	83.0549	68.8477	82.8797	68.8477	83.1482	68.8477	82.9293	68.8477	83.2499	68.8477	82.9985	68.8477	83.3551	68.8477	83.0836	68.8477	83.459	68.8477	83.1799	68.8477	83.5573	68.8477	83.2823	68.8477	83.6466	68.8477	83.3855	68.8477	83.7243	68.8477	83.4846	68.8477	83.7891	68.8477	83.5757	68.8477	83.8409	68.8477	83.656	68.8477	83.8801	68.8477	83.7243	68.8477	83.9076	68.8477	83.7808	68.8477	83.924	68.8477	83.8268	68.8477	83.93	68.8477	83.8635	68.8477	83.9262	68.8477	83.8923	68.8477	83.9134
71.7773	83.4597	71.7773	83.5018	71.7773	83.4375	71.7773	83.5615	71.7773	83.4366	71.7773	83.6355	71.7773	83.457	71.7773	83.7195	71.7773	83.4977	71.7773	83.809	71.7773	83.5563	71.7773	83.899	71.7773	83.6291	71.7773	83.9847	71.7773	83.7116	71.7773	84.0619	71.7773	83.7986	71.7773	84.127	71.7773	83.8846	71.7773	84.1779	71.7773	83.9645	71.7773	84.2141	71.7773	84.0342	71.7773	84.2363	71.7773	84.0909	71.7773	84.2466	71.7773	84.1337	71.7773	84.2478	71.7773	84.1637	71.7773	84.2429	71.7773	84.1835	71.7773	84.2346	71.7773	84.1967	71.7773	84.2251	71.7773	84.2066	71.7773	84.2157
74.707	83.7807	74.707	83.8264	74.707	83.7543	74.707	83.8887	74.707	83.7488	74.707	83.9641	74.707	83.7646	74.707	84.0483	74.707	83.8007	74.707	84.1363	74.707	83.8548	74.707	84.2231	74.707	83.9233	74.707	84.3036	74.707	84.0013	74.707	84.3733	74.707	84.0834	74.707	84.4285	74.707	84.1637	74.707	84.4671	74.707	84.2366	74.707	84.4886	74.707	84.2976	74.707	84.4945	74.707	84.3439	74.707	84.4878	74.707	84.3749	74.707	84.4726	74.707	84.3922	74.707	84.4533	74.707	84.3995	74.707	84.4343	74.707	84.4016	74.707	84.4186	74.707	84.4032	74.707	84.4082
77.6367	83.8662	77.6367	83.9066	77.6367	83.8456	77.6367	83.9645	77.6367	83.846	77.6367	84.0365	77.6367	83.8674	77.6367	84.1183	77.6367	83.9085	77.6367	84.2049	77.6367	83.9665	77.6367	84.2909	77.6367	84.0375	77.6367	84.3708	77.6367	84.1166	77.6367	84.4397	77.6367	84.1981	77.6367	84.4935	77.6367	84.276	77.6367	84.5298	77.6367	84.345	77.6367	84.5477	77.6367	84.4006	77.6367	84.549	77.6367	84.4401	77.6367	84.5369	77.6367	84.4632	77.6367	84.5164	77.6367	84.4715	77.6367	84.493	77.6367	84.469	77.6367	84.4722	77.6367	84.4613	77.6367	84.4578	77.6367	84.454	77.6367	84.4518
79.1016	84.1255	79.1016	84.1664	79.1016	84.1033	79.1016	84.2237	79.1016	84.1009	79.1016	84.294	79.1016	84.1186	79.1016	84.3732	79.1016	84.1554	79.1016	84.4566	79.1016	84.2088	79.1016	84.5387	79.1016	84.2754	79.1016	84.6141	79.1016	84.3504	79.1016	84.6778	79.1016	84.4283	79.1016	84.7257	79.1016	84.503	79.1016	84.7552	79.1016	84.5689	79.1016	84.7655	79.1016	84.6214	79.1016	84.7584	79.1016	84.6571	79.1016	84.7377	79.1016	84.6754	79.1016	84.7092	79.1016	84.6779	79.1016	84.6791	79.1016	84.6688	79.1016	84.6539	79.1016	84.6541	79.1016	84.6381	79.1016	84.6405	79.1016	84.6339
82.0313	84.8141	82.0313	84.8544	82.0313	84.787	82.0313	84.9052	82.0313	84.7746	82.0313	84.9632	82.0313	84.7779	82.0313	85.0246	82.0313	84.7966	82.0313	85.0848	82.0313	84.8292	82.0313	85.1389	82.0313	84.873	82.0313	85.1821	82.0313	84.9237	82.0313	85.2097	82.0313	84.9761	82.0313	85.2184	82.0313	85.0242	82.0313	85.2062	82.0313	85.0621	82.0313	85.1738	82.0313	85.0849	82.0313	85.1243	82.0313	85.089	82.0313	85.0638	82.0313	85.0737	82.0313	85.0004	82.0313	85.0413	82.0313	84.9435	82.0313	84.9976	82.0313	84.9018	82.0313	84.9506	82.0313	84.8815	82.0313	84.9101	82.0313	84.885
84.9609	84.7916	84.9609	84.8283	84.9609	84.7671	84.9609	84.8744	84.9609	84.7565	84.9609	84.9265	84.9609	84.7606	84.9609	84.9803	84.9609	84.779	84.9609	85.0309	84.9609	84.8099	84.9609	85.0732	84.9609	84.85	84.9609	85.1019	84.9609	84.895	84.9609	85.1125	84.9609	84.9389	84.9609	85.1018	84.9609	84.9757	84.9609	85.0683	84.9609	84.999	84.9609	85.0134	84.9609	85.0037	84.9609	84.9414	84.9609	84.9867	84.9609	84.8596	84.9609	84.9477	84.9609	84.778	84.9609	84.89	84.9609	84.7076	84.9609	84.8207	84.9609	84.6585	84.9609	84.7499	84.9609	84.6383	84.9609	84.6892	84.9609	84.6494
87.8906	84.9963	87.8906	85.0215	87.8906	84.9877	87.8906	85.0617	87.8906	84.9959	87.8906	85.1144	87.8906	85.0204	87.8906	85.1761	87.8906	85.0592	87.8906	85.242	87.8906	85.1095	87.8906	85.3065	87.8906	85.1671	87.8906	85.3637	87.8906	85.227	87.8906	85.4077	87.8906	85.2832	87.8906	85.4335	87.8906	85.3298	87.8906	85.4377	87.8906	85.3614	87.8906	85.4193	87.8906	85.3739	87.8906	85.3802	87.8906	85.3652	87.8906	85.3258	87.8906	85.3365	87.8906	85.2637	87.8906	85.2919	87.8906	85.2039	87.8906	85.2388	87.8906	85.156	87.8906	85.1869	87.8906	85.1282	87.8906	85.1461	87.8906	85.1249
90.8203	84.8762	90.8203	84.9175	90.8203	84.859	90.8203	84.98	90.8203	84.8681	90.8203	85.0602	90.8203	84.9045	90.8203	85.1535	90.8203	84.9679	90.8203	85.2551	90.8203	85.0564	90.8203	85.3591	90.8203	85.1661	90.8203	85.4595	90.8203	85.2913	90.8203	85.5506	90.8203	85.4244	90.8203	85.6271	90.8203	85.5566	90.8203	85.6858	90.8203	85.679	90.8203	85.7254	90.8203	85.7833	90.8203	85.7477	90.8203	85.8627	90.8203	85.7569	90.8203	85.9133	90.8203	85.7597	90.8203	85.9346	90.8203	85.7635	90.8203	85.9295	90.8203	85.7746	90.8203	85.9043	90.8203	85.7967	90.8203	85.8679	90.8203	85.8294
95.2148	85.9329	95.2148	85.965	95.2148	85.9039	95.2148	85.9978	95.2148	85.8802	95.2148	86.0285	95.2148	85.8636	95.2148	86.0538	95.2148	85.8553	95.2148	86.07	95.2148	85.8554	95.2148	86.0728	95.2148	85.8626	95.2148	86.0576	95.2148	85.8737	95.2148	86.0202	95.2148	85.8838	95.2148	85.9574	95.2148	85.8868	95.2148	85.8682	95.2148	85.8756	95.2148	85.7546	95.2148	85.844	95.2148	85.6228	95.2148	85.7874	95.2148	85.4832	95.2148	85.7046	95.2148	85.3503	95.2148	85.5986	95.2148	85.2403	95.2148	85.4779	95.2148	85.1686	95.2148	85.3557	95.2148	85.1458	95.2148	85.249	95.2148	85.1745
98.1445	85.8234	98.1445	85.8509	98.1445	85.803	98.1445	85.8836	98.1445	85.7915	98.1445	85.919	98.1445	85.7903	98.1445	85.9542	98.1445	85.8003	98.1445	85.9856	98.1445	85.8212	98.1445	86.0089	98.1445	85.8512	98.1445	86.0191	98.1445	85.8867	98.1445	86.0116	98.1445	85.9224	98.1445	85.9822	98.1445	85.9514	98.1445	85.9291	98.1445	85.9663	98.1445	85.8531	98.1445	85.9604	98.1445	85.7587	98.1445	85.9289	98.1445	85.6546	98.1445	85.8703	98.1445	85.5532	98.1445	85.7876	98.1445	85.4687	98.1445	85.6885	98.1445	85.4145	98.1445	85.5855	98.1445	85.4	98.1445	85.4937	98.1445	85.428
101.074	86.2094	101.074	86.2411	101.074	86.1821	101.074	86.2748	101.074	86.1615	101.074	86.3079	101.074	86.1496	101.074	86.3379	101.074	86.1481	101.074	86.3611	101.074	86.1575	101.074	86.3738	101.074	86.1768	101.074	86.3715	101.074	86.2027	101.074	86.3499	101.074	86.2302	101.074	86.3057	101.074	86.2524	101.074	86.2372	101.074	86.2617	101.074	86.1459	101.074	86.2509	101.074	86.0371	101.074	86.2147	101.074	85.9203	101.074	86.1511	101.074	85.8086	101.074	86.0628	101.074	85.717	101.074	85.9573	101.074	85.6594	101.074	85.8473	101.074	85.6454	101.074	85.7485	101.074	85.677
105.469	86.2279	105.469	86.2657	105.469	86.1919	105.469	86.3033	105.469	86.1599	105.469	86.3388	105.469	86.1342	105.469	86.37	105.469	86.117	105.469	86.3943	105.469	86.1095	105.469	86.4082	105.469	86.1117	105.469	86.4078	105.469	86.1216	105.469	86.3889	105.469	86.1351	105.469	86.3478	105.469	86.1462	105.469	86.2827	105.469	86.148	105.469	86.1943	105.469	86.134	105.469	86.0869	105.469	86.0993	105.469	85.969	105.469	86.042	105.469	85.8526	105.469	85.9648	105.469	85.7519	105.469	85.875	105.469	85.6805	105.469	85.7845	105.469	85.6484	105.469	85.7077	105.469	85.6588
108.398	86.3671	108.398	86.4129	108.398	86.3221	108.398	86.4573	108.398	86.2804	108.398	86.4982	108.398	86.2444	108.398	86.5331	108.398	86.2163	108.398	86.559	108.398	86.1977	108.398	86.572	108.398	86.1885	108.398	86.5681	108.398	86.1871	108.398	86.543	108.398	86.1896	108.398	86.493	108.398	86.1905	108.398	86.4166	108.398	86.1833	108.398	86.315	108.398	86.1618	108.398	86.1932	108.398	86.1214	108.398	86.0604	108.398	86.0607	108.398	85.9296	108.398	85.9823	108.398	85.8157	108.398	85.8937	108.398	85.7327	108.398	85.8064	108.398	85.6905	108.398	85.7347	108.398	85.6926
112.793	86.9706	112.793	87.0091	112.793	86.9294	112.793	87.0429	112.793	86.8876	112.793	87.0702	112.793	86.848	112.793	87.0893	112.793	86.8133	112.793	87.0975	112.793	86.7854	112.793	87.0917	112.793	86.7649	112.793	87.0678	112.793	86.7506	112.793	87.0217	112.793	86.7388	112.793	86.95	112.793	86.7241	112.793	86.8512	112.793	86.6997	112.793	86.7272	112.793	86.6593	112.793	86.5837	112.793	86.5982	112.793	86.4313	112.793	86.5152	112.793	86.2842	112.793	86.4133	112.793	86.159	112.793	86.3009	112.793	86.071	112.793	86.191	112.793	86.0309	112.793	86.0995	112.793	86.0421
117.188	87.0185	117.188	87.0693	117.188	86.9644	117.188	87.1144	117.188	86.9096	117.188	87.1522	117.188	86.8576	117.188	87.1808	117.188	86.812	117.188	87.1981	117.188	86.7755	117.188	87.2008	117.188	86.7497	117.188	87.1854	117.188	86.7339	117.188	87.1476	117.188	86.7247	117.188	87.084	117.188	86.7167	117.188	86.993	117.188	86.7029	117.188	86.8758	117.188	86.6762	117.188	86.738	117.188	86.6315	117.188	86.5895	117.188	86.5665	117.188	86.4443	117.188	86.4836	117.188	86.3182	117.188	86.3903	117.188	86.2263	117.188	86.2985	117.188	86.1791	117.188	86.2233	117.188	86.1797
120.117	87.122	120.117	87.173	120.117	87.0688	120.117	87.22	120.117	87.0164	120.117	87.2613	120.117	86.9679	120.117	87.2952	120.117	86.9271	120.117	87.3193	120.117	86.8968	120.117	87.3304	120.117	86.8785	120.117	87.3243	120.117	86.8716	120.117	87.2966	120.117	86.8723	120.117	87.2432	120.117	86.8749	120.117	87.1621	120.117	86.8718	120.117	87.0543	120.117	86.8555	120.117	86.925	120.117	86.8202	120.117	86.7842	120.117	86.7635	120.117	86.6456	120.117	86.6875	120.117	86.5251	120.117	86.5994	120.117	86.4375	120.117	86.5113	120.117	86.3931	120.117	86.4382	120.117	86.395
124.512	87.1261	124.512	87.1642	124.512	87.0842	124.512	87.1971	124.512	87.0412	124.512	87.2238	124.512	87.0004	124.512	87.2434	124.512	86.9659	124.512	87.2541	124.512	86.9415	124.512	87.2532	124.512	86.9296	124.512	87.2369	124.512	86.9302	124.512	87.2012	124.512	86.94	124.512	87.1425	124.512	86.9529	124.512	87.0593	124.512	86.9606	124.512	86.9538	124.512	86.9544	124.512	86.832	124.512	86.9272	124.512	86.7046	124.512	86.875	124.512	86.5856	124.512	86.7988	124.512	86.4903	124.512	86.705	124.512	86.4314	124.512	86.605	124.512	86.4168	124.512	86.5137	124.512	86.4466
128.906	87.0024	128.906	87.0418	128.906	86.9528	128.906	87.0701	128.906	86.895	128.906	87.0869	128.906	86.832	128.906	87.0916	128.906	86.7681	128.906	87.0827	128.906	86.7078	128.906	87.0577	128.906	86.6549	128.906	87.0126	128.906	86.6112	128.906	86.943	128.906	86.576	128.906	86.8456	128.906	86.5453	128.906	86.7191	128.906	86.5129	128.906	86.5664	128.906	86.4711	128.906	86.3956	128.906	86.4133	128.906	86.22	128.906	86.3354	128.906	86.0573	128.906	86.2376	128.906	85.9259	128.906	86.1258	128.906	85.8415	128.906	86.0113	128.906	85.8125	128.906	85.9098	128.906	85.8384
133.301	87.3841	133.301	87.414	133.301	87.3446	133.301	87.434	133.301	87.2967	133.301	87.4446	133.301	87.2429	133.301	87.4456	133.301	87.1865	133.301	87.4362	133.301	87.1312	133.301	87.4138	133.301	87.0801	133.301	87.3743	133.301	87.0343	133.301	87.3131	133.301	86.9924	133.301	87.2256	133.301	86.9507	133.301	87.1095	133.301	86.9035	133.301	86.9662	133.301	86.8445	133.301	86.8019	133.301	86.7689	133.301	86.6285	133.301	86.6749	133.301	86.4622	133.301	86.565	133.301	86.3212	133.301	86.4471	133.301	86.222	133.301	86.3338	133.301	86.1753	133.301	86.2406	133.301	86.1836
139.16	87.289	139.16	87.3094	139.16	87.258	139.16	87.319	139.16	87.218	139.16	87.3185	139.16	87.1721	139.16	87.3087	139.16	87.1246	139.16	87.2896	139.16	87.0797	139.16	87.2593	139.16	87.0406	139.16	87.2147	139.16	87.0082	139.16	87.1515	139.16	86.9802	139.16	87.0656	139.16	86.9514	139.16	86.9548	139.16	86.9144	139.16	86.8204	139.16	86.8619	139.16	86.6686	139.16	86.7883	139.16	86.5107	139.16	86.6918	139.16	86.3621	139.16	86.5759	139.16	86.2398	139.16	86.4493	139.16	86.1587	139.16	86.3256	139.16	86.1284	139.16	86.2209	139.16	86.1511
143.555	87.3544	143.555	87.3744	143.555	87.3205	143.555	87.3802	143.555	87.2749	143.555	87.3728	143.555	87.2217	143.555	87.3535	143.555	87.1663	143.555	87.3229	143.555	87.1146	143.555	87.2802	143.555	87.0709	143.555	87.2227	143.555	87.0369	143.555	87.1468	143.555	87.0106	143.555	87.049	143.555	86.986	143.555	86.9276	143.555	86.9549	143.555	86.7846	143.555	86.908	143.555	86.627	143.555	86.8382	143.555	86.4669	143.555	86.7425	143.555	86.3202	143.555	86.6235	143.555	86.2041	143.555	86.4899	143.555	86.1332	143.555	86.3556	143.555	86.116	143.555	86.2378	143.555	86.1533
147.949	87.2389	147.949	87.2537	147.949	87.2062	147.949	87.2505	147.949	87.1581	147.949	87.2308	147.949	87.0995	147.949	87.197	147.949	87.037	147.949	87.1509	147.949	86.9779	147.949	87.0929	147.949	86.9283	147.949	87.0218	147.949	86.8913	147.949	86.935	147.949	86.8658	147.949	86.8299	147.949	86.8461	147.949	86.7055	147.949	86.8234	147.949	86.5643	147.949	86.7873	147.949	86.4136	147.949	86.7292	147.949	86.2653	147.949	86.6442	147.949	86.135	147.949	86.5333	147.949	86.0387	147.949	86.4037	147.949	85.9889	147.949	86.2683	147.949	85.992	147.949	86.1435	147.949	86.0466
153.809	87.4212	153.809	87.4338	153.809	87.3822	153.809	87.4207	153.809	87.3185	153.809	87.3845	153.809	87.2346	153.809	87.3283	153.809	87.1373	153.809	87.255	153.809	87.0351	153.809	87.1662	153.809	86.9366	153.809	87.0616	153.809	86.8485	153.809	86.9395	153.809	86.7738	153.809	86.7982	153.809	86.711	153.809	86.6375	153.809	86.6539	153.809	86.461	153.809	86.5936	153.809	86.2774	153.809	86.521	153.809	86.1007	153.809	86.4295	153.809	85.9481	153.809	86.3176	153.809	85.8368	153.809	86.1897	153.809	85.7793	153.809	86.0563	153.809	85.7801	153.809	85.9324	153.809	85.835
159.668	87.6224	159.668	87.6234	159.668	87.5954	159.668	87.599	159.668	87.5439	159.668	87.5519	159.668	87.4715	159.668	87.4852	159.668	87.384	159.668	87.4019	159.668	87.2877	159.668	87.3039	159.668	87.1886	159.668	87.191	159.668	87.0909	159.668	87.0618	159.668	86.9958	159.668	86.9146	159.668	86.9014	159.668	86.7487	159.668	86.8033	159.668	86.5671	159.668	86.6961	159.668	86.377	159.668	86.5756	159.668	86.1907	159.668	86.4408	159.668	86.0238	159.668	86.295	159.668	85.8925	159.668	86.1464	159.668	85.81	159.668	86.007	159.668	85.7834	159.668	85.891	159.668	85.8126
165.527	87.6534	165.527	87.6671	165.527	87.6107	165.527	87.652	165.527	87.5419	165.527	87.6099	165.527	87.4526	165.527	87.5442	165.527	87.3507	165.527	87.4578	165.527	87.245	165.527	87.353	165.527	87.1439	165.527	87.2306	165.527	87.0527	165.527	87.0906	165.527	86.9729	165.527	86.9331	165.527	86.9009	165.527	86.7598	165.527	86.83	165.527	86.5757	165.527	86.7515	165.527	86.39	165.527	86.6585	165.527	86.2158	165.527	86.5473	165.527	86.0679	165.527	86.4198	165.527	85.9601	165.527	86.2831	165.527	85.9021	165.527	86.1488	165.527	85.8973	165.527	86.0307	165.527	85.9429
171.387	87.4735	171.387	87.4944	171.387	87.4223	171.387	87.4853	171.387	87.3434	171.387	87.4488	171.387	87.2427	171.387	87.3885	171.387	87.1287	171.387	87.3076	171.387	87.0112	171.387	87.2085	171.387	86.8996	171.387	87.0914	171.387	86.8006	171.387	86.956	171.387	86.7166	171.387	86.8019	171.387	86.645	171.387	86.6312	171.387	86.579	171.387	86.4498	171.387	86.5103	171.387	86.2678	171.387	86.4314	171.387	86.0992	171.387	86.3382	171.387	85.9586	171.387	86.2318	171.387	85.8581	171.387	86.118	171.387	85.8045	171.387	86.0066	171.387	85.7986	171.387	85.9088	171.387	85.8361
177.246	87.2985	177.246	87.3139	177.246	87.2505	177.246	87.2978	177.246	87.1722	177.246	87.2537	177.246	87.0694	177.246	87.1864	177.246	86.9511	177.246	87.1003	177.246	86.8282	177.246	86.9981	177.246	86.7115	177.246	86.8805	177.246	86.6088	177.246	86.7463	177.246	86.5235	177.246	86.5948	177.246	86.4532	177.246	86.4272	177.246	86.391	177.246	86.2491	177.246	86.328	177.246	86.0712	177.246	86.2558	177.246	85.9083	177.246	86.1701	177.246	85.7758	177.246	86.0713	177.246	85.6855	177.246	85.9647	177.246	85.643	177.246	85.8588	177.246	85.6466	177.246	85.7638	177.246	85.6898
183.105	87.1656	183.105	87.1758	183.105	87.1168	183.105	87.1478	183.105	87.0326	183.105	87.0852	183.105	86.9204	183.105	86.9939	183.105	86.7906	183.105	86.88	183.105	86.6558	183.105	86.7489	183.105	86.5279	183.105	86.6044	183.105	86.4161	183.105	86.4483	183.105	86.3243	183.105	86.2817	183.105	86.2504	183.105	86.1069	183.105	86.1868	183.105	85.9292	183.105	86.1238	183.105	85.7582	183.105	86.0521	183.105	85.607	183.105	85.9661	183.105	85.489	183.105	85.8658	183.105	85.4143	183.105	85.7559	183.105	85.3869	183.105	85.6448	183.105	85.4041	183.105	85.5425	183.105	85.4591
188.965	87.2043	188.965	87.2237	188.965	87.1362	188.965	87.1938	188.965	87.0241	188.965	87.1171	188.965	86.8768	188.965	86.9982	188.965	86.7069	188.965	86.8426	188.965	86.5294	188.965	86.6558	188.965	86.3596	188.965	86.443	188.965	86.2097	188.965	86.2098	188.965	86.0861	188.965	85.963	188.965	85.9877	188.965	85.7126	188.965	85.9068	188.965	85.4727	188.965	85.832	188.965	85.2605	188.965	85.7522	188.965	85.0933	188.965	85.66	188.965	84.9836	188.965	85.5536	188.965	84.9358	188.965	85.436	188.965	84.9448	188.965	85.3137	188.965	84.9993	188.965	85.1944	188.965	85.0864
196.289	87.2571	196.289	87.2876	196.289	87.181	196.289	87.2738	196.289	87.0618	196.289	87.2198	196.289	86.9067	196.289	87.1309	196.289	86.7275	196.289	87.0119	196.289	86.5391	196.289	86.8658	196.289	86.3575	196.289	86.6938	196.289	86.1964	196.289	86.496	196.289	86.064	196.289	86.2739	196.289	85.9606	196.289	86.0329	196.289	85.8793	196.289	85.7848	196.289	85.8085	196.289	85.548	196.289	85.7367	196.289	85.3441	196.289	85.6557	196.289	85.1924	196.289	85.5628	196.289	85.1038	196.289	85.4607	196.289	85.0774	196.289	85.3551	196.289	85.1029	196.289	85.254	196.289	85.1663
203.613	87.1498	203.613	87.1667	203.613	87.0737	203.613	87.1271	203.613	86.94	203.613	87.0374	203.613	86.7555	203.613	86.9055	203.613	86.5327	203.613	86.7392	203.613	86.289	203.613	86.5451	203.613	86.0447	203.613	86.3278	203.613	85.8197	203.613	86.0908	203.613	85.6295	203.613	85.8387	203.613	85.4808	203.613	85.5798	203.613	85.3707	203.613	85.3282	203.613	85.289	203.613	85.103	203.613	85.223	203.613	84.9242	203.613	85.162	203.613	84.8059	203.613	85.1002	203.613	84.7509	203.613	85.0362	203.613	84.7495	203.613	84.9705	203.613	84.7851	203.613	84.9045	203.613	84.8407
210.938	87.1803	210.938	87.1869	210.938	87.1157	210.938	87.1378	210.938	86.994	210.938	87.0379	210.938	86.8206	210.938	86.8935	210.938	86.6046	210.938	86.7106	210.938	86.359	210.938	86.4941	210.938	86.0996	210.938	86.2472	210.938	85.8427	210.938	85.9728	210.938	85.603	210.938	85.676	210.938	85.3906	210.938	85.3669	210.938	85.2102	210.938	85.0633	210.938	85.0603	210.938	84.7899	210.938	84.9365	210.938	84.5728	210.938	84.8331	210.938	84.4306	210.938	84.7455	210.938	84.3662	210.938	84.6692	210.938	84.366	210.938	84.6	210.938	84.4071	210.938	84.5334	210.938	84.4675
218.262	86.947	218.262	86.9651	218.262	86.8745	218.262	86.9315	218.262	86.7487	218.262	86.8514	218.262	86.5755	218.262	86.7312	218.262	86.365	218.262	86.5761	218.262	86.1314	218.262	86.3889	218.262	85.8906	218.262	86.1702	218.262	85.6582	218.262	85.9193	218.262	85.4467	218.262	85.6384	218.262	85.2628	218.262	85.3359	218.262	85.1069	218.262	85.0298	218.262	84.9749	218.262	84.747	218.262	84.8608	218.262	84.5172	218.262	84.7599	218.262	84.3626	218.262	84.6697	218.262	84.2884	218.262	84.5887	218.262	84.2818	218.262	84.5148	218.262	84.3193	218.262	84.4452	218.262	84.3785
225.586	86.943	225.586	86.9557	225.586	86.8638	225.586	86.9057	225.586	86.7188	225.586	86.8003	225.586	86.5136	225.586	86.6482	225.586	86.2598	225.586	86.4577	225.586	85.9738	225.586	86.235	225.586	85.6753	225.586	85.984	225.586	85.3852	225.586	85.7076	225.586	85.122	225.586	85.4107	225.586	84.8989	225.586	85.1043	225.586	84.7226	225.586	84.808	225.586	84.5938	225.586	84.5494	225.586	84.5087	225.586	84.3565	225.586	84.4605	225.586	84.2466	225.586	84.4395	225.586	84.2177	225.586	84.433	225.586	84.2481	225.586	84.4265	225.586	84.3068	225.586	84.4064	225.586	84.3653
232.91	87.151	232.91	87.1575	232.91	87.0775	232.91	87.1021	232.91	86.9354	232.91	86.9923	232.91	86.7276	232.91	86.836	232.91	86.462	232.91	86.6396	232.91	86.1512	232.91	86.4066	232.91	85.8117	232.91	86.1371	232.91	85.4619	232.91	85.8304	232.91	85.1199	232.91	85.4891	232.91	84.8011	232.91	85.1241	232.91	84.5177	232.91	84.7594	232.91	84.2797	232.91	84.4312	232.91	84.0969	232.91	84.1777	232.91	83.9773	232.91	84.023	232.91	83.9229	232.91	83.9632	232.91	83.9234	232.91	83.9671	232.91	83.9557	232.91	83.9927	232.91	83.9909	232.91	84.0055
241.699	86.8472	241.699	86.8179	241.699	86.8147	241.699	86.7332	241.699	86.7181	241.699	86.6029	241.699	86.5602	241.699	86.4379	241.699	86.3476	241.699	86.2471	241.699	86.0905	241.699	86.0354	241.699	85.8009	241.699	85.8017	241.699	85.4913	241.699	85.5411	241.699	85.1732	241.699	85.2494	241.699	84.8565	241.699	84.9297	241.699	84.551	241.699	84.5977	241.699	84.2684	241.699	84.2837	241.699	84.0246	241.699	84.0253	241.699	83.8382	241.699	83.8513	241.699	83.7231	241.699	83.7655	241.699	83.6792	241.699	83.7434	241.699	83.688	241.699	83.7463	241.699	83.7184	241.699	83.7419
250.488	86.8474	250.488	86.7952	250.488	86.8242	250.488	86.6717	250.488	86.726	250.488	86.4855	250.488	86.5591	250.488	86.2471	250.488	86.3351	250.488	85.9676	250.488	86.0697	250.488	85.6563	250.488	85.7803	250.488	85.3198	250.488	85.4823	250.488	84.9635	250.488	85.1846	250.488	84.5947	250.488	84.8877	250.488	84.227	250.488	84.5859	250.488	83.8836	250.488	84.2747	250.488	83.5944	250.488	83.9602	250.488	83.3857	250.488	83.6644	250.488	83.2664	250.488	83.4211	250.488	83.2206	250.488	83.2602	250.488	83.2146	250.488	83.1879	250.488	83.2136	250.488	83.1806	250.488	83.1996
259.277	87.0027	259.277	86.9804	259.277	86.9585	259.277	86.8957	259.277	86.8472	259.277	86.7558	259.277	86.6728	259.277	86.5683	259.277	86.443	259.277	86.3399	259.277	86.1698	259.277	86.0734	259.277	85.8687	259.277	85.7673	259.277	85.5571	259.277	85.4175	259.277	85.252	259.277	85.0216	259.277	84.966	259.277	84.5869	259.277	84.7041	259.277	84.1383	259.277	84.4649	259.277	83.7224	259.277	84.2445	259.277	83.3989	259.277	84.0439	259.277	83.2146	259.277	83.8702	259.277	83.1749	259.277	83.7316	259.277	83.2385	259.277	83.6271	259.277	83.3458	259.277	83.5412	259.277	83.4515
268.066	86.4945	268.066	86.4442	268.066	86.473	268.066	86.3283	268.066	86.3791	268.066	86.1576	268.066	86.2173	268.066	85.9447	268.066	85.9968	268.066	85.701	268.066	85.7302	268.066	85.4331	268.066	85.432	268.066	85.1417	268.066	85.1169	268.066	84.8232	268.066	84.7995	268.066	84.4747	268.066	84.492	268.066	84.1018	268.066	84.2039	268.066	83.725	268.066	83.9417	268.066	83.3822	268.066	83.7106	268.066	83.1203	268.066	83.5176	268.066	82.9736	268.066	83.371	268.066	82.943	268.066	83.275	268.066	82.9931	268.066	83.2207	268.066	83.0721	268.066	83.185	268.066	83.1403
276.855	86.4352	276.855	86.4499	276.855	86.3509	276.855	86.3923	276.855	86.2052	276.855	86.265	276.855	86.0107	276.855	86.074	276.855	85.7822	276.855	85.8252	276.855	85.5331	276.855	85.5216	276.855	85.2744	276.855	85.1615	276.855	85.013	276.855	84.7424	276.855	84.7524	276.855	84.2673	276.855	84.4939	276.855	83.7556	276.855	84.2383	276.855	83.2514	276.855	83.9878	276.855	82.8222	276.855	83.7482	276.855	82.5365	276.855	83.5288	276.855	82.4266	276.855	83.3408	276.855	82.4675	276.855	83.1914	276.855	82.5946	276.855	83.0765	276.855	82.7427	276.855	82.9784	276.855	82.8727
287.109	86.4771	287.109	86.5061	287.109	86.3599	287.109	86.4495	287.109	86.1608	287.109	86.3159	287.109	85.8943	287.109	86.1174	287.109	85.5814	287.109	85.8652	287.109	85.2461	287.109	85.5654	287.109	84.9109	287.109	85.2173	287.109	84.5923	287.109	84.8145	287.109	84.3007	287.109	84.352	287.109	84.0408	287.109	83.8364	287.109	83.8147	287.109	83.2999	287.109	83.624	287.109	82.8077	287.109	83.4704	287.109	82.4476	287.109	83.3548	287.109	82.2884	287.109	83.274	287.109	82.3327	287.109	83.2162	287.109	82.5129	287.109	83.1588	287.109	82.7366	287.109	83.0727	287.109	82.9333
297.363	86.506	297.363	86.5209	297.363	86.3885	297.363	86.4458	297.363	86.1647	297.363	86.2982	297.363	85.843	297.363	86.0948	297.363	85.4455	297.363	85.8475	297.363	85.0052	297.363	85.5587	297.363	84.559	297.363	85.221	297.363	84.1391	297.363	84.8195	297.363	83.7668	297.363	84.3391	297.363	83.4537	297.363	83.7761	297.363	83.2078	297.363	83.1547	297.363	83.0357	297.363	82.5425	297.363	82.9382	297.363	82.0501	297.363	82.9033	297.363	81.7899	297.363	82.9044	297.363	81.7996	297.363	82.9055	297.363	82.0107	297.363	82.8688	297.363	82.3016	297.363	82.7626	297.363	82.57
307.617	86.5285	307.617	86.4861	307.617	86.4921	307.617	86.3812	307.617	86.366	307.617	86.233	307.617	86.1459	307.617	86.059	307.617	85.8363	307.617	85.8703	307.617	85.4498	307.617	85.6672	307.617	85.0053	307.617	85.4376	307.617	84.5228	307.617	85.161	307.617	84.0182	307.617	84.8154	307.617	83.5031	307.617	84.3874	307.617	82.9947	307.617	83.8842	307.617	82.531	307.617	83.346	307.617	82.1767	307.617	82.8504	307.617	81.9988	307.617	82.4926	307.617	82.0162	307.617	82.3325	307.617	82.1718	307.617	82.3478	307.617	82.3618	307.617	82.4444	307.617	82.4922	307.617	82.5157
319.336	86.2878	319.336	86.2299	319.336	86.2554	319.336	86.0937	319.336	86.1289	319.336	85.8983	319.336	85.9124	319.336	85.6665	319.336	85.6166	319.336	85.419	319.336	85.2582	319.336	85.1673	319.336	84.8584	319.336	84.9102	319.336	84.4395	319.336	84.6349	319.336	84.019	319.336	84.3234	319.336	83.6036	319.336	83.9637	319.336	83.192	319.336	83.562	319.336	82.7883	319.336	83.1547	319.336	82.4224	319.336	82.8074	319.336	82.1579	319.336	82.5908	319.336	82.063	319.336	82.5325	319.336	82.1506	319.336	82.587	319.336	82.3503	319.336	82.6598	319.336	82.5496	319.336	82.6612
329.59	86.2777	329.59	86.1995	329.59	86.2625	329.59	86.0421	329.59	86.151	329.59	85.8288	329.59	85.95	329.59	85.5864	329.59	85.6719	329.59	85.335	329.59	85.3302	329.59	85.0787	329.59	84.9359	329.59	84.8027	329.59	84.4961	329.59	84.4803	329.59	84.0164	329.59	84.0856	329.59	83.5044	329.59	83.6084	329.59	82.976	329.59	83.0693	329.59	82.4606	329.59	82.5302	329.59	82.0073	329.59	82.0889	329.59	81.6822	329.59	81.8386	329.59	81.5436	329.59	81.8017	329.59	81.5968	329.59	81.9028	329.59	81.7708	329.59	82.018	329.59	81.9525	329.59	82.0468
341.309	85.6744	341.309	85.584	341.309	85.6662	341.309	85.4082	341.309	85.5624	341.309	85.1755	341.309	85.3795	341.309	84.9246	341.309	85.143	341.309	84.6928	341.309	84.8795	341.309	84.5007	341.309	84.6072	341.309	84.3407	341.309	84.3286	341.309	84.1793	341.309	84.0298	341.309	83.9721	341.309	83.689	341.309	83.6841	341.309	83.2918	341.309	83.3086	341.309	82.8491	341.309	82.8824	341.309	82.4115	341.309	82.4885	341.309	82.0684	341.309	82.2276	341.309	81.9084	341.309	82.1539	341.309	81.9519	341.309	82.2265	341.309	82.1219	341.309	82.3356	341.309	82.2947	341.309	82.3749
353.027	85.9298	353.027	85.8235	353.027	85.9034	353.027	85.5955	353.027	85.7475	353.027	85.2715	353.027	85.4795	353.027	84.8888	353.027	85.1283	353.027	84.4893	353.027	84.7298	353.027	84.1071	353.027	84.3173	353.027	83.7554	353.027	83.9105	353.027	83.4222	353.027	83.5085	353.027	83.0787	353.027	83.0917	353.027	82.6975	353.027	82.6353	353.027	82.275	353.027	82.1314	353.027	81.8504	353.027	81.6148	353.027	81.5093	353.027	81.183	353.027	81.3482	353.027	80.9689	353.027	81.3989	353.027	81.0402	353.027	81.5805	353.027	81.3132	353.027	81.7461	353.027	81.6073	353.027	81.7704
366.211	86.1568	366.211	86.0425	366.211	86.1233	366.211	85.7918	366.211	85.9472	366.211	85.433	366.211	85.6505	366.211	85.0099	366.211	85.2708	366.211	84.575	366.211	84.8543	366.211	84.1734	366.211	84.4422	366.211	83.8211	366.211	84.0516	366.211	83.4907	366.211	83.6662	366.211	83.1202	366.211	83.2424	366.211	82.6409	366.211	82.7301	366.211	82.0146	366.211	82.099	366.211	81.2749	366.211	81.3688	366.211	80.563	366.211	80.6423	366.211	80.0991	366.211	80.1071	366.211	80.016	366.211	79.9278	366.211	80.206	366.211	80.0748	366.211	80.4234	366.211	80.3321	366.211	80.4813
379.395	86.0171	379.395	85.9391	379.395	85.9618	379.395	85.7446	379.395	85.7751	379.395	85.467	379.395	85.4795	379.395	85.1508	379.395	85.1177	379.395	84.8397	379.395	84.747	379.395	84.5611	379.395	84.4206	379.395	84.3146	379.395	84.161	379.395	84.0716	379.395	83.9449	379.395	83.7859	379.395	83.7119	379.395	83.4053	379.395	83.3917	379.395	82.8833	379.395	82.9281	379.395	82.1957	379.395	82.2991	379.395	81.3726	379.395	81.539	379.395	80.5367	379.395	80.7605	379.395	79.8928	379.395	80.137	379.395	79.5878	379.395	79.7892	379.395	79.5576	379.395	79.6671	379.395	79.6156
392.578	86.0899	392.578	85.9146	392.578	86.0486	392.578	85.5383	392.578	85.7935	392.578	85.0022	392.578	85.349	392.578	84.3847	392.578	84.7743	392.578	83.8063	392.578	84.1794	392.578	83.4006	392.578	83.7145	392.578	83.2411	392.578	83.4971	392.578	83.284	392.578	83.5151	392.578	83.3966	392.578	83.6285	392.578	83.4368	392.578	83.6669	392.578	83.302	392.578	83.5082	392.578	82.9409	392.578	83.0986	392.578	82.3548	392.578	82.4535	392.578	81.6076	392.578	81.6636	392.578	80.8358	392.578	80.8877	392.578	80.2179	392.578	80.2882	392.578	79.8738	392.578	79.933	392.578	79.7967
405.762	87.0148	405.762	86.895	405.762	86.9207	405.762	86.5582	405.762	86.6151	405.762	86.0046	405.762	86.1009	405.762	85.245	405.762	85.3878	405.762	84.3174	405.762	84.5097	405.762	83.3147	405.762	83.5586	405.762	82.4118	405.762	82.7205	405.762	81.8341	405.762	82.2365	405.762	81.7072	405.762	82.2194	405.762	81.9325	405.762	82.5211	405.762	82.2827	405.762	82.877	405.762	82.5719	405.762	83.0998	405.762	82.7163	405.762	83.1273	405.762	82.7172	405.762	82.9928	405.762	82.6272	405.762	82.7821	405.762	82.5149	405.762	82.5857	405.762	82.4337	405.762	82.4582	405.762	82.4105
420.41	87.3731	420.41	87.2822	420.41	87.3115	420.41	87.0458	420.41	87.0927	420.41	86.6719	420.41	86.7147	420.41	86.1686	420.41	86.1794	420.41	85.5433	420.41	85.4937	420.41	84.8057	420.41	84.6751	420.41	83.9763	420.41	83.7646	420.41	83.1035	420.41	82.8487	420.41	82.2831	420.41	82.072	420.41	81.6565	420.41	81.5909	420.41	81.3474	420.41	81.4568	420.41	81.3626	420.41	81.5651	420.41	81.5834	420.41	81.7598	420.41	81.8664	420.41	81.9495	420.41	82.1231	420.41	82.121	420.41	82.3199	420.41	82.2813	420.41	82.4415	420.41	82.4115	420.41	82.473
435.059	86.6646	435.059	86.5692	435.059	86.6055	435.059	86.3265	435.059	86.3953	435.059	85.9565	435.059	86.0443	435.059	85.4913	435.059	85.5701	435.059	84.9701	435.059	85.0011	435.059	84.4294	435.059	84.3812	435.059	83.8943	435.059	83.7698	435.059	83.3767	435.059	83.2276	435.059	82.8858	435.059	82.7944	435.059	82.4445	435.059	82.4761	435.059	82.0996	435.059	82.2571	435.059	81.908	435.059	82.1246	435.059	81.8973	435.059	82.0808	435.059	82.0377	435.059	82.1325	435.059	82.2554	435.059	82.2689	435.059	82.4707	435.059	82.4462	435.059	82.6207	435.059	82.5985	435.059	82.6662
451.172	87.2309	451.172	87.0818	451.172	87.1968	451.172	86.7613	451.172	86.9756	451.172	86.2902	451.172	86.5693	451.172	85.6967	451.172	85.9859	451.172	85.0117	451.172	85.2434	451.172	84.2622	451.172	84.3799	451.172	83.4699	451.172	83.4685	451.172	82.6599	451.172	82.6278	451.172	81.8786	451.172	81.9981	451.172	81.2113	451.172	81.662	451.172	80.773	451.172	81.5789	451.172	80.6539	451.172	81.6318	451.172	80.8509	451.172	81.7374	451.172	81.2624	451.172	81.8907	451.172	81.7509	451.172	82.113	451.172	82.1958	451.172	82.3734	451.172	82.5099	451.172	82.5804	451.172	82.6411
465.82	86.8426	465.82	86.723	465.82	86.7987	465.82	86.4508	465.82	86.5912	465.82	86.0474	465.82	86.2285	465.82	85.5412	465.82	85.7245	465.82	84.9602	465.82	85.0966	465.82	84.324	465.82	84.366	465.82	83.642	465.82	83.5619	465.82	82.9219	465.82	82.7299	465.82	82.1861	465.82	81.9425	465.82	81.4863	465.82	81.2994	465.82	80.903	465.82	80.897	465.82	80.5253	465.82	80.7716	465.82	80.4164	465.82	80.8767	465.82	80.5803	465.82	81.1243	465.82	80.944	465.82	81.4301	465.82	81.375	465.82	81.7168	465.82	81.7328	465.82	81.9035	465.82	81.9193
483.398	86.3347	483.398	86.2193	483.398	86.2713	483.398	85.9365	483.398	86.0387	483.398	85.5192	483.398	85.6634	483.398	85.0157	483.398	85.1812	483.398	84.4764	483.398	84.629	483.398	83.9335	483.398	84.0375	483.398	83.3867	483.398	83.4267	483.398	82.8078	483.398	82.8068	483.398	82.1684	483.398	82.1856	483.398	81.4811	483.398	81.5871	483.398	80.837	483.398	81.0804	483.398	80.4031	483.398	80.7938	483.398	80.3329	483.398	80.8562	483.398	80.6412	483.398	81.2662	483.398	81.1952	483.398	81.8475	483.398	81.8139	483.398	82.3669	483.398	82.3367	483.398	82.6557	483.398	82.6419
499.512	86.6161	499.512	86.4515	499.512	86.5793	499.512	86.107	499.512	86.3426	499.512	85.6255	499.512	85.9272	499.512	85.0637	499.512	85.3717	499.512	84.4745	499.512	84.7286	499.512	83.8858	499.512	84.0548	499.512	83.2916	499.512	83.3975	499.512	82.6653	499.512	82.7788	499.512	81.9894	499.512	82.1968	499.512	81.2888	499.512	81.646	499.512	80.6559	499.512	81.143	499.512	80.2393	499.512	80.7453	499.512	80.1662	499.512	80.5532	499.512	80.442	499.512	80.6649	499.512	80.9439	499.512	81.068	499.512	81.4966	499.512	81.5874	499.512	81.9317	499.512	81.9898	499.512	82.1173
517.09	86.5093	517.09	86.3025	517.09	86.5064	517.09	85.9106	517.09	86.3034	517.09	85.3981	517.09	85.9345	517.09	84.8589	517.09	85.4471	517.09	84.3802	517.09	84.8903	517.09	83.99	517.09	84.3056	517.09	83.6363	517.09	83.7183	517.09	83.2224	517.09	83.1307	517.09	82.6653	517.09	82.5213	517.09	81.9407	517.09	81.8634	517.09	81.1173	517.09	81.168	517.09	80.3764	517.09	80.5419	517.09	79.9598	517.09	80.1947	517.09	80.0041	517.09	80.2915	517.09	80.4199	517.09	80.7467	517.09	80.9798	517.09	81.2815	517.09	81.4614	517.09	81.6444	517.09	81.7087
536.133	86.4858	536.133	86.259	536.133	86.3878	536.133	85.7161	536.133	85.9787	536.133	84.8924	536.133	85.302	536.133	83.8708	536.133	84.4468	536.133	82.8168	536.133	83.5638	536.133	81.9842	536.133	82.8449	536.133	81.5847	536.133	82.4249	536.133	81.5782	536.133	82.2722	536.133	81.6993	536.133	82.2216	536.133	81.689	536.133	82.1092	536.133	81.4368	536.133	81.8646	536.133	81.0238	536.133	81.5452	536.133	80.7216	536.133	81.335	536.133	80.8254	536.133	81.4414	536.133	81.3463	536.133	81.8785	536.133	82.0177	536.133	82.4169	536.133	82.5716	536.133	82.7907	536.133	82.8508
555.176	86.8012	555.176	86.6334	555.176	86.7018	555.176	86.2031	555.176	86.3389	555.176	85.5243	555.176	85.7257	555.176	84.6266	555.176	84.8878	555.176	83.5696	555.176	83.8701	555.176	82.4705	555.176	82.7488	555.176	81.5173	555.176	81.6425	555.176	80.8963	555.176	80.708	555.176	80.6244	555.176	80.0891	555.176	80.5012	555.176	79.8217	555.176	80.2866	555.176	79.7955	555.176	79.8942	555.176	79.8549	555.176	79.4935	555.176	79.9493	555.176	79.4542	555.176	80.1773	555.176	79.9637	555.176	80.6349	555.176	80.7549	555.176	81.2135	555.176	81.4296	555.176	81.655	555.176	81.7516
574.219	86.5863	574.219	86.432	574.219	86.4879	574.219	86.0265	574.219	86.1453	574.219	85.382	574.219	85.5771	574.219	84.5217	574.219	84.8153	574.219	83.4802	574.219	83.9082	574.219	82.3135	574.219	82.9206	574.219	81.1331	574.219	81.9236	574.219	80.1462	574.219	80.9778	574.219	79.5814	574.219	80.133	574.219	79.4378	574.219	79.4598	574.219	79.4184	574.219	79.0672	574.219	79.2256	574.219	79.0335	574.219	78.8324	574.219	79.3149	574.219	78.5637	574.219	79.7838	574.219	78.8343	574.219	80.3137	574.219	79.5934	574.219	80.7759	574.219	80.3974	574.219	81.0188	574.219	80.9086
594.727	85.6361	594.727	85.5432	594.727	85.4915	594.727	85.2247	594.727	85.1149	594.727	84.7083	594.727	84.5335	594.727	84.0308	594.727	83.8052	594.727	83.2211	594.727	83.0208	594.727	82.2884	594.727	82.2729	594.727	81.2422	594.727	81.5789	594.727	80.1685	594.727	80.8244	594.727	79.3082	594.727	79.8182	594.727	78.9347	594.727	78.4791	594.727	78.9948	594.727	77.2207	594.727	79.1258	594.727	77.117	594.727	79.077	594.727	78.2895	594.727	78.9041	594.727	79.5913	594.727	78.8664	594.727	80.4022	594.727	79.1445	594.727	80.6823	594.727	79.6533	594.727	80.5639	594.727	80.1813
615.234	85.4538	615.234	85.2929	615.234	85.2929	615.234	84.8547	615.234	84.797	615.234	84.2174	615.234	83.9839	615.234	83.4762	615.234	82.9197	615.234	82.6952	615.234	81.7633	615.234	81.8573	615.234	80.7879	615.234	80.879	615.234	80.2222	615.234	79.7368	615.234	79.954	615.234	78.6895	615.234	79.5656	615.234	78.2945	615.234	78.6543	615.234	78.657	615.234	77.0835	615.234	79.1479	615.234	75.5325	615.234	79.3027	615.234	75.8438	615.234	79.1867	615.234	77.7582	615.234	79.1934	615.234	79.4946	615.234	79.5855	615.234	80.5174	615.234	80.2002	615.234	80.8735	615.234	80.7104
637.207	86.669	637.207	86.2853	637.207	86.6646	637.207	85.5333	637.207	86.275	637.207	84.496	637.207	85.5019	637.207	83.3638	637.207	84.3463	637.207	82.4081	637.207	82.8652	637.207	81.7822	637.207	81.3361	637.207	81.3218	637.207	80.3858	637.207	80.6876	637.207	80.3629	637.207	79.6803	637.207	80.6324	637.207	78.5145	637.207	80.3622	637.207	77.9498	637.207	79.0642	637.207	78.4408	637.207	76.7161	637.207	79.4006	637.207	75.4603	637.207	80.3096	637.207	77.9023	637.207	81.1482	637.207	80.694	637.207	81.9926	637.207	82.4169	637.207	82.7524	637.207	83.1806	637.207	83.2207
659.18	87.9399	659.18	87.6231	659.18	87.9247	659.18	86.9947	659.18	87.5703	659.18	86.1018	659.18	86.8681	659.18	85.0323	659.18	85.805	659.18	83.9223	659.18	84.3864	659.18	82.9129	659.18	82.7207	659.18	82.0244	659.18	81.1798	659.18	81.0916	659.18	80.3495	659.18	79.9261	659.18	80.2806	659.18	78.6245	659.18	80.2448	659.18	77.7984	659.18	79.5111	659.18	77.9453	659.18	77.6561	659.18	78.5932	659.18	75.2542	659.18	79.2571	659.18	76.0038	659.18	80.044	659.18	79.1615	659.18	81.0906	659.18	81.4573	659.18	82.1202	659.18	82.5703	659.18	82.7144
682.617	88.1522	682.617	87.9058	682.617	88.0427	682.617	87.306	682.617	87.587	682.617	86.3796	682.617	86.7955	682.617	85.2007	682.617	85.6706	682.617	83.9331	682.617	84.2211	682.617	82.8316	682.617	82.5398	682.617	82.069	682.617	80.9952	682.617	81.5185	682.617	80.2509	682.617	80.8846	682.617	80.4249	682.617	80.0332	682.617	80.7278	682.617	79.1938	682.617	80.404	682.617	78.8296	682.617	79.0595	682.617	79.0594	682.617	76.8656	682.617	79.6276	682.617	76.1949	682.617	80.4321	682.617	78.6337	682.617	81.4228	682.617	81.0702	682.617	82.3218	682.617	82.4153	682.617	82.7543
707.52	88.271	707.52	87.9578	707.52	88.2416	707.52	87.3105	707.52	87.8809	707.52	86.3721	707.52	87.198	707.52	85.2401	707.52	86.1767	707.52	84.0957	707.52	84.7758	707.52	83.1606	707.52	82.994	707.52	82.4925	707.52	81.0817	707.52	81.8688	707.52	79.829	707.52	81.017	707.52	79.8468	707.52	79.9425	707.52	80.3683	707.52	79.1002	707.52	80.3908	707.52	78.9418	707.52	79.5082	707.52	79.1867	707.52	78.0783	707.52	79.4455	707.52	77.9572	707.52	79.9005	707.52	79.8734	707.52	80.8394	707.52	81.7746	707.52	81.9731	707.52	82.7377	707.52	82.7358
732.422	87.6265	732.422	87.3823	732.422	87.5508	732.422	86.812	732.422	87.1816	732.422	85.9409	732.422	86.5412	732.422	84.8443	732.422	85.6178	732.422	83.6863	732.422	84.3488	732.422	82.7038	732.422	82.6495	732.422	81.9983	732.422	80.5764	732.422	81.3722	732.422	78.8263	732.422	80.5737	732.422	78.6309	732.422	79.6625	732.422	79.3945	732.422	79.052	732.422	79.5545	732.422	78.9105	732.422	78.3944	732.422	78.8104	732.422	76.0196	732.422	78.4865	732.422	75.2785	732.422	78.4435	732.422	78.0748	732.422	79.3836	732.422	80.5841	732.422	80.8162	732.422	81.7797	732.422	81.7799
757.324	87.2006	757.324	87.0812	757.324	87.0445	757.324	86.6667	757.324	86.6223	757.324	85.9053	757.324	85.9415	757.324	84.7332	757.324	84.9859	757.324	83.1794	757.324	83.6923	757.324	81.5116	757.324	81.9685	757.324	80.1766	757.324	79.8398	757.324	79.326	757.324	77.9276	757.324	78.7126	757.324	77.5054	757.324	78.269	757.324	78.213	757.324	78.2531	757.324	78.5176	757.324	78.6525	757.324	77.7061	757.324	79.0315	757.324	75.8676	757.324	79.1334	757.324	74.9801	757.324	79.1338	757.324	77.0226	757.324	79.4169	757.324	79.2972	757.324	80.0487	757.324	80.4596	757.324	80.5805
785.156	86.7345	785.156	86.6778	785.156	86.5566	785.156	86.3092	785.156	86.2103	785.156	85.5599	785.156	85.7171	785.156	84.4115	785.156	85.021	785.156	82.992	785.156	83.9953	785.156	81.6462	785.156	82.4971	785.156	80.6677	785.156	80.4888	785.156	79.8023	785.156	78.3719	785.156	78.4335	785.156	77.2505	785.156	76.3966	785.156	77.2934	785.156	75.3685	785.156	77.0955	785.156	76.7213	785.156	75.7429	785.156	78.0629	785.156	73.7431	785.156	78.3825	785.156	74.6576	785.156	78.3005	785.156	77.9286	785.156	78.9792	785.156	80.3382	785.156	80.3598	785.156	81.4489	785.156	81.3825
811.523	85.8434	811.523	85.856	811.523	85.5509	811.523	85.4576	811.523	85.0868	811.523	84.5191	811.523	84.5117	811.523	82.9784	811.523	83.8035	811.523	81.0196	811.523	82.8381	811.523	79.3639	811.523	81.4186	811.523	78.7849	811.523	79.3735	811.523	78.761	811.523	76.9988	811.523	78.2553	811.523	75.9804	811.523	76.9232	811.523	76.8069	811.523	75.8706	811.523	77.1514	811.523	76.8709	811.523	75.6657	811.523	78.498	811.523	72.3149	811.523	79.2885	811.523	73.0858	811.523	79.2128	811.523	77.1693	811.523	78.8797	811.523	79.3976	811.523	79.0443	811.523	80.0242	811.523	79.6735
840.82	85.3087	840.82	85.4832	840.82	84.8338	840.82	85.2467	840.82	84.1884	840.82	84.4909	840.82	83.5004	840.82	83.1209	840.82	82.8122	840.82	81.1404	840.82	82.0204	840.82	78.8756	840.82	80.8953	840.82	77.1958	840.82	79.1654	840.82	76.4769	840.82	76.8077	840.82	75.5647	840.82	75.0553	840.82	73.6486	840.82	75.6141	840.82	72.931	840.82	76.587	840.82	75.2942	840.82	76.1071	840.82	77.24	840.82	73.6457	840.82	77.8144	840.82	71.9302	840.82	77.5916	840.82	75.4748	840.82	77.6454	840.82	78.4253	840.82	78.491	840.82	79.5797	840.82	79.4129
870.117	84.5159	870.117	84.5769	870.117	84.1029	870.117	84.2104	870.117	83.5047	870.117	83.384	870.117	82.9068	870.117	82.062	870.117	82.3201	870.117	80.2622	870.117	81.5288	870.117	78.2466	870.117	80.2435	870.117	76.6031	870.117	78.2722	870.117	75.5085	870.117	76.0056	870.117	74.0305	870.117	75.3702	870.117	71.0631	870.117	76.5901	870.117	69.6177	870.117	77.0754	870.117	73.8834	870.117	75.3292	870.117	76.9852	870.117	69.7798	870.117	78.2514	870.117	69.3144	870.117	78.4873	870.117	75.9247	870.117	78.6391	870.117	78.8825	870.117	79.2027	870.117	79.899	870.117	79.819
900.879	83.8579	900.879	84.1176	900.879	83.2219	900.879	83.8625	900.879	82.4458	900.879	82.9628	900.879	81.8622	900.879	81.2822	900.879	81.5994	900.879	78.8052	900.879	81.3352	900.879	76.2503	900.879	80.4935	900.879	75.7648	900.879	78.3783	900.879	76.7996	900.879	74.1299	900.879	76.5541	900.879	71.368	900.879	73.1165	900.879	75.8315	900.879	60.0035	900.879	78.0608	900.879	71.5956	900.879	77.1302	900.879	76.7842	900.879	71.2974	900.879	78.2319	900.879	66.8408	900.879	78.1096	900.879	77.3017	900.879	78.2683	900.879	80.831	900.879	79.6404	900.879	81.7634	900.879	81.1467
933.105	83.1514	933.105	83.5378	933.105	82.2131	933.105	83.4352	933.105	80.7309	933.105	82.7988	933.105	79.2686	933.105	81.4411	933.105	79.0868	933.105	78.9695	933.105	80.1172	933.105	74.5696	933.105	80.8949	933.105	70.5145	933.105	80.3783	933.105	75.275	933.105	77.5577	933.105	77.9043	933.105	69.361	933.105	76.8896	933.105	71.3639	933.105	69.9983	933.105	77.7054	933.105	70.1734	933.105	78.5567	933.105	78.2212	933.105	74.58	933.105	80.8218	933.105	68.945	933.105	81.1757	933.105	79.152	933.105	80.9844	933.105	83.1081	933.105	81.9257	933.105	84.1891	933.105	83.4976
965.332	83.5687	965.332	82.9101	965.332	83.6565	965.332	82.2792	965.332	82.7248	965.332	81.9658	965.332	80.5804	965.332	81.699	965.332	77.7324	965.332	80.9484	965.332	77.5123	965.332	78.863	965.332	79.9739	965.332	73.436	965.332	81.2446	965.332	68.6261	965.332	80.2639	965.332	76.3698	965.332	75.6178	965.332	78.4135	965.332	59.7428	965.332	76.6424	965.332	76.8871	965.332	71.8219	965.332	80.7891	965.332	75.3754	965.332	80.4168	965.332	79.9991	965.332	76.3811	965.332	81.9143	965.332	78.3099	965.332	82.6479	965.332	83.3355	965.332	83.7077	965.332	85.231	965.332	85.0051
1,000.49	85.5495	1,000.49	84.3757	1,000.49	86.0041	1,000.49	82.8237	1,000.49	85.6085	1,000.49	81.5859	1,000.49	84.3506	1,000.49	81.3464	1,000.49	82.2459	1,000.49	81.6363	1,000.49	79.5727	1,000.49	81.2809	1,000.49	78.1827	1,000.49	79.2215	1,000.49	79.2554	1,000.49	73.9991	1,000.49	80.0202	1,000.49	67.8301	1,000.49	78.5945	1,000.49	74.315	1,000.49	72.4811	1,000.49	76.2309	1,000.49	69.2395	1,000.49	73.1943	1,000.49	78.114	1,000.49	61.5008	1,000.49	80.1716	1,000.49	74.9267	1,000.49	77.8472	1,000.49	79.3894	1,000.49	71.3665	1,000.49	81.0204	1,000.49	78.288	1,000.49	81.9758	1,000.49	82.1046	1,000.49	82.729
1,035.64	85.4622	1,035.64	84.7722	1,035.64	85.5474	1,035.64	83.6528	1,035.64	84.9625	1,035.64	82.4484	1,035.64	83.7462	1,035.64	81.6608	1,035.64	81.9553	1,035.64	81.3872	1,035.64	79.6825	1,035.64	80.9106	1,035.64	77.8192	1,035.64	79.3253	1,035.64	77.8528	1,035.64	76.2216	1,035.64	78.3805	1,035.64	74.0814	1,035.64	77.2457	1,035.64	75.6654	1,035.64	73.1906	1,035.64	75.8544	1,035.64	72.4997	1,035.64	71.9738	1,035.64	77.3668	1,035.64	48.2845	1,035.64	78.707	1,035.64	70.3644	1,035.64	75.8353	1,035.64	75.0337	1,035.64	63.9773	1,035.64	77.0134	1,035.64	74.9247	1,035.64	78.6588	1,035.64	79.2886	1,035.64	79.8568
1,072.27	83.9	1,072.27	83.0687	1,072.27	84.1588	1,072.27	81.7091	1,072.27	83.8115	1,072.27	80.0931	1,072.27	82.8506	1,072.27	79.1723	1,072.27	81.1734	1,072.27	79.4408	1,072.27	78.515	1,072.27	79.5597	1,072.27	75.3831	1,072.27	78.1726	1,072.27	75.396	1,072.27	75.0842	1,072.27	77.2833	1,072.27	75.1557	1,072.27	76.8759	1,072.27	77.9487	1,072.27	71.5125	1,072.27	78.0144	1,072.27	69.4268	1,072.27	73.8397	1,072.27	77.71	1,072.27	47.3402	1,072.27	79.876	1,072.27	72.2518	1,072.27	77.9215	1,072.27	76.4639	1,072.27	70.5916	1,072.27	77.6904	1,072.27	74.5366	1,072.27	78.5973	1,072.27	78.8159	1,072.27	79.4602
1,108.89	85.0034	1,108.89	84.8577	1,108.89	84.8429	1,108.89	84.262	1,108.89	84.3912	1,108.89	82.9212	1,108.89	83.716	1,108.89	80.8388	1,108.89	82.837	1,108.89	79.1737	1,108.89	81.4622	1,108.89	79.0318	1,108.89	78.994	1,108.89	78.4603	1,108.89	75.3115	1,108.89	75.0586	1,108.89	74.5611	1,108.89	71.2252	1,108.89	76.3518	1,108.89	76.7223	1,108.89	74.6281	1,108.89	79.1541	1,108.89	59.0202	1,108.89	77.9845	1,108.89	75.4935	1,108.89	71.4912	1,108.89	80.9227	1,108.89	65.3356	1,108.89	81.34	1,108.89	75.5229	1,108.89	76.9149	1,108.89	78.8902	1,108.89	71.793	1,108.89	80.7428	1,108.89	78.9945	1,108.89	81.1877
1,148.44	87.0672	1,148.44	87.1559	1,148.44	86.6432	1,148.44	86.6374	1,148.44	86.0022	1,148.44	85.3223	1,148.44	85.2352	1,148.44	83.3982	1,148.44	84.4415	1,148.44	81.5254	1,148.44	83.6138	1,148.44	80.7198	1,148.44	82.4801	1,148.44	80.1812	1,148.44	80.4691	1,148.44	77.5559	1,148.44	77.7515	1,148.44	71.5747	1,148.44	77.4525	1,148.44	74.5206	1,148.44	77.5473	1,148.44	78.9757	1,148.44	72.9314	1,148.44	79.4749	1,148.44	70.667	1,148.44	76.0371	1,148.44	79.6935	1,148.44	67.8437	1,148.44	81.884	1,148.44	71.5613	1,148.44	78.664	1,148.44	75.8982	1,148.44	56.1268	1,148.44	78.7334	1,148.44	76.9906	1,148.44	79.8503
1,189.45	87.7305	1,189.45	87.6846	1,189.45	87.3235	1,189.45	87.0713	1,189.45	86.6779	1,189.45	85.9998	1,189.45	85.8938	1,189.45	84.6796	1,189.45	84.91	1,189.45	83.2088	1,189.45	83.7982	1,189.45	81.8606	1,189.45	82.7378	1,189.45	80.624	1,189.45	81.4707	1,189.45	78.3363	1,189.45	79.6615	1,189.45	72.8918	1,189.45	77.9725	1,189.45	69.3556	1,189.45	76.6157	1,189.45	76.2559	1,189.45	73.194	1,189.45	77.917	1,189.45	72.8526	1,189.45	76.4302	1,189.45	78.9713	1,189.45	74.6356	1,189.45	80.9092	1,189.45	74.5321	1,189.45	78.3693	1,189.45	75.3407	1,189.45	68.8534	1,189.45	77.6721	1,189.45	75.2991	1,189.45	78.5837
1,230.47	87.2269	1,230.47	87.3806	1,230.47	86.7596	1,230.47	87.111	1,230.47	86.2226	1,230.47	86.3877	1,230.47	85.6899	1,230.47	85.0285	1,230.47	84.9745	1,230.47	82.946	1,230.47	84.0106	1,230.47	80.9738	1,230.47	82.9211	1,230.47	80.1818	1,230.47	81.627	1,230.47	79.2868	1,230.47	80.0181	1,230.47	76.2628	1,230.47	78.5325	1,230.47	71.7449	1,230.47	77.1461	1,230.47	74.554	1,230.47	74.0008	1,230.47	75.7892	1,230.47	68.5629	1,230.47	74.6524	1,230.47	75.7392	1,230.47	75.5286	1,230.47	79.1511	1,230.47	76.4802	1,230.47	77.1344	1,230.47	76.3722	1,230.47	68.785	1,230.47	77.5018	1,230.47	75.7257	1,230.47	78.3582
1,274.41	86.9538	1,274.41	87.1425	1,274.41	86.5347	1,274.41	86.844	1,274.41	86.1552	1,274.41	86.0284	1,274.41	85.7539	1,274.41	84.835	1,274.41	84.9932	1,274.41	83.1744	1,274.41	83.9183	1,274.41	81.244	1,274.41	82.8121	1,274.41	80.0457	1,274.41	81.3116	1,274.41	79.1667	1,274.41	79.0218	1,274.41	77.173	1,274.41	77.5272	1,274.41	75.1146	1,274.41	77.5182	1,274.41	75.5706	1,274.41	75.8998	1,274.41	74.7898	1,274.41	72.2376	1,274.41	71.7828	1,274.41	76.6658	1,274.41	73.6894	1,274.41	79.2929	1,274.41	76.2463	1,274.41	76.9715	1,274.41	76.89	1,274.41	69.5661	1,274.41	77.6	1,274.41	74.8764	1,274.41	77.7421
1,319.82	86.1612	1,319.82	86.4147	1,319.82	85.716	1,319.82	86.0808	1,319.82	85.6402	1,319.82	85.5382	1,319.82	85.5955	1,319.82	84.9896	1,319.82	84.8478	1,319.82	83.7583	1,319.82	83.3955	1,319.82	81.5371	1,319.82	82.1593	1,319.82	79.3782	1,319.82	81.3362	1,319.82	78.0564	1,319.82	79.7516	1,319.82	75.4283	1,319.82	77.3125	1,319.82	70.4799	1,319.82	75.3735	1,319.82	73.9362	1,319.82	73.5391	1,319.82	75.475	1,319.82	72.0063	1,319.82	71.6699	1,319.82	74.9795	1,319.82	71.9386	1,319.82	76.9883	1,319.82	74.9086	1,319.82	75.4628	1,319.82	73.403	1,319.82	70.102	1,319.82	74.5202	1,319.82	73.9623	1,319.82	76.5644
1,366.7	85.1908	1,366.7	84.8969	1,366.7	85.0775	1,366.7	84.3717	1,366.7	85.041	1,366.7	84.2557	1,366.7	85.3047	1,366.7	83.8835	1,366.7	85.2678	1,366.7	82.5118	1,366.7	84.1468	1,366.7	80.9117	1,366.7	81.8203	1,366.7	80.3739	1,366.7	79.791	1,366.7	80.3921	1,366.7	79.2216	1,366.7	79.0754	1,366.7	77.8522	1,366.7	75.2189	1,366.7	74.3723	1,366.7	72.9004	1,366.7	70.9636	1,366.7	74.1957	1,366.7	68.4918	1,366.7	72.1239	1,366.7	71.2954	1,366.7	73.0709	1,366.7	76.6628	1,366.7	75.7992	1,366.7	77.0637	1,366.7	74.2814	1,366.7	72.2571	1,366.7	71.8995	1,366.7	73.7805	1,366.7	75.049
1,413.57	84.5895	1,413.57	84.1163	1,413.57	84.9171	1,413.57	83.9799	1,413.57	84.9116	1,413.57	84.127	1,413.57	84.7055	1,413.57	83.639	1,413.57	84.2993	1,413.57	82.0935	1,413.57	83.2374	1,413.57	80.2528	1,413.57	81.2281	1,413.57	79.562	1,413.57	79.3861	1,413.57	80.0349	1,413.57	79.174	1,413.57	79.4189	1,413.57	79.102	1,413.57	76.6839	1,413.57	77.699	1,413.57	73.7818	1,413.57	74.2976	1,413.57	73.2474	1,413.57	67.7338	1,413.57	70.0467	1,413.57	73.0085	1,413.57	68.312	1,413.57	77.2977	1,413.57	74.8587	1,413.57	76.4698	1,413.57	75.633	1,413.57	71.4393	1,413.57	72.6328	1,413.57	72.2219	1,413.57	72.3969
1,463.38	84.7013	1,463.38	84.2435	1,463.38	85.1021	1,463.38	84.2895	1,463.38	85.0596	1,463.38	84.3768	1,463.38	84.5641	1,463.38	84.0264	1,463.38	83.8753	1,463.38	83.3802	1,463.38	83.2214	1,463.38	81.9891	1,463.38	82.1214	1,463.38	78.2132	1,463.38	79.6352	1,463.38	73.9436	1,463.38	75.9694	1,463.38	73.4325	1,463.38	74.7045	1,463.38	72.0903	1,463.38	75.5755	1,463.38	73.4504	1,463.38	74.8921	1,463.38	76.0413	1,463.38	73.7333	1,463.38	74.2807	1,463.38	72.9949	1,463.38	69.2215	1,463.38	72.1459	1,463.38	73.9677	1,463.38	73.9985	1,463.38	74.9098	1,463.38	71.0658	1,463.38	71.4666	1,463.38	67.7693	1,463.38	70.3768
1,516.11	84.7903	1,516.11	84.3498	1,516.11	85.2328	1,516.11	84.5154	1,516.11	85.2152	1,516.11	84.466	1,516.11	84.8729	1,516.11	83.6064	1,516.11	84.527	1,516.11	82.5507	1,516.11	83.9159	1,516.11	81.4629	1,516.11	82.3598	1,516.11	79.1874	1,516.11	79.8153	1,516.11	75.0903	1,516.11	77.2211	1,516.11	71.7759	1,516.11	76.0101	1,516.11	71.1051	1,516.11	76.6069	1,516.11	70.2384	1,516.11	76.7025	1,516.11	73.9268	1,516.11	73.5425	1,516.11	75.8903	1,516.11	68.4385	1,516.11	71.7882	1,516.11	74.4385	1,516.11	66.9217	1,516.11	74.8947	1,516.11	72.3456	1,516.11	69.8689	1,516.11	71.1662	1,516.11	67.8237	1,516.11	69.0008
1,568.85	85.0551	1,568.85	85.1939	1,568.85	85.4585	1,568.85	85.5614	1,568.85	85.7339	1,568.85	85.0123	1,568.85	85.3186	1,568.85	83.8344	1,568.85	84.4965	1,568.85	82.8782	1,568.85	83.8451	1,568.85	81.2433	1,568.85	82.5016	1,568.85	78.7787	1,568.85	79.6874	1,568.85	76.4433	1,568.85	76.793	1,568.85	74.4235	1,568.85	75.9121	1,568.85	73.5479	1,568.85	75.9914	1,568.85	70.2251	1,568.85	75.3364	1,568.85	66.7855	1,568.85	73.3215	1,568.85	74.8295	1,568.85	71.9617	1,568.85	73.9192	1,568.85	73.8865	1,568.85	69.1896	1,568.85	74.2378	1,568.85	69.5577	1,568.85	70.7655	1,568.85	67.5717	1,568.85	68.6384	1,568.85	68.2605
1,624.51	84.6363	1,624.51	85.2981	1,624.51	85.2433	1,624.51	85.7938	1,624.51	86.0436	1,624.51	84.9052	1,624.51	85.7237	1,624.51	84.0708	1,624.51	84.5068	1,624.51	83.7603	1,624.51	83.4899	1,624.51	82.1815	1,624.51	82.1347	1,624.51	79.326	1,624.51	79.0518	1,624.51	76.6778	1,624.51	74.9892	1,624.51	73.593	1,624.51	74.3587	1,624.51	74.3984	1,624.51	76.8367	1,624.51	74.9574	1,624.51	76.5774	1,624.51	67.4847	1,624.51	73.727	1,624.51	72.6111	1,624.51	74.0132	1,624.51	76.2081	1,624.51	73.7663	1,624.51	74.0436	1,624.51	73.2357	1,624.51	72.2468	1,624.51	70.6118	1,624.51	70.5493	1,624.51	65.3208	1,624.51	66.7568
1,681.64	83.8057	1,681.64	84.4269	1,681.64	84.5903	1,681.64	85.0837	1,681.64	85.8208	1,681.64	85.1775	1,681.64	86.0165	1,681.64	84.626	1,681.64	85.0125	1,681.64	82.8331	1,681.64	82.857	1,681.64	80.133	1,681.64	80.3211	1,681.64	78.3319	1,681.64	79.2466	1,681.64	77.8111	1,681.64	77.9717	1,681.64	76.1396	1,681.64	74.102	1,681.64	72.7652	1,681.64	73.6138	1,681.64	73.5896	1,681.64	75.007	1,681.64	72.6828	1,681.64	74.5505	1,681.64	69.6335	1,681.64	73.8734	1,681.64	73.8793	1,681.64	69.4296	1,681.64	75.1295	1,681.64	72.63	1,681.64	74.5893	1,681.64	72.558	1,681.64	70.264	1,681.64	63.47	1,681.64	62.8343
1,741.7	84.7746	1,741.7	85.1199	1,741.7	84.9573	1,741.7	85.4159	1,741.7	85.7235	1,741.7	85.442	1,741.7	85.941	1,741.7	84.87	1,741.7	85.123	1,741.7	83.2898	1,741.7	83.1158	1,741.7	80.491	1,741.7	80.019	1,741.7	77.5452	1,741.7	78.3851	1,741.7	76.781	1,741.7	78.0922	1,741.7	77.0759	1,741.7	75.1398	1,741.7	74.3968	1,741.7	71.6635	1,741.7	72.9657	1,741.7	72.0272	1,741.7	71.7739	1,741.7	71.8151	1,741.7	70.18	1,741.7	75.1835	1,741.7	71.5102	1,741.7	70.8556	1,741.7	73.4325	1,741.7	71.1149	1,741.7	74.3545	1,741.7	74.2006	1,741.7	69.5678	1,741.7	68.2033	1,741.7	59.9444
1,803.22	84.8067	1,803.22	85.4216	1,803.22	84.9771	1,803.22	85.9554	1,803.22	85.4367	1,803.22	85.8268	1,803.22	85.4816	1,803.22	84.8002	1,803.22	84.6164	1,803.22	82.3909	1,803.22	82.4527	1,803.22	80.1024	1,803.22	79.5332	1,803.22	78.7084	1,803.22	77.5092	1,803.22	76.3247	1,803.22	76.2473	1,803.22	74.0452	1,803.22	73.6711	1,803.22	71.9747	1,803.22	71.9804	1,803.22	71.3008	1,803.22	71.329	1,803.22	70.6439	1,803.22	62.8381	1,803.22	71.3741	1,803.22	72.6225	1,803.22	73.9995	1,803.22	73.4054	1,803.22	75.0026	1,803.22	68.2262	1,803.22	76.1773	1,803.22	73.138	1,803.22	73.3576	1,803.22	70.0073	1,803.22	66.5597
1,866.21	85.0846	1,866.21	85.3505	1,866.21	85.281	1,866.21	85.6609	1,866.21	85.7575	1,866.21	85.8502	1,866.21	85.6566	1,866.21	84.7338	1,866.21	84.8142	1,866.21	82.2672	1,866.21	82.8928	1,866.21	80.6567	1,866.21	79.5606	1,866.21	78.2049	1,866.21	77.1969	1,866.21	72.8127	1,866.21	77.6172	1,866.21	70.3532	1,866.21	75.66	1,866.21	68.0665	1,866.21	71.2988	1,866.21	61.6398	1,866.21	72.0801	1,866.21	71.1331	1,866.21	68.003	1,866.21	70.5947	1,866.21	70.5979	1,866.21	72.0881	1,866.21	73.7289	1,866.21	73.319	1,866.21	69.8611	1,866.21	75.1463	1,866.21	72.6969	1,866.21	71.9487	1,866.21	70.296	1,866.21	64.2558
1,932.13	84.0326	1,932.13	84.7647	1,932.13	84.5813	1,932.13	85.9967	1,932.13	85.4464	1,932.13	86.1029	1,932.13	85.4007	1,932.13	84.4522	1,932.13	84.2842	1,932.13	82.3787	1,932.13	82.6059	1,932.13	80.5473	1,932.13	80.4805	1,932.13	77.2318	1,932.13	77.3123	1,932.13	73.2068	1,932.13	76.2756	1,932.13	70.8883	1,932.13	76.4007	1,932.13	73.7225	1,932.13	69.4919	1,932.13	72.7685	1,932.13	70.9413	1,932.13	63.9669	1,932.13	70.0591	1,932.13	71.083	1,932.13	69.3382	1,932.13	74.9937	1,932.13	73.9706	1,932.13	73.9608	1,932.13	70.4806	1,932.13	73.0895	1,932.13	72.6653	1,932.13	72.4577	1,932.13	69.4343	1,932.13	67.0416
1,999.51	85.0043	1,999.51	85.1216	1,999.51	84.9772	1,999.51	85.8791	1,999.51	84.943	1,999.51	86.0793	1,999.51	85.1115	1,999.51	84.7321	1,999.51	84.2037	1,999.51	82.9384	1,999.51	81.816	1,999.51	80.5338	1,999.51	79.9427	1,999.51	76.2663	1,999.51	77.9851	1,999.51	74.4139	1,999.51	75.5923	1,999.51	73.8344	1,999.51	74.6589	1,999.51	67.9316	1,999.51	69.9851	1,999.51	71.7814	1,999.51	69.045	1,999.51	70.8184	1,999.51	69.3542	1,999.51	62.5379	1,999.51	66.5101	1,999.51	73.5525	1,999.51	73.9612	1,999.51	74.816	1,999.51	69.2934	1,999.51	74.7084	1,999.51	73.6274	1,999.51	72.3622	1,999.51	71.7757	1,999.51	67.6974
2,069.82	85.8279	2,069.82	85.6504	2,069.82	85.6194	2,069.82	85.507	2,069.82	84.9888	2,069.82	84.9095	2,069.82	84.4647	2,069.82	83.2157	2,069.82	83.9264	2,069.82	81.4166	2,069.82	82.0559	2,069.82	79.0847	2,069.82	79.41	2,069.82	77.103	2,069.82	77.6647	2,069.82	75.5257	2,069.82	75.5136	2,069.82	73.4379	2,069.82	74.3064	2,069.82	68.1954	2,069.82	72.0802	2,069.82	71.4538	2,069.82	67.2405	2,069.82	73.6352	2,069.82	70.5176	2,069.82	64.8823	2,069.82	68.8111	2,069.82	70.3643	2,069.82	73.2789	2,069.82	73.3415	2,069.82	69.509	2,069.82	74.7562	2,069.82	71.5029	2,069.82	72.3789	2,069.82	69.1448	2,069.82	65.4807
2,143.07	85.2397	2,143.07	86.2306	2,143.07	85.3017	2,143.07	86.3906	2,143.07	85.6242	2,143.07	85.1286	2,143.07	84.6533	2,143.07	84.1148	2,143.07	83.2222	2,143.07	82.8678	2,143.07	81.2619	2,143.07	79.1774	2,143.07	78.9894	2,143.07	77.0537	2,143.07	77.9621	2,143.07	75.2329	2,143.07	76.0284	2,143.07	73.2727	2,143.07	75.777	2,143.07	71.3185	2,143.07	74.359	2,143.07	63.6478	2,143.07	69.0334	2,143.07	73.5149	2,143.07	70.4589	2,143.07	71.2099	2,143.07	66.7749	2,143.07	69.1328	2,143.07	73.7002	2,143.07	67.7826	2,143.07	70.0098	2,143.07	71.7174	2,143.07	67.6127	2,143.07	71.9106	2,143.07	63.8138	2,143.07	61.4671
2,219.24	85.2424	2,219.24	85.0665	2,219.24	85.2053	2,219.24	85.827	2,219.24	85.5086	2,219.24	85.7785	2,219.24	84.7944	2,219.24	84.4502	2,219.24	82.9369	2,219.24	81.9637	2,219.24	81.7305	2,219.24	77.9013	2,219.24	79.626	2,219.24	78.298	2,219.24	76.4874	2,219.24	76.2389	2,219.24	74.6556	2,219.24	68.1334	2,219.24	73.0953	2,219.24	71.7662	2,219.24	73.9535	2,219.24	68.0043	2,219.24	69.8785	2,219.24	69.2407	2,219.24	70.8982	2,219.24	71.0079	2,219.24	60.7289	2,219.24	69.1734	2,219.24	72.6682	2,219.24	71.0016	2,219.24	69.3464	2,219.24	72.6935	2,219.24	68.7275	2,219.24	71.7188	2,219.24	64.096	2,219.24	59.6552
2,296.88	85.3875	2,296.88	85.094	2,296.88	85.0242	2,296.88	85.5156	2,296.88	84.2854	2,296.88	84.6013	2,296.88	84.9443	2,296.88	83.1487	2,296.88	83.7477	2,296.88	81.1395	2,296.88	81.7273	2,296.88	80.3022	2,296.88	80.1653	2,296.88	77.0802	2,296.88	77.3421	2,296.88	73.8373	2,296.88	75.1017	2,296.88	72.2892	2,296.88	70.652	2,296.88	68.3458	2,296.88	68.3769	2,296.88	73.2088	2,296.88	68.4903	2,296.88	63.9361	2,296.88	67.9652	2,296.88	70.2431	2,296.88	63.673	2,296.88	69.0274	2,296.88	65.3308	2,296.88	70.1488	2,296.88	70.6659	2,296.88	71.0125	2,296.88	69.3918	2,296.88	70.9176	2,296.88	56.7612	2,296.88	55.3173
2,378.91	86.5422	2,378.91	86.3157	2,378.91	86.3847	2,378.91	85.1429	2,378.91	85.0797	2,378.91	84.3452	2,378.91	84.0914	2,378.91	83.5802	2,378.91	83.4353	2,378.91	81.7493	2,378.91	81.8651	2,378.91	80.663	2,378.91	80.6308	2,378.91	76.767	2,378.91	78.6813	2,378.91	71.8062	2,378.91	75.0582	2,378.91	71.2438	2,378.91	73.6721	2,378.91	69.1151	2,378.91	68.7079	2,378.91	69.6488	2,378.91	64.5886	2,378.91	69.4889	2,378.91	64.8294	2,378.91	68.5876	2,378.91	68.5402	2,378.91	70.3056	2,378.91	68.3765	2,378.91	70.9983	2,378.91	68.1365	2,378.91	68.7658	2,378.91	69.5154	2,378.91	68.7051	2,378.91	58.4388	2,378.91	59.8924
2,462.4	86.1185	2,462.4	86.0443	2,462.4	85.7572	2,462.4	84.9616	2,462.4	85.1134	2,462.4	84.3296	2,462.4	83.8772	2,462.4	83.96	2,462.4	83.1143	2,462.4	81.7503	2,462.4	82.1561	2,462.4	78.5409	2,462.4	79.8134	2,462.4	77.531	2,462.4	76.6917	2,462.4	74.2723	2,462.4	72.6623	2,462.4	71.0998	2,462.4	71.3284	2,462.4	69.2461	2,462.4	69.7213	2,462.4	68.3442	2,462.4	64.8186	2,462.4	67.3576	2,462.4	67.4753	2,462.4	68.297	2,462.4	68.8945	2,462.4	70.8152	2,462.4	70.5134	2,462.4	70.7035	2,462.4	68.7274	2,462.4	67.5034	2,462.4	68.8046	2,462.4	66.4681	2,462.4	64.7079	2,462.4	62.9934
2,548.83	86.0763	2,548.83	85.1351	2,548.83	85.1895	2,548.83	84.4485	2,548.83	84.5593	2,548.83	84.454	2,548.83	83.9263	2,548.83	83.1139	2,548.83	82.5891	2,548.83	81.1061	2,548.83	81.4864	2,548.83	80.0144	2,548.83	79.0818	2,548.83	76.9461	2,548.83	76.7181	2,548.83	73.0148	2,548.83	76.2678	2,548.83	71.6045	2,548.83	72.4758	2,548.83	69.4399	2,548.83	68.1055	2,548.83	67.1727	2,548.83	61.9947	2,548.83	67.7212	2,548.83	69.6242	2,548.83	66.2753	2,548.83	68.982	2,548.83	71.1147	2,548.83	69.7132	2,548.83	70.5296	2,548.83	68.6956	2,548.83	67.171	2,548.83	68.1537	2,548.83	62.4971	2,548.83	64.4556	2,548.83	62.5984
2,639.65	86.4837	2,639.65	85.1663	2,639.65	85.4223	2,639.65	84.0407	2,639.65	83.9014	2,639.65	83.8742	2,639.65	84.0462	2,639.65	82.8527	2,639.65	83.4305	2,639.65	81.8955	2,639.65	81.2965	2,639.65	79.3682	2,639.65	78.5232	2,639.65	76.8747	2,639.65	76.1359	2,639.65	74.2936	2,639.65	74.8382	2,639.65	70.2232	2,639.65	71.3646	2,639.65	67.0175	2,639.65	65.4713	2,639.65	64.1645	2,639.65	66.8341	2,639.65	66.1943	2,639.65	65.0396	2,639.65	65.9952	2,639.65	70.8669	2,639.65	67.1817	2,639.65	68.6849	2,639.65	70.6157	2,639.65	70.0881	2,639.65	70.071	2,639.65	66.0934	2,639.65	67.013	2,639.65	62.94	2,639.65	61.845
2,731.93	86.2291	2,731.93	85.3621	2,731.93	85.9632	2,731.93	84.3905	2,731.93	84.042	2,731.93	83.0847	2,731.93	83.5014	2,731.93	83.2966	2,731.93	83.2184	2,731.93	81.9489	2,731.93	81.0314	2,731.93	78.6358	2,731.93	77.5102	2,731.93	75.1893	2,731.93	76.4172	2,731.93	70.4934	2,731.93	73.8437	2,731.93	66.968	2,731.93	64.8211	2,731.93	64.4054	2,731.93	62.5127	2,731.93	64.7926	2,731.93	66.5983	2,731.93	64.1962	2,731.93	66.696	2,731.93	67.4975	2,731.93	68.2071	2,731.93	68.3274	2,731.93	68.929	2,731.93	68.204	2,731.93	70.7122	2,731.93	67.097	2,731.93	66.4385	2,731.93	66.414	2,731.93	60.7933	2,731.93	63.6539
2,828.61	86.1712	2,828.61	85.168	2,828.61	85.7047	2,828.61	83.6713	2,828.61	84.2857	2,828.61	83.0583	2,828.61	83.4562	2,828.61	82.6518	2,828.61	83.0576	2,828.61	81.296	2,828.61	81.0972	2,828.61	78.9136	2,828.61	77.9467	2,828.61	74.858	2,828.61	76.1669	2,828.61	71.6108	2,828.61	71.7806	2,828.61	68.497	2,828.61	61.1551	2,828.61	66.9562	2,828.61	68.9786	2,828.61	65.6805	2,828.61	69.5509	2,828.61	64.5364	2,828.61	66.9689	2,828.61	66.9406	2,828.61	68.6674	2,828.61	68.7899	2,828.61	67.7743	2,828.61	67.2789	2,828.61	69.5527	2,828.61	66.9079	2,828.61	66.6354	2,828.61	64.9755	2,828.61	54.9624	2,828.61	57.5013
2,928.22	85.859	2,928.22	84.7951	2,928.22	85.0271	2,928.22	83.0327	2,928.22	84.1552	2,928.22	82.9267	2,928.22	83.5473	2,928.22	82.397	2,928.22	82.6858	2,928.22	80.5211	2,928.22	80.9326	2,928.22	77.6844	2,928.22	78.7542	2,928.22	74.4322	2,928.22	75.2557	2,928.22	72.1836	2,928.22	65.1862	2,928.22	69.9234	2,928.22	65.3463	2,928.22	65.033	2,928.22	68.4107	2,928.22	62.36	2,928.22	70.2935	2,928.22	60.3752	2,928.22	63.3584	2,928.22	64.4182	2,928.22	66.9864	2,928.22	68.6578	2,928.22	67.1878	2,928.22	66.4711	2,928.22	67.0924	2,928.22	61.4558	2,928.22	65.5104	2,928.22	63.3683	2,928.22	54.9779	2,928.22	47.4175
3,030.76	85.0728	3,030.76	84.0509	3,030.76	84.4212	3,030.76	82.7664	3,030.76	83.5092	3,030.76	82.6072	3,030.76	83.1789	3,030.76	81.6103	3,030.76	82.6558	3,030.76	79.521	3,030.76	80.8176	3,030.76	76.851	3,030.76	78.7477	3,030.76	74.8086	3,030.76	74.4936	3,030.76	69.686	3,030.76	66.3532	3,030.76	63.1084	3,030.76	68.4961	3,030.76	63.5222	3,030.76	67.1556	3,030.76	63.6653	3,030.76	67.2474	3,030.76	60.7706	3,030.76	65.9629	3,030.76	63.9786	3,030.76	66.1307	3,030.76	65.8255	3,030.76	66.6041	3,030.76	67.2811	3,030.76	68.4006	3,030.76	65.6671	3,030.76	63.7539	3,030.76	62.3702	3,030.76	54.0759	3,030.76	55.5185
3,137.7	85.3985	3,137.7	84.3599	3,137.7	84.7095	3,137.7	82.6299	3,137.7	83.4849	3,137.7	81.9031	3,137.7	82.7841	3,137.7	81.4196	3,137.7	82.3303	3,137.7	79.6334	3,137.7	80.5868	3,137.7	76.605	3,137.7	78.0894	3,137.7	73.724	3,137.7	73.6643	3,137.7	69.2181	3,137.7	68.0984	3,137.7	66.3223	3,137.7	68.5286	3,137.7	66.5415	3,137.7	67.844	3,137.7	61.9098	3,137.7	64.9123	3,137.7	63.7246	3,137.7	66.3658	3,137.7	60.8921	3,137.7	67.1224	3,137.7	68.4314	3,137.7	66.6468	3,137.7	61.2664	3,137.7	66.149	3,137.7	63.3063	3,137.7	64.8079	3,137.7	63.9597	3,137.7	49.7153	3,137.7	52.5132
3,249.02	85.1097	3,249.02	84.0634	3,249.02	84.4668	3,249.02	82.9822	3,249.02	83.6445	3,249.02	81.7651	3,249.02	82.6894	3,249.02	80.1604	3,249.02	81.4032	3,249.02	78.4416	3,249.02	79.8349	3,249.02	76.6368	3,249.02	78.0094	3,249.02	73.1428	3,249.02	73.8064	3,249.02	70.5459	3,249.02	70.5881	3,249.02	69.1548	3,249.02	69.514	3,249.02	65.7165	3,249.02	67.7757	3,249.02	58.052	3,249.02	63.8311	3,249.02	62.647	3,249.02	63.7196	3,249.02	57.0518	3,249.02	66.9389	3,249.02	66.5769	3,249.02	68.1412	3,249.02	63.6254	3,249.02	64.8769	3,249.02	62.1932	3,249.02	63.149	3,249.02	59.0959	3,249.02	55.0915	3,249.02	54.3767
3,363.28	84.6954	3,363.28	84.0447	3,363.28	84.1429	3,363.28	82.561	3,363.28	83.1833	3,363.28	81.5106	3,363.28	82.3923	3,363.28	79.9437	3,363.28	81.1689	3,363.28	78.3597	3,363.28	79.2977	3,363.28	76.9785	3,363.28	78.644	3,363.28	74.0709	3,363.28	74.8486	3,363.28	71.3111	3,363.28	71.5401	3,363.28	65.071	3,363.28	70.6914	3,363.28	61.4419	3,363.28	68.1696	3,363.28	63.164	3,363.28	67.3281	3,363.28	61.8356	3,363.28	65.4305	3,363.28	59.6444	3,363.28	65.2181	3,363.28	65.8834	3,363.28	68.0057	3,363.28	66.3357	3,363.28	64.8996	3,363.28	61.5978	3,363.28	62.7342	3,363.28	55.1555	3,363.28	43.0933	3,363.28	56.0374
3,481.93	84.2684	3,481.93	83.8968	3,481.93	84.3763	3,481.93	82.8883	3,481.93	83.0668	3,481.93	80.8257	3,481.93	81.5525	3,481.93	79.7724	3,481.93	81.1445	3,481.93	78.969	3,481.93	80.3093	3,481.93	76.6653	3,481.93	78.6872	3,481.93	74.8989	3,481.93	75.0879	3,481.93	67.8024	3,481.93	72.5842	3,481.93	64.7484	3,481.93	68.4252	3,481.93	65.7191	3,481.93	65.8331	3,481.93	61.914	3,481.93	68.3443	3,481.93	62.8217	3,481.93	65.5682	3,481.93	60.448	3,481.93	66.0948	3,481.93	66.8056	3,481.93	66.0879	3,481.93	64.845	3,481.93	66.1465	3,481.93	62.9594	3,481.93	59.9384	3,481.93	57.1169	3,481.93	50.1797	3,481.93	58.1687
3,604.98	84.2109	3,604.98	84.3111	3,604.98	84.4807	3,604.98	82.9102	3,604.98	83.1838	3,604.98	80.3665	3,604.98	80.7929	3,604.98	79.4925	3,604.98	80.6191	3,604.98	78.6565	3,604.98	80.8008	3,604.98	77.8444	3,604.98	78.5738	3,604.98	72.7975	3,604.98	73.7148	3,604.98	70.7033	3,604.98	72.7808	3,604.98	67.5681	3,604.98	68.678	3,604.98	62.0517	3,604.98	57.9901	3,604.98	57.9896	3,604.98	63.1324	3,604.98	62.1183	3,604.98	64.6989	3,604.98	57.9734	3,604.98	64.4763	3,604.98	65.6046	3,604.98	66.2813	3,604.98	63.4971	3,604.98	64.7005	3,604.98	64.1144	3,604.98	57.8904	3,604.98	55.6705	3,604.98	48.2647	3,604.98	56.9889
3,732.42	83.98	3,732.42	84.5157	3,732.42	84.0406	3,732.42	82.9051	3,732.42	83.1263	3,732.42	80.2226	3,732.42	80.3734	3,732.42	79.3971	3,732.42	79.8704	3,732.42	78.9068	3,732.42	80.453	3,732.42	76.7254	3,732.42	78.1913	3,732.42	74.2074	3,732.42	73.2277	3,732.42	70.7435	3,732.42	69.4097	3,732.42	65.9352	3,732.42	62.418	3,732.42	62.7492	3,732.42	52.7511	3,732.42	60.7282	3,732.42	58.4326	3,732.42	60.533	3,732.42	57.3482	3,732.42	60.8639	3,732.42	64.0647	3,732.42	65.0842	3,732.42	65.0518	3,732.42	65.1854	3,732.42	64.045	3,732.42	63.9881	3,732.42	58.0712	3,732.42	51.2066	3,732.42	52.3054	3,732.42	56.7973
3,864.26	84.1817	3,864.26	84.5226	3,864.26	84.0012	3,864.26	82.8033	3,864.26	82.967	3,864.26	80.4835	3,864.26	79.9864	3,864.26	79.6834	3,864.26	79.2013	3,864.26	78.541	3,864.26	79.5234	3,864.26	76.9175	3,864.26	76.5396	3,864.26	74.4391	3,864.26	71.5991	3,864.26	69.6119	3,864.26	69.0151	3,864.26	62.9885	3,864.26	64.3749	3,864.26	62.7089	3,864.26	61.0289	3,864.26	59.8807	3,864.26	56.2835	3,864.26	61.9494	3,864.26	49.3724	3,864.26	57.31	3,864.26	60.2961	3,864.26	64.9274	3,864.26	65.0917	3,864.26	64.3677	3,864.26	63.0878	3,864.26	64.7777	3,864.26	56.2478	3,864.26	53.9661	3,864.26	42.8863	3,864.26	58.9974
4,000.49	84.5872	4,000.49	84.7137	4,000.49	84.5352	4,000.49	83.1921	4,000.49	82.9912	4,000.49	80.5196	4,000.49	80.0226	4,000.49	79.1181	4,000.49	79.0953	4,000.49	78.5115	4,000.49	78.8413	4,000.49	76.9744	4,000.49	76.4834	4,000.49	74.0004	4,000.49	72.463	4,000.49	70.6328	4,000.49	68.0572	4,000.49	69.4276	4,000.49	65.2299	4,000.49	64.2191	4,000.49	67.4677	4,000.49	58.7287	4,000.49	62.9271	4,000.49	55.897	4,000.49	57.8576	4,000.49	59.7569	4,000.49	59.9585	4,000.49	64.4837	4,000.49	64.4032	4,000.49	64.8844	4,000.49	63.1911	4,000.49	65.4078	4,000.49	52.5947	4,000.49	55.214	4,000.49	45.5843	4,000.49	57.8851
4,141.11	84.8559	4,141.11	84.8749	4,141.11	85.0908	4,141.11	83.8165	4,141.11	83.1969	4,141.11	80.9017	4,141.11	80.7262	4,141.11	78.6556	4,141.11	79.1101	4,141.11	77.8878	4,141.11	78.7295	4,141.11	76.7158	4,141.11	77.181	4,141.11	74.2669	4,141.11	74.207	4,141.11	72.3359	4,141.11	66.6534	4,141.11	66.3665	4,141.11	57.1411	4,141.11	61.6838	4,141.11	66.249	4,141.11	61.7701	4,141.11	65.1953	4,141.11	60.7309	4,141.11	59.801	4,141.11	59.4608	4,141.11	57.6452	4,141.11	64.0987	4,141.11	62.5572	4,141.11	63.8616	4,141.11	61.776	4,141.11	64.9318	4,141.11	53.5761	4,141.11	48.9886	4,141.11	46.7171	4,141.11	57.9615
4,287.6	85.0331	4,287.6	85.0308	4,287.6	84.5484	4,287.6	83.5721	4,287.6	83.244	4,287.6	81.4017	4,287.6	81.3567	4,287.6	79.3217	4,287.6	79.006	4,287.6	77.9736	4,287.6	78.3744	4,287.6	76.6348	4,287.6	76.9711	4,287.6	75.4293	4,287.6	74.847	4,287.6	68.8755	4,287.6	68.0368	4,287.6	68.2593	4,287.6	63.169	4,287.6	65.4163	4,287.6	64.9368	4,287.6	59.8052	4,287.6	61.1029	4,287.6	54.3649	4,287.6	60.7376	4,287.6	59.0613	4,287.6	59.5315	4,287.6	63.132	4,287.6	64.61	4,287.6	66.48	4,287.6	60.8357	4,287.6	62.4088	4,287.6	55.127	4,287.6	53.8095	4,287.6	42.9551	4,287.6	61.8326
4,438.48	85.5803	4,438.48	85.2375	4,438.48	85.1919	4,438.48	84.1991	4,438.48	83.2158	4,438.48	81.5527	4,438.48	81.2815	4,438.48	78.8282	4,438.48	79.4287	4,438.48	77.6135	4,438.48	78.1761	4,438.48	76.7277	4,438.48	75.5809	4,438.48	73.9844	4,438.48	74.3595	4,438.48	72.6649	4,438.48	70.1239	4,438.48	68.9083	4,438.48	68.3745	4,438.48	62.4046	4,438.48	62.6629	4,438.48	59.6034	4,438.48	57.4545	4,438.48	56.6539	4,438.48	60.422	4,438.48	61.3227	4,438.48	62.3081	4,438.48	61.8665	4,438.48	65.2616	4,438.48	65.5909	4,438.48	65.0973	4,438.48	65.216	4,438.48	56.7801	4,438.48	55.9536	4,438.48	44.945	4,438.48	60.9266
4,595.21	85.9771	4,595.21	85.2665	4,595.21	85.6726	4,595.21	84.3542	4,595.21	83.7698	4,595.21	82.5913	4,595.21	81.3979	4,595.21	78.661	4,595.21	78.8542	4,595.21	77.5971	4,595.21	75.2592	4,595.21	76.8398	4,595.21	74.1165	4,595.21	75.7076	4,595.21	73.5725	4,595.21	70.9929	4,595.21	73.8547	4,595.21	66.2386	4,595.21	70.1136	4,595.21	65.2883	4,595.21	59.4368	4,595.21	59.3279	4,595.21	33.4242	4,595.21	59.2334	4,595.21	59.787	4,595.21	55.6091	4,595.21	65.0299	4,595.21	61.0049	4,595.21	64.5561	4,595.21	65.5717	4,595.21	61.7263	4,595.21	63.7592	4,595.21	54.8963	4,595.21	54.7248	4,595.21	50.6071	4,595.21	60.2821
4,756.35	85.715	4,756.35	85.3779	4,756.35	85.5854	4,756.35	84.2366	4,756.35	84.8456	4,756.35	82.5724	4,756.35	82.4103	4,756.35	79.2949	4,756.35	76.8437	4,756.35	77.8886	4,756.35	74.3143	4,756.35	76.863	4,756.35	74.0422	4,756.35	73.7482	4,756.35	73.9246	4,756.35	70.8482	4,756.35	74.7806	4,756.35	69.2017	4,756.35	70.067	4,756.35	62.5181	4,756.35	65.9498	4,756.35	57.3167	4,756.35	55.969	4,756.35	57.8372	4,756.35	58.5567	4,756.35	58.2168	4,756.35	65.3831	4,756.35	61.5473	4,756.35	61.6254	4,756.35	64.1592	4,756.35	62.1481	4,756.35	58.2357	4,756.35	56.7394	4,756.35	51.5014	4,756.35	51.5347	4,756.35	59.5382
4,924.8	85.7303	4,924.8	85.1505	4,924.8	85.3619	4,924.8	84.5641	4,924.8	85.2	4,924.8	82.9762	4,924.8	82.5472	4,924.8	78.5624	4,924.8	76.4063	4,924.8	77.9155	4,924.8	76.7395	4,924.8	76.4488	4,924.8	75.2419	4,924.8	74.5165	4,924.8	76.2992	4,924.8	70.8572	4,924.8	74.8908	4,924.8	66.1783	4,924.8	69.8334	4,924.8	63.1846	4,924.8	66.2473	4,924.8	57.8446	4,924.8	63.6555	4,924.8	59.6028	4,924.8	59.4558	4,924.8	55.4007	4,924.8	62.8183	4,924.8	59.6248	4,924.8	62.5855	4,924.8	64.6961	4,924.8	61.884	4,924.8	58.5629	4,924.8	53.2734	4,924.8	56.6811	4,924.8	51.2227	4,924.8	60.8809
5,097.66	86.0499	5,097.66	85.3044	5,097.66	85.25	5,097.66	84.8411	5,097.66	84.8745	5,097.66	82.849	5,097.66	82.6759	5,097.66	79.8056	5,097.66	79.8093	5,097.66	78.2341	5,097.66	77.4617	5,097.66	75.8952	5,097.66	75.4755	5,097.66	73.7309	5,097.66	76.8536	5,097.66	69.8315	5,097.66	72.5511	5,097.66	68.8824	5,097.66	66.7716	5,097.66	61.9943	5,097.66	63.8192	5,097.66	60.0301	5,097.66	63.5044	5,097.66	58.0182	5,097.66	60.1587	5,097.66	54.7839	5,097.66	61.1731	5,097.66	60.7205	5,097.66	61.7828	5,097.66	63.7788	5,097.66	63.6257	5,097.66	61.2142	5,097.66	52.8979	5,097.66	57.5222	5,097.66	51.2069	5,097.66	61.919
5,277.83	86.0883	5,277.83	85.3159	5,277.83	85.5809	5,277.83	84.5318	5,277.83	85.0032	5,277.83	82.3921	5,277.83	83.5773	5,277.83	79.9107	5,277.83	81.5886	5,277.83	77.4067	5,277.83	77.5343	5,277.83	75.8394	5,277.83	77.669	5,277.83	74.8513	5,277.83	76.9273	5,277.83	71.8408	5,277.83	70.9912	5,277.83	67.4648	5,277.83	69.2505	5,277.83	62.2183	5,277.83	66.7003	5,277.83	60.9869	5,277.83	65.8321	5,277.83	59.5402	5,277.83	60.9693	5,277.83	52.9357	5,277.83	62.7036	5,277.83	59.4086	5,277.83	62.4363	5,277.83	63.0235	5,277.83	66.1643	5,277.83	60.6573	5,277.83	53.5698	5,277.83	51.3652	5,277.83	53.9631	5,277.83	61.4981
5,463.87	85.5959	5,463.87	84.8396	5,463.87	85.319	5,463.87	84.4913	5,463.87	85.224	5,463.87	82.8389	5,463.87	84.0875	5,463.87	79.976	5,463.87	81.1823	5,463.87	77.0683	5,463.87	77.1681	5,463.87	77.1007	5,463.87	77.7599	5,463.87	74.0609	5,463.87	74.5426	5,463.87	69.2063	5,463.87	68.1213	5,463.87	66.9386	5,463.87	68.1991	5,463.87	60.4017	5,463.87	64.873	5,463.87	61.5925	5,463.87	67.2271	5,463.87	57.6669	5,463.87	62.6165	5,463.87	52.4672	5,463.87	61.3783	5,463.87	59.6849	5,463.87	63.4111	5,463.87	59.8924	5,463.87	65.3078	5,463.87	59.9559	5,463.87	51.8954	5,463.87	48.0293	5,463.87	46.5196	5,463.87	59.9023
5,657.23	85.8797	5,657.23	85.4531	5,657.23	85.2468	5,657.23	84.3771	5,657.23	84.5736	5,657.23	82.5495	5,657.23	82.9627	5,657.23	79.7487	5,657.23	80.6079	5,657.23	76.9512	5,657.23	77.9125	5,657.23	77.0764	5,657.23	77.8595	5,657.23	73.3522	5,657.23	72.4067	5,657.23	69.5157	5,657.23	68.5931	5,657.23	65.5402	5,657.23	66.7403	5,657.23	55.0188	5,657.23	53.7464	5,657.23	59.6726	5,657.23	59.4124	5,657.23	56.5331	5,657.23	60.5199	5,657.23	48.9314	5,657.23	56.8232	5,657.23	60.5023	5,657.23	61.0372	5,657.23	56.238	5,657.23	63.278	5,657.23	57.3658	5,657.23	53.8203	5,657.23	44.637	5,657.23	48.4758	5,657.23	58.9535
5,856.45	85.9739	5,856.45	85.3574	5,856.45	85.2641	5,856.45	84.2363	5,856.45	83.6238	5,856.45	82.7682	5,856.45	82.0393	5,856.45	80.1122	5,856.45	80.6629	5,856.45	77.9025	5,856.45	78.8524	5,856.45	76.7416	5,856.45	76.8339	5,856.45	72.5244	5,856.45	70.987	5,856.45	68.9864	5,856.45	69.6649	5,856.45	66.7477	5,856.45	63.3594	5,856.45	59.9378	5,856.45	60.2168	5,856.45	59.9888	5,856.45	43.6353	5,856.45	52.5609	5,856.45	57.3691	5,856.45	53.9984	5,856.45	50.3536	5,856.45	58.5429	5,856.45	57.3837	5,856.45	57.9713	5,856.45	61.7258	5,856.45	56.3884	5,856.45	53.6574	5,856.45	42.7167	5,856.45	48.9262	5,856.45	58.5322
6,062.99	86.1015	6,062.99	85.4967	6,062.99	85.5445	6,062.99	84.7051	6,062.99	84.3238	6,062.99	83.1542	6,062.99	82.7077	6,062.99	80.2847	6,062.99	80.8899	6,062.99	78.1208	6,062.99	78.5783	6,062.99	75.8785	6,062.99	74.4863	6,062.99	74.1259	6,062.99	71.3041	6,062.99	69.9567	6,062.99	69.9087	6,062.99	65.9109	6,062.99	65.3779	6,062.99	59.3858	6,062.99	64.3143	6,062.99	60.9779	6,062.99	59.1949	6,062.99	52.4126	6,062.99	54.577	6,062.99	56.9002	6,062.99	52.1026	6,062.99	58.1699	6,062.99	55.5734	6,062.99	54.3266	6,062.99	57.3478	6,062.99	55.2745	6,062.99	51.9253	6,062.99	50.5893	6,062.99	50.935	6,062.99	57.137
6,276.86	86.1503	6,276.86	85.9262	6,276.86	85.6267	6,276.86	85.3772	6,276.86	84.8952	6,276.86	83.818	6,276.86	83.2489	6,276.86	80.8261	6,276.86	80.906	6,276.86	78.0584	6,276.86	77.5712	6,276.86	77.2802	6,276.86	74.9526	6,276.86	75.0053	6,276.86	72.1036	6,276.86	70.6664	6,276.86	68.8674	6,276.86	67.0453	6,276.86	63.0675	6,276.86	61.6535	6,276.86	63.3286	6,276.86	61.2624	6,276.86	59.3068	6,276.86	54.9265	6,276.86	53.5958	6,276.86	57.1539	6,276.86	52.279	6,276.86	57.4956	6,276.86	56.7133	6,276.86	52.3531	6,276.86	55.4128	6,276.86	55.4115	6,276.86	55.9013	6,276.86	46.7632	6,276.86	42.6162	6,276.86	56.0766
6,498.05	85.9193	6,498.05	85.7079	6,498.05	85.603	6,498.05	85.3985	6,498.05	84.8769	6,498.05	84.0537	6,498.05	83.3729	6,498.05	81.1018	6,498.05	80.3153	6,498.05	77.6245	6,498.05	77.1132	6,498.05	76.8862	6,498.05	75.826	6,498.05	75.2006	6,498.05	73.2887	6,498.05	70.0532	6,498.05	67.2864	6,498.05	65.9221	6,498.05	58.5979	6,498.05	59.4147	6,498.05	65.8049	6,498.05	61.189	6,498.05	58.9738	6,498.05	53.8709	6,498.05	51.0199	6,498.05	55.3617	6,498.05	55.576	6,498.05	58.0199	6,498.05	56.9853	6,498.05	53.5979	6,498.05	50.8816	6,498.05	59.1816	6,498.05	55.9019	6,498.05	45.7025	6,498.05	43.771	6,498.05	48.9512
6,726.56	85.9347	6,726.56	85.5535	6,726.56	85.7047	6,726.56	85.3027	6,726.56	84.9247	6,726.56	83.732	6,726.56	83.0234	6,726.56	80.641	6,726.56	80.0202	6,726.56	77.1214	6,726.56	78.9615	6,726.56	76.4771	6,726.56	76.8273	6,726.56	74.236	6,726.56	71.5456	6,726.56	70.2573	6,726.56	66.9539	6,726.56	66.0705	6,726.56	61.8867	6,726.56	60.7073	6,726.56	63.0435	6,726.56	58.4448	6,726.56	54.7761	6,726.56	50.9079	6,726.56	48.5476	6,726.56	53.6036	6,726.56	51.7816	6,726.56	56.3956	6,726.56	53.5806	6,726.56	51.5098	6,726.56	42.5428	6,726.56	59.1831	6,726.56	53.9533	6,726.56	47.5404	6,726.56	43.4363	6,726.56	55.1024
6,963.87	85.1996	6,963.87	84.9034	6,963.87	85.5762	6,963.87	84.863	6,963.87	85.191	6,963.87	83.4708	6,963.87	82.8458	6,963.87	80.3257	6,963.87	80.2978	6,963.87	77.2354	6,963.87	79.8896	6,963.87	77.0308	6,963.87	76.388	6,963.87	74.4193	6,963.87	72.3133	6,963.87	70.8433	6,963.87	69.4602	6,963.87	65.6925	6,963.87	64.2629	6,963.87	62.0227	6,963.87	60.2783	6,963.87	59.6919	6,963.87	58.1039	6,963.87	51.3184	6,963.87	53.9686	6,963.87	55.7182	6,963.87	55.0759	6,963.87	58.3411	6,963.87	55.489	6,963.87	41.9452	6,963.87	52.7603	6,963.87	57.2352	6,963.87	51.0979	6,963.87	49.0277	6,963.87	50.8098	6,963.87	58.2514
7,209.96	84.7344	7,209.96	84.661	7,209.96	84.6973	7,209.96	84.417	7,209.96	84.8899	7,209.96	82.9445	7,209.96	83.2338	7,209.96	80.2882	7,209.96	81.4104	7,209.96	77.7107	7,209.96	78.8344	7,209.96	77.1615	7,209.96	74.2588	7,209.96	74.942	7,209.96	74.1472	7,209.96	71.2782	7,209.96	72.7974	7,209.96	65.2694	7,209.96	67.0211	7,209.96	61.6899	7,209.96	62.663	7,209.96	61.1471	7,209.96	62.0545	7,209.96	51.6083	7,209.96	51.8483	7,209.96	52.7129	7,209.96	46.1116	7,209.96	57.8004	7,209.96	54.6694	7,209.96	53.6142	7,209.96	57.6027	7,209.96	46.0622	7,209.96	50.944	7,209.96	47.8302	7,209.96	48.2039	7,209.96	54.3359
7,464.84	85.2739	7,464.84	84.5732	7,464.84	84.7875	7,464.84	84.0423	7,464.84	84.1835	7,464.84	82.8192	7,464.84	83.2378	7,464.84	80.5123	7,464.84	81.5482	7,464.84	77.5358	7,464.84	76.9061	7,464.84	76.4432	7,464.84	73.8047	7,464.84	74.1184	7,464.84	75.9302	7,464.84	69.95	7,464.84	73.788	7,464.84	64.2806	7,464.84	65.3078	7,464.84	61.6464	7,464.84	48.0206	7,464.84	57.487	7,464.84	59.8022	7,464.84	45.4191	7,464.84	54.4386	7,464.84	54.0313	7,464.84	53.9472	7,464.84	52.9899	7,464.84	40.4956	7,464.84	44.821	7,464.84	54.1622	7,464.84	49.5461	7,464.84	51.0038	7,464.84	54.3027	7,464.84	49.3195	7,464.84	47.1479
7,727.05	85.3369	7,727.05	84.9036	7,727.05	85.1255	7,727.05	84.3814	7,727.05	84.4896	7,727.05	83.0366	7,727.05	82.6609	7,727.05	80.6455	7,727.05	79.8068	7,727.05	77.697	7,727.05	74.5411	7,727.05	76.2597	7,727.05	75.6906	7,727.05	73.6995	7,727.05	76.4944	7,727.05	68.5533	7,727.05	71.7329	7,727.05	63.7908	7,727.05	65.2093	7,727.05	59.2627	7,727.05	59.4437	7,727.05	56.5581	7,727.05	58.8458	7,727.05	40.7046	7,727.05	55.101	7,727.05	53.2041	7,727.05	48.6226	7,727.05	48.2568	7,727.05	41.5438	7,727.05	53.7419	7,727.05	53.5448	7,727.05	50.2502	7,727.05	51.9994	7,727.05	51.9185	7,727.05	48.1027	7,727.05	41.6498
7,999.51	86.1034	7,999.51	85.5196	7,999.51	85.3911	7,999.51	84.5313	7,999.51	84.6687	7,999.51	83.2981	7,999.51	82.6516	7,999.51	80.64	7,999.51	78.7859	7,999.51	77.7541	7,999.51	74.5943	7,999.51	76.0481	7,999.51	77.2811	7,999.51	73.0187	7,999.51	75.3447	7,999.51	68.6283	7,999.51	67.0667	7,999.51	61.5968	7,999.51	62.6624	7,999.51	60.6376	7,999.51	62.0314	7,999.51	53.995	7,999.51	64.8599	7,999.51	39.6763	7,999.51	58.9826	7,999.51	50.486	7,999.51	42.2903	7,999.51	53.3359	7,999.51	52.0633	7,999.51	51.9788	7,999.51	55.5608	7,999.51	53.3798	7,999.51	52.3488	7,999.51	47.8963	7,999.51	35.9265	7,999.51	40.9705
8,282.23	86.5235	8,282.23	85.8031	8,282.23	85.7282	8,282.23	85.0668	8,282.23	84.8893	8,282.23	83.4071	8,282.23	83.3998	8,282.23	80.7706	8,282.23	80.3723	8,282.23	77.7762	8,282.23	78.0116	8,282.23	76.1849	8,282.23	78.0662	8,282.23	72.9738	8,282.23	72.6769	8,282.23	69.3282	8,282.23	59.2727	8,282.23	61.2933	8,282.23	61.2574	8,282.23	61.4873	8,282.23	58.7623	8,282.23	54.659	8,282.23	58.4122	8,282.23	38.7548	8,282.23	55.0174	8,282.23	46.4868	8,282.23	48.4278	8,282.23	53.5891	8,282.23	47.121	8,282.23	55.1491	8,282.23	56.2443	8,282.23	49.8759	8,282.23	55.8772	8,282.23	50.1953	8,282.23	45.8557	8,282.23	44.0524
8,573.73	87.0449	8,573.73	85.8257	8,573.73	86.0987	8,573.73	84.6948	8,573.73	84.9203	8,573.73	83.1524	8,573.73	83.6571	8,573.73	80.6777	8,573.73	81.5561	8,573.73	78.1025	8,573.73	79.9399	8,573.73	75.9155	8,573.73	77.3793	8,573.73	72.9462	8,573.73	66.9706	8,573.73	67.9747	8,573.73	67.0723	8,573.73	60.7156	8,573.73	59.9997	8,573.73	60.8909	8,573.73	59.6567	8,573.73	52.6836	8,573.73	48.9659	8,573.73	39.8814	8,573.73	56.7313	8,573.73	38.5697	8,573.73	53.4152	8,573.73	51.2773	8,573.73	49.756	8,573.73	58.1133	8,573.73	54.7126	8,573.73	48.9951	8,573.73	53.2714	8,573.73	50.9578	8,573.73	47.9434	8,573.73	36.9783
8,876.95	86.8738	8,876.95	85.7891	8,876.95	86.0574	8,876.95	84.8714	8,876.95	84.545	8,876.95	83.0047	8,876.95	83.1175	8,876.95	80.8837	8,876.95	81.9272	8,876.95	77.8725	8,876.95	80.1641	8,876.95	75.485	8,876.95	75.5277	8,876.95	72.6265	8,876.95	69.4345	8,876.95	67.4944	8,876.95	70.0616	8,876.95	61.5994	8,876.95	61.6937	8,876.95	59.0358	8,876.95	61.9682	8,876.95	51.2822	8,876.95	52.1758	8,876.95	39.4259	8,876.95	56.6803	8,876.95	41.1372	8,876.95	54.0359	8,876.95	50.1581	8,876.95	48.1982	8,876.95	58.4872	8,876.95	53.8649	8,876.95	51.767	8,876.95	52.1785	8,876.95	50.9044	8,876.95	51.7164	8,876.95	45.306
9,188.96	86.3013	9,188.96	85.3529	9,188.96	85.668	9,188.96	84.5326	9,188.96	84.4642	9,188.96	83.0829	9,188.96	83.2487	9,188.96	81.2081	9,188.96	81.886	9,188.96	77.8985	9,188.96	80.0498	9,188.96	75.0882	9,188.96	73.5279	9,188.96	72.6942	9,188.96	73.8519	9,188.96	69.5079	9,188.96	70.856	9,188.96	62.2406	9,188.96	64.1138	9,188.96	60.0115	9,188.96	61.0381	9,188.96	51.9295	9,188.96	53.7807	9,188.96	45.0516	9,188.96	54.7381	9,188.96	38.7877	9,188.96	43.4272	9,188.96	39.6768	9,188.96	44.9826	9,188.96	61.2062	9,188.96	42.7233	9,188.96	54.9748	9,188.96	51.8092	9,188.96	52.054	9,188.96	51.1723	9,188.96	46.6725
9,514.16	85.5858	9,514.16	84.881	9,514.16	84.9693	9,514.16	83.9739	9,514.16	84.4735	9,514.16	83.1341	9,514.16	83.382	9,514.16	81.6257	9,514.16	81.9954	9,514.16	78.277	9,514.16	78.7625	9,514.16	74.8635	9,514.16	74.9916	9,514.16	73.3546	9,514.16	75.9211	9,514.16	69.4959	9,514.16	67.4437	9,514.16	63.5349	9,514.16	60.6731	9,514.16	60.8802	9,514.16	63.0359	9,514.16	52.678	9,514.16	59.2186	9,514.16	41.63	9,514.16	51.0448	9,514.16	47.7474	9,514.16	49.8614	9,514.16	25.053	9,514.16	51.3585	9,514.16	61.0069	9,514.16	40.3504	9,514.16	58.7895	9,514.16	53.6753	9,514.16	56.4955	9,514.16	45.3019	9,514.16	51.4235
9,849.61	85.6917	9,849.61	85.1229	9,849.61	84.9432	9,849.61	83.8093	9,849.61	84.4313	9,849.61	82.7127	9,849.61	83.3525	9,849.61	81.6776	9,849.61	81.0066	9,849.61	78.3105	9,849.61	78.0224	9,849.61	75.1599	9,849.61	76.3032	9,849.61	72.4717	9,849.61	74.2583	9,849.61	68.9136	9,849.61	66.1543	9,849.61	64.0145	9,849.61	60.4758	9,849.61	60.8099	9,849.61	60.9546	9,849.61	48.2302	9,849.61	60.713	9,849.61	44.1742	9,849.61	51.6498	9,849.61	51.362	9,849.61	36.0147	9,849.61	43.9017	9,849.61	52.5121	9,849.61	59.2803	9,849.61	54.0024	9,849.61	54.9799	9,849.61	48.5415	9,849.61	57.5355	9,849.61	51.5183	9,849.61	53.7775
10,196.8	86.2748	10,196.8	85.5677	10,196.8	85.0368	10,196.8	83.8407	10,196.8	83.974	10,196.8	82.4374	10,196.8	82.3938	10,196.8	81.3754	10,196.8	81.0409	10,196.8	77.9307	10,196.8	77.5262	10,196.8	75.4451	10,196.8	75.4389	10,196.8	72.077	10,196.8	71.843	10,196.8	68.253	10,196.8	69.0519	10,196.8	64.4522	10,196.8	58.1052	10,196.8	61.1059	10,196.8	57.4854	10,196.8	44.7508	10,196.8	57.1893	10,196.8	46.7172	10,196.8	48.9337	10,196.8	49.3591	10,196.8	46.6022	10,196.8	45.0815	10,196.8	50.9952	10,196.8	57.6614	10,196.8	57.1021	10,196.8	54.9314	10,196.8	44.6197	10,196.8	60.191	10,196.8	49.1106	10,196.8	53.9095
10,555.7	86.2473	10,555.7	85.4748	10,555.7	85.2537	10,555.7	83.7513	10,555.7	83.9054	10,555.7	82.3682	10,555.7	83.2355	10,555.7	80.8172	10,555.7	81.7946	10,555.7	77.3958	10,555.7	77.8973	10,555.7	75.5164	10,555.7	74.0714	10,555.7	71.9602	10,555.7	71.7515	10,555.7	66.7934	10,555.7	67.0935	10,555.7	62.9153	10,555.7	62.3749	10,555.7	59.1106	10,555.7	60.1273	10,555.7	40.1388	10,555.7	57.257	10,555.7	47.9896	10,555.7	52.0655	10,555.7	50.503	10,555.7	47.0378	10,555.7	47.7294	10,555.7	43.3442	10,555.7	54.1503	10,555.7	53.8856	10,555.7	52.2505	10,555.7	44.5795	10,555.7	55.9934	10,555.7	50.8343	10,555.7	53.6478
10,927.7	85.7792	10,927.7	84.8446	10,927.7	85.3378	10,927.7	83.5998	10,927.7	84.0463	10,927.7	82.503	10,927.7	83.1228	10,927.7	80.3174	10,927.7	81.3836	10,927.7	76.6948	10,927.7	76.5377	10,927.7	75.2365	10,927.7	74.4075	10,927.7	71.2008	10,927.7	70.175	10,927.7	65.8141	10,927.7	63.1921	10,927.7	61.6479	10,927.7	62.6405	10,927.7	57.0319	10,927.7	61.4362	10,927.7	32.0831	10,927.7	60.7514	10,927.7	47.0456	10,927.7	54.4557	10,927.7	50.3511	10,927.7	37.0874	10,927.7	45.1181	10,927.7	44.0348	10,927.7	51.8811	10,927.7	53.9381	10,927.7	53.7093	10,927.7	46.7963	10,927.7	55.0156	10,927.7	47.602	10,927.7	52.6368
11,313	85.3584	11,313	84.576	11,313	85.3434	11,313	83.9979	11,313	83.9962	11,313	82.9401	11,313	83.1534	11,313	79.8239	11,313	80.2286	11,313	75.953	11,313	75.8034	11,313	74.1022	11,313	75.1223	11,313	69.6463	11,313	66.0104	11,313	65.3032	11,313	64.2105	11,313	60.8936	11,313	58.5708	11,313	54.6171	11,313	58.417	11,313	25.422	11,313	60.4615	11,313	45.3345	11,313	50.0243	11,313	46.9655	11,313	47.4591	11,313	42.7243	11,313	48.1451	11,313	49.5654	11,313	47.7395	11,313	43.7842	11,313	39.8101	11,313	47.7291	11,313	51.0797	11,313	49.3442
11,712.9	85.4186	11,712.9	85.1093	11,712.9	84.9717	11,712.9	84.6026	11,712.9	83.5553	11,712.9	83.2135	11,712.9	82.9046	11,712.9	79.2383	11,712.9	78.9882	11,712.9	75.7564	11,712.9	77.2338	11,712.9	74.0362	11,712.9	73.6654	11,712.9	69.0748	11,712.9	66.7552	11,712.9	65.7759	11,712.9	66.0837	11,712.9	60.0426	11,712.9	51.1893	11,712.9	53.946	11,712.9	60.5071	11,712.9	23.1571	11,712.9	64.0196	11,712.9	45.3715	11,712.9	52.762	11,712.9	43.3082	11,712.9	48.6389	11,712.9	39.5352	11,712.9	46.98	11,712.9	48.7544	11,712.9	40.7196	11,712.9	44.5471	11,712.9	44.7327	11,712.9	48.5059	11,712.9	48.4107	11,712.9	46.1347
12,126	85.8589	12,126	85.3054	12,126	84.9883	12,126	84.5776	12,126	84.0118	12,126	83.1985	12,126	83.285	12,126	79.5982	12,126	79.9049	12,126	76.976	12,126	77.8967	12,126	75.2365	12,126	71.8025	12,126	69.6476	12,126	71.3234	12,126	67.6169	12,126	66.327	12,126	61.4254	12,126	55.2957	12,126	57.404	12,126	60.2626	12,126	38.7341	12,126	64.5109	12,126	42.0115	12,126	56.487	12,126	26.1899	12,126	49.1837	12,126	36.8907	12,126	46.3461	12,126	52.9023	12,126	45.6022	12,126	48.1869	12,126	45.1632	12,126	49.1167	12,126	48.9911	12,126	50.5032
12,553.7	86.206	12,553.7	84.9029	12,553.7	85.3928	12,553.7	84.3674	12,553.7	84.7686	12,553.7	83.0907	12,553.7	83.5652	12,553.7	79.9814	12,553.7	80.4661	12,553.7	77.1152	12,553.7	76.0132	12,553.7	74.1648	12,553.7	72.516	12,553.7	69.3479	12,553.7	70.5465	12,553.7	66.8351	12,553.7	63.9897	12,553.7	61.9265	12,553.7	57.3505	12,553.7	58.7644	12,553.7	63.5494	12,553.7	42.6375	12,553.7	67.289	12,553.7	35.1382	12,553.7	55.1057	12,553.7	33.6525	12,553.7	45.8406	12,553.7	41.9119	12,553.7	42.0464	12,553.7	53.7463	12,553.7	41.476	12,553.7	41.571	12,553.7	27.9248	12,553.7	46.417	12,553.7	47.0545	12,553.7	50.5133
12,996.1	86.2036	12,996.1	84.5052	12,996.1	85.4719	12,996.1	84.3206	12,996.1	84.7321	12,996.1	82.3615	12,996.1	83.4207	12,996.1	79.4551	12,996.1	80.1871	12,996.1	75.7267	12,996.1	75.0412	12,996.1	72.3453	12,996.1	74.8342	12,996.1	68.368	12,996.1	68.1029	12,996.1	65.7732	12,996.1	64.1484	12,996.1	62.3209	12,996.1	58.9188	12,996.1	56.9867	12,996.1	64.1552	12,996.1	46.5683	12,996.1	68.0736	12,996.1	39.9421	12,996.1	53.2534	12,996.1	38.8266	12,996.1	41.0144	12,996.1	44.4581	12,996.1	32.8109	12,996.1	52.0032	12,996.1	49.8627	12,996.1	47.7108	12,996.1	51.0235	12,996.1	48.2197	12,996.1	47.8928	12,996.1	50.0776
13,454.6	86.0252	13,454.6	84.5008	13,454.6	85.3805	13,454.6	84.1539	13,454.6	84.9597	13,454.6	81.5767	13,454.6	82.8879	13,454.6	79.1381	13,454.6	80.1096	13,454.6	75.1459	13,454.6	76.0062	13,454.6	72.0777	13,454.6	74.1935	13,454.6	68.3864	13,454.6	67.7957	13,454.6	65.1305	13,454.6	65.693	13,454.6	60.8201	13,454.6	55.9452	13,454.6	55.6694	13,454.6	63.4397	13,454.6	50.5414	13,454.6	68.0864	13,454.6	44.6486	13,454.6	56.5731	13,454.6	46.9666	13,454.6	50.4579	13,454.6	45.1142	13,454.6	26.3073	13,454.6	49.4224	13,454.6	48.7244	13,454.6	53.9603	13,454.6	50.2432	13,454.6	46.9115	13,454.6	50.714	13,454.6	54.4968
13,929.2	85.3999	13,929.2	84.2813	13,929.2	84.6511	13,929.2	83.8813	13,929.2	84.9823	13,929.2	81.2228	13,929.2	82.3583	13,929.2	79.2674	13,929.2	80.1575	13,929.2	74.9102	13,929.2	76.1105	13,929.2	72.3201	13,929.2	73.1086	13,929.2	67.6157	13,929.2	68.625	13,929.2	64.4019	13,929.2	64.8655	13,929.2	60.2972	13,929.2	49.8933	13,929.2	55.0196	13,929.2	62.7163	13,929.2	52.3535	13,929.2	69.6349	13,929.2	46.4622	13,929.2	58.0389	13,929.2	53.0562	13,929.2	46.0296	13,929.2	48.3204	13,929.2	29.9405	13,929.2	49.6776	13,929.2	47.9321	13,929.2	55.085	13,929.2	51.6421	13,929.2	48.7147	13,929.2	54.0625	13,929.2	56.999
14,419.9	84.3938	14,419.9	83.666	14,419.9	83.8076	14,419.9	83.4995	14,419.9	84.534	14,419.9	80.896	14,419.9	82.0145	14,419.9	79.2546	14,419.9	80.1116	14,419.9	75.2004	14,419.9	76.004	14,419.9	71.6431	14,419.9	72.1861	14,419.9	66.1948	14,419.9	68.8673	14,419.9	62.8553	14,419.9	61.8971	14,419.9	60.2485	14,419.9	56.4968	14,419.9	53.3246	14,419.9	62.7922	14,419.9	53.4931	14,419.9	71.1635	14,419.9	51.0027	14,419.9	59.4354	14,419.9	55.154	14,419.9	50.2609	14,419.9	51.9358	14,419.9	45.4236	14,419.9	48.7476	14,419.9	52.5648	14,419.9	49.8528	14,419.9	54.3252	14,419.9	49.3371	14,419.9	56.4493	14,419.9	57.1443
14,928.2	83.6535	14,928.2	83.5677	14,928.2	84.1839	14,928.2	83.1488	14,928.2	84.2878	14,928.2	80.7674	14,928.2	81.5944	14,928.2	78.4377	14,928.2	78.3898	14,928.2	75.7206	14,928.2	74.2731	14,928.2	71.5033	14,928.2	72.4076	14,928.2	67.1103	14,928.2	67.1051	14,928.2	62.688	14,928.2	65.0599	14,928.2	59.5668	14,928.2	59.157	14,928.2	52.897	14,928.2	64.5162	14,928.2	54.7997	14,928.2	71.6639	14,928.2	50.0635	14,928.2	59.9776	14,928.2	54.2968	14,928.2	50.5715	14,928.2	52.8446	14,928.2	50.9089	14,928.2	47.147	14,928.2	52.5319	14,928.2	44.3948	14,928.2	52.3053	14,928.2	48.4515	14,928.2	56.2017	14,928.2	58.2976
15,455.6	83.4244	15,455.6	83.9285	15,455.6	84.6753	15,455.6	83.1588	15,455.6	84.1983	15,455.6	81.0279	15,455.6	81.7827	15,455.6	77.9274	15,455.6	77.1807	15,455.6	75.8232	15,455.6	75.3434	15,455.6	72.1264	15,455.6	73.5079	15,455.6	67.1927	15,455.6	67.3234	15,455.6	62.3862	15,455.6	63.0306	15,455.6	58.3171	15,455.6	58.5523	15,455.6	48.459	15,455.6	64.3165	15,455.6	53.2627	15,455.6	71.2916	15,455.6	48.4481	15,455.6	61.2432	15,455.6	52.6149	15,455.6	51.0757	15,455.6	50.9178	15,455.6	53.013	15,455.6	46.5949	15,455.6	46.6912	15,455.6	42.8462	15,455.6	50.2453	15,455.6	45.2947	15,455.6	53.0971	15,455.6	55.718
16,000.5	84.2027	16,000.5	84.3157	16,000.5	85.1111	16,000.5	83.1902	16,000.5	84.0488	16,000.5	81.0762	16,000.5	81.7755	16,000.5	78.2149	16,000.5	78.3456	16,000.5	75.0765	16,000.5	74.6966	16,000.5	71.901	16,000.5	72.1514	16,000.5	65.973	16,000.5	65.9126	16,000.5	61.6707	16,000.5	60.6512	16,000.5	58.1368	16,000.5	60.8362	16,000.5	48.2111	16,000.5	64.3866	16,000.5	49.2433	16,000.5	70.8549	16,000.5	40.9498	16,000.5	60.3397	16,000.5	51.33	16,000.5	50.0227	16,000.5	48.2936	16,000.5	49.0782	16,000.5	38.8497	16,000.5	50.0294	16,000.5	51.2091	16,000.5	43.2577	16,000.5	50.7366	16,000.5	44.5451	16,000.5	36.3545
16,564.5	84.7803	16,564.5	84.3115	16,564.5	85.0097	16,564.5	82.9551	16,564.5	83.616	16,564.5	80.6237	16,564.5	81.362	16,564.5	78.1981	16,564.5	77.9689	16,564.5	74.2227	16,564.5	72.9966	16,564.5	70.5619	16,564.5	71.7364	16,564.5	66.1198	16,564.5	65.462	16,564.5	62.3063	16,564.5	63.9572	16,564.5	58.6358	16,564.5	59.5377	16,564.5	48.0814	16,564.5	66.0304	16,564.5	52.4111	16,564.5	72.0881	16,564.5	45.2029	16,564.5	60.8319	16,564.5	50.1572	16,564.5	44.6414	16,564.5	47.5549	16,564.5	44.4224	16,564.5	45.3641	16,564.5	55.1175	16,564.5	50.9216	16,564.5	46.8089	16,564.5	55.0187	16,564.5	51.5823	16,564.5	51.1328
17,148.9	84.8532	17,148.9	84.223	17,148.9	84.5596	17,148.9	82.9419	17,148.9	83.0349	17,148.9	79.984	17,148.9	80.7334	17,148.9	77.9678	17,148.9	77.7818	17,148.9	74.1273	17,148.9	73.3291	17,148.9	69.6421	17,148.9	72.5542	17,148.9	65.9667	17,148.9	66.5229	17,148.9	61.3332	17,148.9	62.5647	17,148.9	56.8696	17,148.9	57.4136	17,148.9	37.838	17,148.9	65.1364	17,148.9	53.7254	17,148.9	72.2195	17,148.9	49.076	17,148.9	60.5086	17,148.9	51.4867	17,148.9	47.4495	17,148.9	46.8359	17,148.9	50.663	17,148.9	49.1916	17,148.9	56.0987	17,148.9	51.6342	17,148.9	51.9701	17,148.9	56.6987	17,148.9	55.0248	17,148.9	55.192
17,752.4	84.5462	17,752.4	83.7917	17,752.4	84.3532	17,752.4	82.1418	17,752.4	82.8181	17,752.4	79.3758	17,752.4	80.2395	17,752.4	78.0874	17,752.4	77.8573	17,752.4	73.5925	17,752.4	73.604	17,752.4	69.3719	17,752.4	70.5692	17,752.4	63.94	17,752.4	65.1112	17,752.4	59.9069	17,752.4	60.7015	17,752.4	51.8587	17,752.4	53.6827	17,752.4	44.9071	17,752.4	63.2983	17,752.4	53.9775	17,752.4	71.5398	17,752.4	49.7262	17,752.4	60.5422	17,752.4	51.1522	17,752.4	49.2178	17,752.4	47.9207	17,752.4	49.3419	17,752.4	48.9811	17,752.4	57.0642	17,752.4	48.3512	17,752.4	52.2619	17,752.4	55.9325	17,752.4	54.573	17,752.4	56.2664
18,379.4	83.5349	18,379.4	82.7652	18,379.4	83.6054	18,379.4	81.4309	18,379.4	82.4866	18,379.4	79.1701	18,379.4	79.8243	18,379.4	77.9523	18,379.4	77.4321	18,379.4	72.6085	18,379.4	72.3038	18,379.4	68.8165	18,379.4	69.1159	18,379.4	62.7592	18,379.4	64.4583	18,379.4	61.0449	18,379.4	58.375	18,379.4	50.3526	18,379.4	53.5168	18,379.4	49.4029	18,379.4	62.9928	18,379.4	54.7301	18,379.4	71.7663	18,379.4	50.5991	18,379.4	60.247	18,379.4	52.0507	18,379.4	49.9879	18,379.4	49.6268	18,379.4	52.694	18,379.4	51.0856	18,379.4	57.8139	18,379.4	51.163	18,379.4	52.4031	18,379.4	57.8335	18,379.4	54.9016	18,379.4	57.5411
19,026.9	82.5682	19,026.9	82.2576	19,026.9	83.0215	19,026.9	81.3459	19,026.9	81.7926	19,026.9	78.943	19,026.9	79.2561	19,026.9	77.1474	19,026.9	76.3974	19,026.9	71.7327	19,026.9	70.1641	19,026.9	68.0491	19,026.9	67.6592	19,026.9	61.2372	19,026.9	63.8004	19,026.9	61.5097	19,026.9	59.5638	19,026.9	48.7859	19,026.9	54.0685	19,026.9	51.0926	19,026.9	63.088	19,026.9	54.245	19,026.9	71.077	19,026.9	49.2922	19,026.9	58.8964	19,026.9	53.6974	19,026.9	52.5176	19,026.9	49.8206	19,026.9	52.6119	19,026.9	51.5862	19,026.9	57.8268	19,026.9	53.8246	19,026.9	52.9647	19,026.9	57.5965	19,026.9	55.716	19,026.9	57.7717
19,697.8	81.1	19,697.8	81.4327	19,697.8	82.0577	19,697.8	80.8024	19,697.8	80.9221	19,697.8	78.1826	19,697.8	78.3705	19,697.8	76.0892	19,697.8	75.2238	19,697.8	71.0001	19,697.8	66.4551	19,697.8	66.8638	19,697.8	69.4958	19,697.8	60.7048	19,697.8	60.9518	19,697.8	61.1633	19,697.8	60.4444	19,697.8	51.1201	19,697.8	52.4342	19,697.8	51.4121	19,697.8	62.0093	19,697.8	54.6615	19,697.8	70.1163	19,697.8	50.9713	19,697.8	58.887	19,697.8	55.0441	19,697.8	51.4419	19,697.8	48.3704	19,697.8	54.7259	19,697.8	52.1735	19,697.8	56.9903	19,697.8	54.9935	19,697.8	54.1283	19,697.8	56.2592	19,697.8	55.4479	19,697.8	57.6744
19,999.5	80.5125	19,999.5	81.2145	19,999.5	81.4418	19,999.5	80.6272	19,999.5	80.4934	19,999.5	77.8538	19,999.5	77.8616	19,999.5	75.3663	19,999.5	74.7135	19,999.5	70.4602	19,999.5	66.3357	19,999.5	65.7575	19,999.5	69.342	19,999.5	61.1392	19,999.5	63.3425	19,999.5	60.5387	19,999.5	58.7549	19,999.5	50.9056	19,999.5	51.7065	19,999.5	51.8756	19,999.5	58.6946	19,999.5	55.3743	19,999.5	69.0233	19,999.5	52.7374	19,999.5	56.1427	19,999.5	51.8627	19,999.5	54.7485	19,999.5	50.8952	19,999.5	56.1964	19,999.5	48.8317	19,999.5	55.6185	19,999.5	57.3644	19,999.5	42.7527	19,999.5	57.0221	19,999.5	56.4834	19,999.5	58.9982
