"SPL Horizontal"																																																																							
"On-Axis"		"10°"		"-10°"		"20°"		"-20°"		"30°"		"-30°"		"40°"		"-40°"		"50°"		"-50°"		"60°"		"-60°"		"70°"		"-70°"		"80°"		"-80°"		"90°"		"-90°"		"100°"		"-100°"		"110°"		"-110°"		"120°"		"-120°"		"130°"		"-130°"		"140°"		"-140°"		"150°"		"-150°"		"160°"		"-160°"		"170°"		"-170°"		"180°"	
"Frequency [Hz]"	"Sound Pessure Level [dB]    /  [	2.83	V at 	35	m]"	"Frequency [Hz]"	"Sound Pessure Level [dB]    /  [	2.83	V at 	35	m]"	"Frequency [Hz]"	"Sound Pessure Level [dB]    /  [	2.83	V at 	35	m]"	"Frequency [Hz]"	"Sound Pessure Level [dB]    /  [	2.83	V at 	35	m]"	"Frequency [Hz]"	"Sound Pessure Level [dB]    /  [	2.83	V at 	35	m]"	"Frequency [Hz]"	"Sound Pessure Level [dB]    /  [	2.83	V at 	35	m]"	"Frequency [Hz]"	"Sound Pessure Level [dB]    /  [	2.83	V at 	35	m]"	"Frequency [Hz]"	"Sound Pessure Level [dB]    /  [	2.83	V at 	35	m]"	"Frequency [Hz]"	"Sound Pessure Level [dB]    /  [	2.83	V at 	35	m]"	"Frequency [Hz]"	"Sound Pessure Level [dB]    /  [	2.83	V at 	35	m]"	"Frequency [Hz]"	"Sound Pessure Level [dB]    /  [	2.83	V at 	35	m]"	"Frequency [Hz]"	"Sound Pessure Level [dB]    /  [	2.83	V at 	35	m]"	"Frequency [Hz]"	"Sound Pessure Level [dB]    /  [	2.83	V at 	35	m]"	"Frequency [Hz]"	"Sound Pessure Level [dB]    /  [	2.83	V at 	35	m]"	"Frequency [Hz]"	"Sound Pessure Level [dB]    /  [	2.83	V at 	35	m]"	"Frequency [Hz]"	"Sound Pessure Level [dB]    /  [	2.83	V at 	35	m]"	"Frequency [Hz]"	"Sound Pessure Level [dB]    /  [	2.83	V at 	35	m]"	"Frequency [Hz]"	"Sound Pessure Level [dB]    /  [	2.83	V at 	35	m]"	"Frequency [Hz]"	"Sound Pessure Level [dB]    /  [	2.83	V at 	35	m]"	"Frequency [Hz]"	"Sound Pessure Level [dB]    /  [	2.83	V at 	35	m]"	"Frequency [Hz]"	"Sound Pessure Level [dB]    /  [	2.83	V at 	35	m]"	"Frequency [Hz]"	"Sound Pessure Level [dB]    /  [	2.83	V at 	35	m]"	"Frequency [Hz]"	"Sound Pessure Level [dB]    /  [	2.83	V at 	35	m]"	"Frequency [Hz]"	"Sound Pessure Level [dB]    /  [	2.83	V at 	35	m]"	"Frequency [Hz]"	"Sound Pessure Level [dB]    /  [	2.83	V at 	35	m]"	"Frequency [Hz]"	"Sound Pessure Level [dB]    /  [	2.83	V at 	35	m]"	"Frequency [Hz]"	"Sound Pessure Level [dB]    /  [	2.83	V at 	35	m]"	"Frequency [Hz]"	"Sound Pessure Level [dB]    /  [	2.83	V at 	35	m]"	"Frequency [Hz]"	"Sound Pessure Level [dB]    /  [	2.83	V at 	35	m]"	"Frequency [Hz]"	"Sound Pessure Level [dB]    /  [	2.83	V at 	35	m]"	"Frequency [Hz]"	"Sound Pessure Level [dB]    /  [	2.83	V at 	35	m]"	"Frequency [Hz]"	"Sound Pessure Level [dB]    /  [	2.83	V at 	35	m]"	"Frequency [Hz]"	"Sound Pessure Level [dB]    /  [	2.83	V at 	35	m]"	"Frequency [Hz]"	"Sound Pessure Level [dB]    /  [	2.83	V at 	35	m]"	"Frequency [Hz]"	"Sound Pessure Level [dB]    /  [	2.83	V at 	35	m]"	"Frequency [Hz]"	"Sound Pessure Level [dB]    /  [	2.83	V at 	35	m]"
20.5078	50.711	20.5078	50.8048	20.5078	50.6309	20.5078	50.9101	20.5078	50.5664	20.5078	51.0244	20.5078	50.5193	20.5078	51.1453	20.5078	50.4908	20.5078	51.2701	20.5078	50.4818	20.5078	51.3962	20.5078	50.4923	20.5078	51.5202	20.5078	50.5219	20.5078	51.6387	20.5078	50.5696	20.5078	51.7475	20.5078	50.634	20.5078	51.8418	20.5078	50.7132	20.5078	51.9168	20.5078	50.8056	20.5078	51.9676	20.5078	50.9095	20.5078	51.99	20.5078	51.0234	20.5078	51.9817	20.5078	51.1457	20.5078	51.942	20.5078	51.2745	20.5078	51.873	20.5078	51.4071	20.5078	51.7787	20.5078	51.5391	20.5078	51.6652
21.9727	43.8347	21.9727	43.9384	21.9727	43.7435	21.9727	44.0528	21.9727	43.6672	21.9727	44.1768	21.9727	43.608	21.9727	44.31	21.9727	43.568	21.9727	44.4521	21.9727	43.5484	21.9727	44.6028	21.9727	43.5497	21.9727	44.7602	21.9727	43.5715	21.9727	44.9209	21.9727	43.6131	21.9727	45.079	21.9727	43.6739	21.9727	45.2259	21.9727	43.7534	21.9727	45.3512	21.9727	43.852	21.9727	45.4443	21.9727	43.9702	21.9727	45.4953	21.9727	44.1089	21.9727	45.4972	21.9727	44.2683	21.9727	45.4473	21.9727	44.4467	21.9727	45.3477	21.9727	44.6392	21.9727	45.2052	21.9727	44.8378	21.9727	45.0309
23.4375	45.1378	23.4375	45.2174	23.4375	45.0675	23.4375	45.3044	23.4375	45.0078	23.4375	45.3964	23.4375	44.9596	23.4375	45.4907	23.4375	44.923	23.4375	45.5842	23.4375	44.8977	23.4375	45.6741	23.4375	44.8832	23.4375	45.7575	23.4375	44.879	23.4375	45.8315	23.4375	44.8847	23.4375	45.8936	23.4375	44.9006	23.4375	45.9412	23.4375	44.9277	23.4375	45.9716	23.4375	44.9674	23.4375	45.9823	23.4375	45.0211	23.4375	45.9713	23.4375	45.0897	23.4375	45.9374	23.4375	45.1732	23.4375	45.8809	23.4375	45.2699	23.4375	45.8036	23.4375	45.377	23.4375	45.7091	23.4375	45.4897	23.4375	45.6025
24.9023	43.9593	24.9023	44.0337	24.9023	43.908	24.9023	44.1295	24.9023	43.8806	24.9023	44.2442	24.9023	43.8775	24.9023	44.375	24.9023	43.8979	24.9023	44.5184	24.9023	43.9405	24.9023	44.6705	24.9023	44.003	24.9023	44.8267	24.9023	44.0829	24.9023	44.9817	24.9023	44.1774	24.9023	45.1295	24.9023	44.2836	24.9023	45.264	24.9023	44.3991	24.9023	45.3789	24.9023	44.5216	24.9023	45.4687	24.9023	44.6489	24.9023	45.5294	24.9023	44.7791	24.9023	45.5584	24.9023	44.91	24.9023	45.5556	24.9023	45.0388	24.9023	45.5224	24.9023	45.1626	24.9023	45.4621	24.9023	45.2774	24.9023	45.3788
26.3672	43.5943	26.3672	43.5778	26.3672	43.6102	26.3672	43.5603	26.3672	43.6249	26.3672	43.5408	26.3672	43.6375	26.3672	43.5181	26.3672	43.6463	26.3672	43.4911	26.3672	43.6497	26.3672	43.4594	26.3672	43.6462	26.3672	43.4233	26.3672	43.6347	26.3672	43.3839	26.3672	43.6147	26.3672	43.3432	26.3672	43.5867	26.3672	43.3033	26.3672	43.5513	26.3672	43.2665	26.3672	43.5101	26.3672	43.2347	26.3672	43.4646	26.3672	43.2095	26.3672	43.4165	26.3672	43.1918	26.3672	43.3679	26.3672	43.1825	26.3672	43.3207	26.3672	43.1824	26.3672	43.2775	26.3672	43.1921	26.3672	43.2405	26.3672	43.2116
27.832	46.1694	27.832	46.2527	27.832	46.1001	27.832	46.3476	27.832	46.0463	27.832	46.4507	27.832	46.0088	27.832	46.5576	27.832	45.9877	27.832	46.6627	27.832	45.9827	27.832	46.7596	27.832	45.9929	27.832	46.8413	27.832	46.017	27.832	46.9015	27.832	46.0532	27.832	46.9348	27.832	46.0991	27.832	46.9388	27.832	46.1521	27.832	46.9143	27.832	46.2089	27.832	46.8656	27.832	46.2659	27.832	46.8005	27.832	46.3198	27.832	46.7284	27.832	46.3679	27.832	46.6583	27.832	46.4089	27.832	46.5968	27.832	46.4435	27.832	46.5469	27.832	46.4748	27.832	46.5076
29.2969	45.7945	29.2969	45.7912	29.2969	45.802	29.2969	45.7925	29.2969	45.8128	29.2969	45.7983	29.2969	45.8254	29.2969	45.8073	29.2969	45.8385	29.2969	45.8178	29.2969	45.8505	29.2969	45.8274	29.2969	45.8604	29.2969	45.8334	29.2969	45.8674	29.2969	45.8335	29.2969	45.8709	29.2969	45.8262	29.2969	45.8708	29.2969	45.811	29.2969	45.867	29.2969	45.7893	29.2969	45.8592	29.2969	45.7633	29.2969	45.8474	29.2969	45.7367	29.2969	45.8313	29.2969	45.7136	29.2969	45.8107	29.2969	45.6977	29.2969	45.7863	29.2969	45.6917	29.2969	45.7598	29.2969	45.6966	29.2969	45.7337	29.2969	45.7115
30.7617	49.4593	30.7617	49.4491	30.7617	49.4725	30.7617	49.442	30.7617	49.4882	30.7617	49.4378	30.7617	49.5058	30.7617	49.4361	30.7617	49.5244	30.7617	49.4361	30.7617	49.5432	30.7617	49.4368	30.7617	49.5611	30.7617	49.4371	30.7617	49.5773	30.7617	49.4358	30.7617	49.5908	30.7617	49.4323	30.7617	49.6008	30.7617	49.4264	30.7617	49.6062	30.7617	49.4186	30.7617	49.6061	30.7617	49.4101	30.7617	49.5997	30.7617	49.403	30.7617	49.5865	30.7617	49.3994	30.7617	49.5665	30.7617	49.4015	30.7617	49.5407	30.7617	49.4108	30.7617	49.5111	30.7617	49.4278	30.7617	49.4804	30.7617	49.4517
32.2266	51.0035	32.2266	50.984	32.2266	51.0242	32.2266	50.9661	32.2266	51.0458	32.2266	50.9496	32.2266	51.0673	32.2266	50.9339	32.2266	51.0877	32.2266	50.9184	32.2266	51.106	32.2266	50.9021	32.2266	51.1211	32.2266	50.8843	32.2266	51.1318	32.2266	50.8646	32.2266	51.1373	32.2266	50.8432	32.2266	51.1369	32.2266	50.8213	32.2266	51.1299	32.2266	50.8007	32.2266	51.116	32.2266	50.7838	32.2266	51.0951	32.2266	50.7732	32.2266	51.0674	32.2266	50.7714	32.2266	51.0334	32.2266	50.7799	32.2266	50.9941	32.2266	50.7991	32.2266	50.9513	32.2266	50.8283	32.2266	50.9073	32.2266	50.8653
33.6914	53.7648	33.6914	53.7521	33.6914	53.7805	33.6914	53.7423	33.6914	53.7986	33.6914	53.7352	33.6914	53.8186	33.6914	53.7304	33.6914	53.8395	33.6914	53.7272	33.6914	53.8604	33.6914	53.7245	33.6914	53.8802	33.6914	53.7216	33.6914	53.8978	33.6914	53.7179	33.6914	53.9122	33.6914	53.713	33.6914	53.9223	33.6914	53.7072	33.6914	53.9274	33.6914	53.7013	33.6914	53.9266	33.6914	53.6967	33.6914	53.9196	33.6914	53.6951	33.6914	53.9059	33.6914	53.6981	33.6914	53.8861	33.6914	53.707	33.6914	53.8608	33.6914	53.7225	33.6914	53.8317	33.6914	53.7442	33.6914	53.801	33.6914	53.771
35.1563	54.9873	35.1563	54.9455	35.1563	55.0294	35.1563	54.9047	35.1563	55.0707	35.1563	54.8662	35.1563	55.1103	35.1563	54.831	35.1563	55.1475	35.1563	54.8004	35.1563	55.1814	35.1563	54.7758	35.1563	55.2113	35.1563	54.7583	35.1563	55.2365	35.1563	54.7488	35.1563	55.2563	35.1563	54.7482	35.1563	55.2701	35.1563	54.7564	35.1563	55.2771	35.1563	54.7734	35.1563	55.2767	35.1563	54.7987	35.1563	55.2684	35.1563	54.8312	35.1563	55.2519	35.1563	54.8701	35.1563	55.2271	35.1563	54.9142	35.1563	55.1946	35.1563	54.962	35.1563	55.1553	35.1563	55.0119	35.1563	55.1105	35.1563	55.0621
36.6211	57.3893	36.6211	57.3758	36.6211	57.4015	36.6211	57.3611	36.6211	57.4123	36.6211	57.3453	36.6211	57.4213	36.6211	57.3286	36.6211	57.4284	36.6211	57.3111	36.6211	57.4334	36.6211	57.2932	36.6211	57.436	36.6211	57.2753	36.6211	57.4359	36.6211	57.2579	36.6211	57.4329	36.6211	57.2417	36.6211	57.4268	36.6211	57.2274	36.6211	57.4176	36.6211	57.2157	36.6211	57.4052	36.6211	57.2077	36.6211	57.3896	36.6211	57.2039	36.6211	57.3711	36.6211	57.205	36.6211	57.3501	36.6211	57.2112	36.6211	57.3272	36.6211	57.2224	36.6211	57.3034	36.6211	57.2381	36.6211	57.2798	36.6211	57.2576
38.0859	59.6282	38.0859	59.6167	38.0859	59.6378	38.0859	59.6035	38.0859	59.6453	38.0859	59.589	38.0859	59.6503	38.0859	59.5735	38.0859	59.6528	38.0859	59.5573	38.0859	59.6529	38.0859	59.5408	38.0859	59.6505	38.0859	59.5242	38.0859	59.6459	38.0859	59.508	38.0859	59.6394	38.0859	59.4928	38.0859	59.6311	38.0859	59.4792	38.0859	59.6212	38.0859	59.4681	38.0859	59.6099	38.0859	59.4601	38.0859	59.5971	38.0859	59.456	38.0859	59.5828	38.0859	59.4563	38.0859	59.5672	38.0859	59.4611	38.0859	59.5504	38.0859	59.4701	38.0859	59.5328	38.0859	59.4827	38.0859	59.515	38.0859	59.498
39.5508	61.5482	39.5508	61.537	39.5508	61.5571	39.5508	61.5236	39.5508	61.5636	39.5508	61.5081	39.5508	61.5675	39.5508	61.4906	39.5508	61.5687	39.5508	61.4711	39.5508	61.5669	39.5508	61.4497	39.5508	61.5621	39.5508	61.4267	39.5508	61.5542	39.5508	61.4025	39.5508	61.5434	39.5508	61.3779	39.5508	61.5298	39.5508	61.354	39.5508	61.5135	39.5508	61.3321	39.5508	61.4947	39.5508	61.3138	39.5508	61.4737	39.5508	61.3005	39.5508	61.4507	39.5508	61.2933	39.5508	61.4262	39.5508	61.2929	39.5508	61.4009	39.5508	61.2992	39.5508	61.3755	39.5508	61.3118	39.5508	61.3513	39.5508	61.3296
41.0156	63.4798	41.0156	63.4737	41.0156	63.4842	41.0156	63.4659	41.0156	63.4867	41.0156	63.4565	41.0156	63.4872	41.0156	63.4458	41.0156	63.4857	41.0156	63.4337	41.0156	63.482	41.0156	63.4204	41.0156	63.4762	41.0156	63.4062	41.0156	63.4683	41.0156	63.3911	41.0156	63.4585	41.0156	63.3756	41.0156	63.4469	41.0156	63.3601	41.0156	63.4339	41.0156	63.3453	41.0156	63.4197	41.0156	63.332	41.0156	63.4046	41.0156	63.3209	41.0156	63.389	41.0156	63.3129	41.0156	63.3732	41.0156	63.3086	41.0156	63.3577	41.0156	63.3083	41.0156	63.3431	41.0156	63.3121	41.0156	63.3302	41.0156	63.3196
42.4805	65.1572	42.4805	65.1528	42.4805	65.1578	42.4805	65.1451	42.4805	65.1547	42.4805	65.1343	42.4805	65.1477	42.4805	65.1208	42.4805	65.1368	42.4805	65.1051	42.4805	65.1222	42.4805	65.0877	42.4805	65.1043	42.4805	65.0691	42.4805	65.0836	42.4805	65.0499	42.4805	65.0609	42.4805	65.0308	42.4805	65.0373	42.4805	65.0125	42.4805	65.0139	42.4805	64.9956	42.4805	64.9921	42.4805	64.9805	42.4805	64.9729	42.4805	64.9675	42.4805	64.9574	42.4805	64.9567	42.4805	64.9458	42.4805	64.9482	42.4805	64.9382	42.4805	64.9416	42.4805	64.934	42.4805	64.9368	42.4805	64.9327	42.4805	64.9338
43.9453	66.9909	43.9453	66.9857	43.9453	66.9908	43.9453	66.9751	43.9453	66.9854	43.9453	66.9596	43.9453	66.9749	43.9453	66.9395	43.9453	66.9595	43.9453	66.9154	43.9453	66.9399	43.9453	66.888	43.9453	66.9166	43.9453	66.8583	43.9453	66.8903	43.9453	66.8272	43.9453	66.862	43.9453	66.796	43.9453	66.8327	43.9453	66.7659	43.9453	66.8034	43.9453	66.7379	43.9453	66.7751	43.9453	66.7132	43.9453	66.7487	43.9453	66.6924	43.9453	66.725	43.9453	66.6762	43.9453	66.7044	43.9453	66.6647	43.9453	66.6873	43.9453	66.658	43.9453	66.6738	43.9453	66.6558	43.9453	66.6639	43.9453	66.6579
45.4102	68.7217	45.4102	68.718	45.4102	68.7202	45.4102	68.7091	45.4102	68.7136	45.4102	68.6953	45.4102	68.7023	45.4102	68.6769	45.4102	68.6865	45.4102	68.6544	45.4102	68.6669	45.4102	68.6285	45.4102	68.6439	45.4102	68.5999	45.4102	68.6184	45.4102	68.5696	45.4102	68.591	45.4102	68.5386	45.4102	68.5626	45.4102	68.508	45.4102	68.534	45.4102	68.479	45.4102	68.506	45.4102	68.4527	45.4102	68.4794	45.4102	68.4299	45.4102	68.455	45.4102	68.4114	45.4102	68.4336	45.4102	68.3976	45.4102	68.4155	45.4102	68.3888	45.4102	68.4014	45.4102	68.3849	45.4102	68.3914	45.4102	68.3858
46.875	70.3894	46.875	70.3859	46.875	70.388	46.875	70.3774	46.875	70.3816	46.875	70.3642	46.875	70.3706	46.875	70.3466	46.875	70.3553	46.875	70.3252	46.875	70.3361	46.875	70.3006	46.875	70.3135	46.875	70.2736	46.875	70.2884	46.875	70.245	46.875	70.2613	46.875	70.2157	46.875	70.233	46.875	70.1867	46.875	70.2045	46.875	70.159	46.875	70.1765	46.875	70.1333	46.875	70.15	46.875	70.1106	46.875	70.1258	46.875	70.0916	46.875	70.1046	46.875	70.0767	46.875	70.0871	46.875	70.0664	46.875	70.0736	46.875	70.061	46.875	70.0647	46.875	70.0604
48.3398	71.9783	48.3398	71.9769	48.3398	71.9744	48.3398	71.9703	48.3398	71.9655	48.3398	71.9586	48.3398	71.952	48.3398	71.9421	48.3398	71.9345	48.3398	71.9215	48.3398	71.9135	48.3398	71.8974	48.3398	71.8898	48.3398	71.8707	48.3398	71.8642	48.3398	71.8423	48.3398	71.8376	48.3398	71.8134	48.3398	71.8108	48.3398	71.785	48.3398	71.7845	48.3398	71.758	48.3398	71.7595	48.3398	71.7335	48.3398	71.7364	48.3398	71.712	48.3398	71.7159	48.3398	71.6941	48.3398	71.6984	48.3398	71.6803	48.3398	71.6842	48.3398	71.6706	48.3398	71.6736	48.3398	71.6652	48.3398	71.6668	48.3398	71.664
51.2695	74.5661	51.2695	74.5657	51.2695	74.5599	51.2695	74.5586	51.2695	74.5471	51.2695	74.5452	51.2695	74.5284	51.2695	74.5258	51.2695	74.5043	51.2695	74.501	51.2695	74.4756	51.2695	74.4718	51.2695	74.4434	51.2695	74.4391	51.2695	74.4088	51.2695	74.4041	51.2695	74.3729	51.2695	74.3679	51.2695	74.3372	51.2695	74.3317	51.2695	74.3028	51.2695	74.297	51.2695	74.2707	51.2695	74.2647	51.2695	74.2419	51.2695	74.2359	51.2695	74.2171	51.2695	74.2115	51.2695	74.1967	51.2695	74.1918	51.2695	74.1811	51.2695	74.1772	51.2695	74.1703	51.2695	74.1679	51.2695	74.1645	51.2695	74.1636
52.7344	75.653	52.7344	75.652	52.7344	75.6472	52.7344	75.6442	52.7344	75.6348	52.7344	75.6298	52.7344	75.6163	52.7344	75.609	52.7344	75.5922	52.7344	75.5827	52.7344	75.5634	52.7344	75.5514	52.7344	75.5306	52.7344	75.5162	52.7344	75.495	52.7344	75.4782	52.7344	75.4576	52.7344	75.4384	52.7344	75.4195	52.7344	75.3983	52.7344	75.3817	52.7344	75.3591	52.7344	75.3455	52.7344	75.3221	52.7344	75.3117	52.7344	75.2888	52.7344	75.2814	52.7344	75.2601	52.7344	75.2554	52.7344	75.237	52.7344	75.2344	52.7344	75.2201	52.7344	75.2189	52.7344	75.2099	52.7344	75.2094	52.7344	75.2063
54.1992	76.6462	54.1992	76.6496	54.1992	76.6359	54.1992	76.646	54.1992	76.6191	54.1992	76.6356	54.1992	76.5963	54.1992	76.6185	54.1992	76.5681	54.1992	76.5954	54.1992	76.5356	54.1992	76.567	54.1992	76.4997	54.1992	76.5341	54.1992	76.4615	54.1992	76.4978	54.1992	76.4224	54.1992	76.4594	54.1992	76.3836	54.1992	76.42	54.1992	76.3464	54.1992	76.3809	54.1992	76.3118	54.1992	76.3435	54.1992	76.281	54.1992	76.309	54.1992	76.2547	54.1992	76.2784	54.1992	76.2337	54.1992	76.2526	54.1992	76.2184	54.1992	76.2321	54.1992	76.209	54.1992	76.2173	54.1992	76.2057	54.1992	76.2084
55.6641	77.4778	55.6641	77.4811	55.6641	77.4688	55.6641	77.4786	55.6641	77.4544	55.6641	77.4704	55.6641	77.4353	55.6641	77.4566	55.6641	77.4121	55.6641	77.4379	55.6641	77.3857	55.6641	77.4148	55.6641	77.357	55.6641	77.3881	55.6641	77.327	55.6641	77.3588	55.6641	77.2968	55.6641	77.3279	55.6641	77.2674	55.6641	77.2965	55.6641	77.2397	55.6641	77.2658	55.6641	77.2145	55.6641	77.2369	55.6641	77.1925	55.6641	77.2107	55.6641	77.1741	55.6641	77.1881	55.6641	77.1595	55.6641	77.1696	55.6641	77.1488	55.6641	77.1555	55.6641	77.1421	55.6641	77.1458	55.6641	77.1393	55.6641	77.1404
58.5938	78.6536	58.5938	78.6509	58.5938	78.6491	58.5938	78.6413	58.5938	78.6378	58.5938	78.625	58.5938	78.6201	58.5938	78.6027	58.5938	78.5969	58.5938	78.5752	58.5938	78.569	58.5938	78.5437	58.5938	78.5377	58.5938	78.5095	58.5938	78.5041	58.5938	78.4739	58.5938	78.4694	58.5938	78.4384	58.5938	78.4351	58.5938	78.4043	58.5938	78.4021	58.5938	78.3728	58.5938	78.3716	58.5938	78.3448	58.5938	78.3444	58.5938	78.321	58.5938	78.3211	58.5938	78.3016	58.5938	78.3021	58.5938	78.2868	58.5938	78.2874	58.5938	78.2765	58.5938	78.277	58.5938	78.2705	58.5938	78.2708	58.5938	78.2686
60.0586	79.1253	60.0586	79.1223	60.0586	79.1202	60.0586	79.1114	60.0586	79.1074	60.0586	79.0932	60.0586	79.0873	60.0586	79.0682	60.0586	79.0609	60.0586	79.0376	60.0586	79.0292	60.0586	79.0028	60.0586	78.9938	60.0586	78.9651	60.0586	78.9559	60.0586	78.9262	60.0586	78.9173	60.0586	78.8875	60.0586	78.8794	60.0586	78.8506	60.0586	78.8436	60.0586	78.8167	60.0586	78.8109	60.0586	78.7867	60.0586	78.7824	60.0586	78.7613	60.0586	78.7583	60.0586	78.7408	60.0586	78.739	60.0586	78.7252	60.0586	78.7243	60.0586	78.7144	60.0586	78.7141	60.0586	78.7081	60.0586	78.708	60.0586	78.7061
62.9883	79.9076	62.9883	79.9061	62.9883	79.8988	62.9883	79.8942	62.9883	79.8797	62.9883	79.8727	62.9883	79.8509	62.9883	79.8423	62.9883	79.8133	62.9883	79.8042	62.9883	79.7681	62.9883	79.7598	62.9883	79.717	62.9883	79.7108	62.9883	79.6618	62.9883	79.6589	62.9883	79.6046	62.9883	79.6059	62.9883	79.5476	62.9883	79.5536	62.9883	79.4931	62.9883	79.5038	62.9883	79.4431	62.9883	79.4579	62.9883	79.3991	62.9883	79.4168	62.9883	79.3625	62.9883	79.3813	62.9883	79.3341	62.9883	79.3519	62.9883	79.314	62.9883	79.3288	62.9883	79.3022	62.9883	79.3119	62.9883	79.2983	62.9883	79.3017
64.4531	80.1075	64.4531	80.1056	64.4531	80.0998	64.4531	80.0944	64.4531	80.0828	64.4531	80.0744	64.4531	80.0571	64.4531	80.0462	64.4531	80.0235	64.4531	80.011	64.4531	79.9833	64.4531	79.9702	64.4531	79.9378	64.4531	79.9252	64.4531	79.8889	64.4531	79.8777	64.4531	79.8382	64.4531	79.8294	64.4531	79.7878	64.4531	79.7819	64.4531	79.7394	64.4531	79.7368	64.4531	79.6948	64.4531	79.6953	64.4531	79.6553	64.4531	79.6585	64.4531	79.6221	64.4531	79.627	64.4531	79.5957	64.4531	79.6013	64.4531	79.5765	64.4531	79.5816	64.4531	79.5643	64.4531	79.5679	64.4531	79.5591	64.4531	79.5603
67.3828	80.4543	67.3828	80.4517	67.3828	80.4466	67.3828	80.4392	67.3828	80.4288	67.3828	80.4173	67.3828	80.4017	67.3828	80.387	67.3828	80.3659	67.3828	80.3496	67.3828	80.323	67.3828	80.3066	67.3828	80.2745	67.3828	80.2599	67.3828	80.2222	67.3828	80.2114	67.3828	80.1682	67.3828	80.1629	67.3828	80.1149	67.3828	80.1162	67.3828	80.0642	67.3828	80.0728	67.3828	80.0184	67.3828	80.0338	67.3828	79.979	67.3828	79.9998	67.3828	79.9474	67.3828	79.9711	67.3828	79.9239	67.3828	79.9476	67.3828	79.9087	67.3828	79.9288	67.3828	79.9011	67.3828	79.9146	67.3828	79.9002	67.3828	79.9049
68.8477	80.4679	68.8477	80.4625	68.8477	80.463	68.8477	80.4471	68.8477	80.4478	68.8477	80.4222	68.8477	80.4227	68.8477	80.3888	68.8477	80.3884	68.8477	80.3481	68.8477	80.3459	68.8477	80.3015	68.8477	80.2965	68.8477	80.2508	68.8477	80.2418	68.8477	80.1978	68.8477	80.1836	68.8477	80.1443	68.8477	80.124	68.8477	80.0922	68.8477	80.0653	68.8477	80.043	68.8477	80.0099	68.8477	79.998	68.8477	79.96	68.8477	79.958	68.8477	79.9175	68.8477	79.9237	68.8477	79.884	68.8477	79.8951	68.8477	79.8603	68.8477	79.8722	68.8477	79.8463	68.8477	79.8553	68.8477	79.8415	68.8477	79.8448
71.7773	80.4857	71.7773	80.4782	71.7773	80.4823	71.7773	80.4599	71.7773	80.4685	71.7773	80.4315	71.7773	80.4448	71.7773	80.3941	71.7773	80.4126	71.7773	80.349	71.7773	80.3732	71.7773	80.2981	71.7773	80.3283	71.7773	80.2436	71.7773	80.2797	71.7773	80.1877	71.7773	80.2294	71.7773	80.1329	71.7773	80.179	71.7773	80.0812	71.7773	80.1302	71.7773	80.0345	71.7773	80.0842	71.7773	79.9942	71.7773	80.0421	71.7773	79.9612	71.7773	80.0049	71.7773	79.9357	71.7773	79.973	71.7773	79.9177	71.7773	79.9469	71.7773	79.9067	71.7773	79.9267	71.7773	79.9024	71.7773	79.9126	71.7773	79.9044
74.707	80.559	74.707	80.5521	74.707	80.5546	74.707	80.5341	74.707	80.5392	74.707	80.5054	74.707	80.5137	74.707	80.4672	74.707	80.4792	74.707	80.4209	74.707	80.4373	74.707	80.3684	74.707	80.3898	74.707	80.3117	74.707	80.3387	74.707	80.2532	74.707	80.286	74.707	80.1952	74.707	80.2334	74.707	80.1398	74.707	80.1828	74.707	80.0891	74.707	80.1352	74.707	80.0446	74.707	80.0918	74.707	80.0073	74.707	80.0531	74.707	79.978	74.707	80.0194	74.707	79.957	74.707	79.9912	74.707	79.9443	74.707	79.9687	74.707	79.9395	74.707	79.9523	74.707	79.9424
77.6367	80.6705	77.6367	80.6645	77.6367	80.6658	77.6367	80.648	77.6367	80.6508	77.6367	80.6215	77.6367	80.6261	77.6367	80.5861	77.6367	80.5931	77.6367	80.5435	77.6367	80.5534	77.6367	80.4954	77.6367	80.5088	77.6367	80.444	77.6367	80.4614	77.6367	80.3915	77.6367	80.4132	77.6367	80.3403	77.6367	80.3662	77.6367	80.2924	77.6367	80.3221	77.6367	80.2496	77.6367	80.282	77.6367	80.2132	77.6367	80.2469	77.6367	80.1841	77.6367	80.2171	77.6367	80.1624	77.6367	80.1926	77.6367	80.1479	77.6367	80.1729	77.6367	80.1398	77.6367	80.1577	77.6367	80.1374	77.6367	80.1467	77.6367	80.1399
79.1016	80.6576	79.1016	80.6518	79.1016	80.6526	79.1016	80.6354	79.1016	80.637	79.1016	80.6091	79.1016	80.6118	79.1016	80.5741	79.1016	80.5782	79.1016	80.5319	79.1016	80.5379	79.1016	80.4846	79.1016	80.4929	79.1016	80.4343	79.1016	80.4453	79.1016	80.3834	79.1016	80.3975	79.1016	80.3342	79.1016	80.3514	79.1016	80.2887	79.1016	80.3088	79.1016	80.2486	79.1016	80.271	79.1016	80.2151	79.1016	80.2387	79.1016	80.1888	79.1016	80.2122	79.1016	80.1697	79.1016	80.1912	79.1016	80.1572	79.1016	80.1752	79.1016	80.1504	79.1016	80.1633	79.1016	80.1483	79.1016	80.1551	79.1016	80.15
82.0313	80.6622	82.0313	80.655	82.0313	80.6571	82.0313	80.6359	82.0313	80.64	82.0313	80.6056	82.0313	80.6118	82.0313	80.5655	82.0313	80.5738	82.0313	80.5174	82.0313	80.5276	82.0313	80.4636	82.0313	80.4756	82.0313	80.4064	82.0313	80.42	82.0313	80.3485	82.0313	80.3634	82.0313	80.2922	82.0313	80.3081	82.0313	80.2399	82.0313	80.2563	82.0313	80.1934	82.0313	80.2098	82.0313	80.154	82.0313	80.1696	82.0313	80.1222	82.0313	80.1364	82.0313	80.098	82.0313	80.1102	82.0313	80.081	82.0313	80.0905	82.0313	80.0702	82.0313	80.0768	82.0313	80.0649	82.0313	80.0682	82.0313	80.0643
84.9609	80.6343	84.9609	80.6258	84.9609	80.6306	84.9609	80.6057	84.9609	80.615	84.9609	80.5746	84.9609	80.5882	84.9609	80.5339	84.9609	80.5513	84.9609	80.4853	84.9609	80.5059	84.9609	80.431	84.9609	80.454	84.9609	80.3733	84.9609	80.3979	84.9609	80.3146	84.9609	80.3398	84.9609	80.2573	84.9609	80.2822	84.9609	80.2035	84.9609	80.2271	84.9609	80.1551	84.9609	80.1766	84.9609	80.1133	84.9609	80.1319	84.9609	80.0788	84.9609	80.0939	84.9609	80.0516	84.9609	80.0632	84.9609	80.0316	84.9609	80.0398	84.9609	80.0182	84.9609	80.0233	84.9609	80.0108	84.9609	80.0132	84.9609	80.0091
87.8906	80.5293	87.8906	80.5195	87.8906	80.5283	87.8906	80.4991	87.8906	80.5167	87.8906	80.469	87.8906	80.4951	87.8906	80.4307	87.8906	80.4649	87.8906	80.3861	87.8906	80.4277	87.8906	80.3373	87.8906	80.3856	87.8906	80.2867	87.8906	80.3406	87.8906	80.2369	87.8906	80.2949	87.8906	80.1901	87.8906	80.2506	87.8906	80.1483	87.8906	80.2094	87.8906	80.1131	87.8906	80.1724	87.8906	80.0851	87.8906	80.1406	87.8906	80.0645	87.8906	80.1139	87.8906	80.0509	87.8906	80.0924	87.8906	80.0432	87.8906	80.0754	87.8906	80.0405	87.8906	80.0624	87.8906	80.0416	87.8906	80.0527	87.8906	80.0458
90.8203	80.4204	90.8203	80.4048	90.8203	80.4274	90.8203	80.381	90.8203	80.4257	90.8203	80.35	90.8203	80.4159	90.8203	80.3135	90.8203	80.399	90.8203	80.2735	90.8203	80.3762	90.8203	80.2321	90.8203	80.3492	90.8203	80.1917	90.8203	80.3197	90.8203	80.1545	90.8203	80.2894	90.8203	80.1224	90.8203	80.2597	90.8203	80.0969	90.8203	80.2321	90.8203	80.0787	90.8203	80.2073	90.8203	80.0679	90.8203	80.1857	90.8203	80.0639	90.8203	80.1672	90.8203	80.0656	90.8203	80.1515	90.8203	80.0717	90.8203	80.1378	90.8203	80.0805	90.8203	80.1254	90.8203	80.091	90.8203	80.1137	90.8203	80.1022
95.2148	80.5933	95.2148	80.5845	95.2148	80.5833	95.2148	80.5572	95.2148	80.5551	95.2148	80.5127	95.2148	80.5106	95.2148	80.4532	95.2148	80.4521	95.2148	80.3819	95.2148	80.383	95.2148	80.3027	95.2148	80.3074	95.2148	80.22	95.2148	80.2294	95.2148	80.1386	95.2148	80.1533	95.2148	80.0629	95.2148	80.0831	95.2148	79.997	95.2148	80.022	95.2148	79.9435	95.2148	79.972	95.2148	79.9039	95.2148	79.9341	95.2148	79.8779	95.2148	79.9075	95.2148	79.8639	95.2148	79.8905	95.2148	79.859	95.2148	79.8808	95.2148	79.86	95.2148	79.8753	95.2148	79.8636	95.2148	79.8715	95.2148	79.8678
98.1445	80.6766	98.1445	80.6776	98.1445	80.6599	98.1445	80.6631	98.1445	80.628	98.1445	80.6341	98.1445	80.5817	98.1445	80.5917	98.1445	80.5226	98.1445	80.538	98.1445	80.4531	98.1445	80.4752	98.1445	80.3758	98.1445	80.4062	98.1445	80.294	98.1445	80.334	98.1445	80.2113	98.1445	80.2617	98.1445	80.1314	98.1445	80.1921	98.1445	80.0578	98.1445	80.1278	98.1445	79.9936	98.1445	80.0704	98.1445	79.9411	98.1445	80.0209	98.1445	79.9016	98.1445	79.9792	98.1445	79.8753	98.1445	79.9447	98.1445	79.8613	98.1445	79.9164	98.1445	79.8579	98.1445	79.8935	98.1445	79.8633	98.1445	79.8756
101.074	80.4071	101.074	80.3955	101.074	80.405	101.074	80.3704	101.074	80.3898	101.074	80.3328	101.074	80.3627	101.074	80.2843	101.074	80.3253	101.074	80.2272	101.074	80.2798	101.074	80.1643	101.074	80.2287	101.074	80.0988	101.074	80.1744	101.074	80.0339	101.074	80.1193	101.074	79.9729	101.074	80.0657	101.074	79.9183	101.074	80.0153	101.074	79.8724	101.074	79.9694	101.074	79.8363	101.074	79.9289	101.074	79.8103	101.074	79.8943	101.074	79.7938	101.074	79.8654	101.074	79.7856	101.074	79.8417	101.074	79.7842	101.074	79.8226	101.074	79.788	101.074	79.8075	101.074	79.796
105.469	80.6278	105.469	80.624	105.469	80.6159	105.469	80.6044	105.469	80.589	105.469	80.5699	105.469	80.5487	105.469	80.522	105.469	80.4973	105.469	80.4632	105.469	80.4374	105.469	80.3964	105.469	80.3725	105.469	80.325	105.469	80.306	105.469	80.2528	105.469	80.2412	105.469	80.1835	105.469	80.1812	105.469	80.1207	105.469	80.1285	105.469	80.0671	105.469	80.0846	105.469	80.0247	105.469	80.05	105.469	79.9941	105.469	80.0244	105.469	79.9748	105.469	80.0062	105.469	79.9653	105.469	79.9936	105.469	79.963	105.469	79.9844	105.469	79.9656	105.469	79.9771	105.469	79.9707
108.398	80.6402	108.398	80.6365	108.398	80.6276	108.398	80.6164	108.398	80.5994	108.398	80.5809	108.398	80.5572	108.398	80.5318	108.398	80.5034	108.398	80.4714	108.398	80.441	108.398	80.4029	108.398	80.3733	108.398	80.3298	108.398	80.304	108.398	80.256	108.398	80.2366	108.398	80.1852	108.398	80.1744	108.398	80.1208	108.398	80.1197	108.398	80.0656	108.398	80.0742	108.398	80.0214	108.398	80.0384	108.398	79.9889	108.398	80.0117	108.398	79.9676	108.398	79.9926	108.398	79.9561	108.398	79.9794	108.398	79.952	108.398	79.97	108.398	79.9531	108.398	79.9629	108.398	79.9571
112.793	80.6639	112.793	80.6596	112.793	80.6498	112.793	80.6373	112.793	80.618	112.793	80.5982	112.793	80.5704	112.793	80.5446	112.793	80.5094	112.793	80.4794	112.793	80.4389	112.793	80.4064	112.793	80.3627	112.793	80.3295	112.793	80.2854	112.793	80.2531	112.793	80.2112	112.793	80.1811	112.793	80.144	112.793	80.1171	112.793	80.0864	112.793	80.0636	112.793	80.0403	112.793	80.0219	112.793	80.006	112.793	79.9919	112.793	79.9827	112.793	79.9726	112.793	79.9685	112.793	79.9617	112.793	79.961	112.793	79.9568	112.793	79.9576	112.793	79.9554	112.793	79.9562	112.793	79.9555
117.188	80.5453	117.188	80.542	117.188	80.5332	117.188	80.5235	117.188	80.506	117.188	80.4911	117.188	80.4654	117.188	80.4467	117.188	80.4134	117.188	80.3931	117.188	80.3532	117.188	80.3335	117.188	80.2881	117.188	80.2715	117.188	80.222	117.188	80.2107	117.188	80.1583	117.188	80.1542	117.188	80.1002	117.188	80.1045	117.188	80.0497	117.188	80.0629	117.188	80.0081	117.188	80.0296	117.188	79.976	117.188	80.004	117.188	79.9529	117.188	79.9845	117.188	79.9383	117.188	79.9695	117.188	79.9308	117.188	79.9573	117.188	79.9293	117.188	79.9471	117.188	79.9324	117.188	79.9386
120.117	80.5637	120.117	80.5498	120.117	80.5578	120.117	80.5172	120.117	80.5322	120.117	80.4685	120.117	80.4886	120.117	80.4073	120.117	80.4301	120.117	80.3382	120.117	80.3608	120.117	80.2666	120.117	80.2861	120.117	80.1977	120.117	80.2119	120.117	80.1364	120.117	80.1439	120.117	80.0866	120.117	80.0869	120.117	80.0507	120.117	80.0443	120.117	80.0292	120.117	80.0174	120.117	80.0208	120.117	80.0053	120.117	80.0227	120.117	80.0055	120.117	80.0311	120.117	80.0143	120.117	80.042	120.117	80.0275	120.117	80.0518	120.117	80.0411	120.117	80.0575	120.117	80.0519	120.117	80.0577
124.512	80.906	124.512	80.8662	124.512	80.9236	124.512	80.8046	124.512	80.9197	124.512	80.723	124.512	80.8962	124.512	80.6249	124.512	80.8561	124.512	80.5149	124.512	80.8031	124.512	80.3992	124.512	80.7418	124.512	80.2851	124.512	80.6772	124.512	80.1805	124.512	80.6143	124.512	80.0932	124.512	80.5574	124.512	80.0295	124.512	80.5096	124.512	79.9937	124.512	80.4724	124.512	79.9869	124.512	80.4447	124.512	80.0066	124.512	80.4241	124.512	80.0478	124.512	80.4064	124.512	80.1032	124.512	80.3869	124.512	80.1651	124.512	80.3613	124.512	80.2263	124.512	80.3265	124.512	80.2812
128.906	80.8362	128.906	80.8324	128.906	80.8191	128.906	80.8069	128.906	80.7832	128.906	80.7598	128.906	80.7318	128.906	80.6928	128.906	80.6688	128.906	80.6091	128.906	80.5989	128.906	80.5131	128.906	80.5271	128.906	80.4108	128.906	80.4584	128.906	80.3091	128.906	80.3977	128.906	80.2156	128.906	80.3486	128.906	80.1376	128.906	80.3137	128.906	80.0814	128.906	80.2934	128.906	80.0508	128.906	80.2859	128.906	80.0463	128.906	80.2873	128.906	80.0653	128.906	80.292	128.906	80.1018	128.906	80.2939	128.906	80.1481	128.906	80.2875	128.906	80.1959	128.906	80.2692	128.906	80.238
133.301	80.8496	133.301	80.8642	133.301	80.8091	133.301	80.8524	133.301	80.7443	133.301	80.8153	133.301	80.6582	133.301	80.755	133.301	80.5553	133.301	80.6746	133.301	80.441	133.301	80.5785	133.301	80.3218	133.301	80.4718	133.301	80.2046	133.301	80.3605	133.301	80.0959	133.301	80.2508	133.301	80.0017	133.301	80.1485	133.301	79.9261	133.301	80.0589	133.301	79.8709	133.301	79.9855	133.301	79.836	133.301	79.93	133.301	79.8187	133.301	79.8917	133.301	79.8148	133.301	79.868	133.301	79.8192	133.301	79.8547	133.301	79.8271	133.301	79.8473	133.301	79.8352	133.301	79.8417
139.16	80.8976	139.16	80.9036	139.16	80.8648	139.16	80.8836	139.16	80.8056	139.16	80.8395	139.16	80.7216	139.16	80.7739	139.16	80.6161	139.16	80.6905	139.16	80.4936	139.16	80.5937	139.16	80.3601	139.16	80.4883	139.16	80.2228	139.16	80.3796	139.16	80.0898	139.16	80.2728	139.16	79.9688	139.16	80.1728	139.16	79.8666	139.16	80.0832	139.16	79.7878	139.16	80.0065	139.16	79.7343	139.16	79.9435	139.16	79.7048	139.16	79.893	139.16	79.6959	139.16	79.853	139.16	79.7024	139.16	79.8203	139.16	79.719	139.16	79.7919	139.16	79.7411	139.16	79.7658
143.555	80.8558	143.555	80.8377	143.555	80.8483	143.555	80.7952	143.555	80.8151	143.555	80.7309	143.555	80.7575	143.555	80.6485	143.555	80.6782	143.555	80.5528	143.555	80.581	143.555	80.4496	143.555	80.471	143.555	80.3448	143.555	80.3545	143.555	80.2447	143.555	80.2383	143.555	80.1548	143.555	80.1294	143.555	80.0793	143.555	80.0344	143.555	80.0206	143.555	79.9582	143.555	79.9788	143.555	79.9035	143.555	79.9519	143.555	79.8705	143.555	79.9362	143.555	79.857	143.555	79.927	143.555	79.8585	143.555	79.9198	143.555	79.8695	143.555	79.9112	143.555	79.8846	143.555	79.8993
147.949	80.8552	147.949	80.828	147.949	80.8569	147.949	80.7764	147.949	80.8333	147.949	80.7029	147.949	80.7859	147.949	80.6109	147.949	80.7173	147.949	80.5051	147.949	80.6315	147.949	80.3911	147.949	80.5336	147.949	80.2756	147.949	80.4296	147.949	80.1653	147.949	80.3261	147.949	80.0671	147.949	80.2296	147.949	79.9869	147.949	80.1459	147.949	79.9286	147.949	80.0788	147.949	79.8936	147.949	80.03	147.949	79.8802	147.949	79.9987	147.949	79.8843	147.949	79.9815	147.949	79.8998	147.949	79.9737	147.949	79.9202	147.949	79.9697	147.949	79.9399	147.949	79.9647	147.949	79.9552
153.809	80.8265	153.809	80.8217	153.809	80.805	153.809	80.7909	153.809	80.7581	153.809	80.7359	153.809	80.6883	153.809	80.6598	153.809	80.5996	153.809	80.5668	153.809	80.4972	153.809	80.4623	153.809	80.3873	153.809	80.3527	153.809	80.2769	153.809	80.2447	153.809	80.173	153.809	80.1452	153.809	80.0819	153.809	80.0603	153.809	80.0085	153.809	79.9946	153.809	79.9556	153.809	79.9503	153.809	79.9233	153.809	79.9264	153.809	79.9094	153.809	79.9193	153.809	79.9095	153.809	79.9234	153.809	79.9182	153.809	79.9322	153.809	79.9296	153.809	79.9399	153.809	79.9389	153.809	79.9427
159.668	80.9053	159.668	80.8897	159.668	80.8925	159.668	80.8469	159.668	80.8514	159.668	80.7793	159.668	80.7836	159.668	80.6906	159.668	80.6921	159.668	80.5857	159.668	80.5816	159.668	80.4704	159.668	80.4582	159.668	80.3514	159.668	80.3296	159.668	80.236	159.668	80.2041	159.668	80.1311	159.668	80.0906	159.668	80.0431	159.668	79.9967	159.668	79.9764	159.668	79.9279	159.668	79.9333	159.668	79.8862	159.668	79.9125	159.668	79.87	159.668	79.9099	159.668	79.8741	159.668	79.9187	159.668	79.8911	159.668	79.9312	159.668	79.9124	159.668	79.9401	159.668	79.9306	159.668	79.9405
165.527	81.0731	165.527	81.0588	165.527	81.0568	165.527	81.0147	165.527	81.011	165.527	80.943	165.527	80.9382	165.527	80.8477	165.527	80.8426	165.527	80.7342	165.527	80.7299	165.527	80.6094	165.527	80.6071	165.527	80.4811	165.527	80.4821	165.527	80.3579	165.527	80.3633	165.527	80.2481	165.527	80.2586	165.527	80.1588	165.527	80.1749	165.527	80.0948	165.527	80.1162	165.527	80.0582	165.527	80.0835	165.527	80.0472	165.527	80.0744	165.527	80.0566	165.527	80.0829	165.527	80.0787	165.527	80.1013	165.527	80.1045	165.527	80.121	165.527	80.1257	165.527	80.1344	165.527	80.1364
171.387	81.1981	171.387	81.1932	171.387	81.1685	171.387	81.1539	171.387	81.1061	171.387	81.0819	171.387	81.0138	171.387	80.9802	171.387	80.8962	171.387	80.8538	171.387	80.7597	171.387	80.7091	171.387	80.6119	171.387	80.5546	171.387	80.4619	171.387	80.3999	171.387	80.3191	171.387	80.2554	171.387	80.1927	171.387	80.131	171.387	80.0903	171.387	80.0346	171.387	80.0169	171.387	79.9703	171.387	79.9736	171.387	79.9381	171.387	79.9572	171.387	79.9331	171.387	79.9612	171.387	79.9469	171.387	79.9764	171.387	79.9694	171.387	79.9934	171.387	79.9907	171.387	80.004	171.387	80.0034
177.246	81.1029	177.246	81.0969	177.246	81.0759	177.246	81.0585	177.246	81.0167	177.246	80.9902	177.246	80.9279	177.246	80.8959	177.246	80.8137	177.246	80.7811	177.246	80.6798	177.246	80.6523	177.246	80.5335	177.246	80.5164	177.246	80.3831	177.246	80.3806	177.246	80.2374	177.246	80.2517	177.246	80.1051	177.246	80.1357	177.246	79.9936	177.246	80.0373	177.246	79.9077	177.246	79.9594	177.246	79.8492	177.246	79.9029	177.246	79.8164	177.246	79.8665	177.246	79.8043	177.246	79.8465	177.246	79.8061	177.246	79.8376	177.246	79.8145	177.246	79.8338	177.246	79.8237	177.246	79.8301
183.105	80.9179	183.105	80.9121	183.105	80.8885	183.105	80.8711	183.105	80.8257	183.105	80.7973	183.105	80.7331	183.105	80.6951	183.105	80.6163	183.105	80.5712	183.105	80.4822	183.105	80.4341	183.105	80.3393	183.105	80.2937	183.105	80.1971	183.105	80.1604	183.105	80.065	183.105	80.0436	183.105	79.952	183.105	79.9508	183.105	79.8645	183.105	79.8858	183.105	79.8062	183.105	79.8487	183.105	79.7769	183.105	79.8356	183.105	79.7727	183.105	79.8397	183.105	79.7871	183.105	79.853	183.105	79.8119	183.105	79.8671	183.105	79.839	183.105	79.8756	183.105	79.8613	183.105	79.8741
188.965	80.968	188.965	80.9591	188.965	80.9384	188.965	80.912	188.965	80.8722	188.965	80.8289	188.965	80.7727	188.965	80.7141	188.965	80.6454	188.965	80.574	188.965	80.4979	188.965	80.4177	188.965	80.3396	188.965	80.2563	188.965	80.1818	188.965	80.1021	188.965	80.0365	188.965	79.9676	188.965	79.915	188.965	79.8628	188.965	79.8257	188.965	79.7942	188.965	79.773	188.965	79.7629	188.965	79.7558	188.965	79.7645	188.965	79.7679	188.965	79.7903	188.965	79.7994	188.965	79.8287	188.965	79.8392	188.965	79.8676	188.965	79.8762	188.965	79.8966	188.965	79.9013	188.965	79.9087
196.289	81.1822	196.289	81.1769	196.289	81.1489	196.289	81.1341	196.289	81.0777	196.289	81.0561	196.289	80.9707	196.289	80.9465	196.289	80.8318	196.289	80.8102	196.289	80.6674	196.289	80.6537	196.289	80.4857	196.289	80.4849	196.289	80.2979	196.289	80.3138	196.289	80.1168	196.289	80.1518	196.289	79.9565	196.289	80.0106	196.289	79.8297	196.289	79.9	196.289	79.7448	196.289	79.8253	196.289	79.7036	196.289	79.7863	196.289	79.7005	196.289	79.777	196.289	79.7238	196.289	79.7873	196.289	79.7593	196.289	79.8058	196.289	79.794	196.289	79.8219	196.289	79.8183	196.289	79.8275
203.613	81.0977	203.613	81.0857	203.613	81.0712	203.613	81.0368	203.613	81.0065	203.613	80.9539	203.613	80.9057	203.613	80.8417	203.613	80.7731	203.613	80.7055	203.613	80.6149	203.613	80.5519	203.613	80.4392	203.613	80.3882	203.613	80.2559	203.613	80.2225	203.613	80.0766	203.613	80.0639	203.613	79.9132	203.613	79.9222	203.613	79.7773	203.613	79.8066	203.613	79.6775	203.613	79.7242	203.613	79.618	203.613	79.6774	203.613	79.5969	203.613	79.6629	203.613	79.6065	203.613	79.6713	203.613	79.6349	203.613	79.6898	203.613	79.6687	203.613	79.7056	203.613	79.696	203.613	79.7091
210.938	81.0951	210.938	81.0831	210.938	81.0668	210.938	81.0311	210.938	80.9997	210.938	80.9414	210.938	80.8968	210.938	80.818	210.938	80.7632	210.938	80.6671	210.938	80.6058	210.938	80.4966	210.938	80.4333	210.938	80.3162	210.938	80.2562	210.938	80.1366	210.938	80.0865	210.938	79.9692	210.938	79.9364	210.938	79.825	210.938	79.8171	210.938	79.7133	210.938	79.7359	210.938	79.6402	210.938	79.6947	210.938	79.6072	210.938	79.6884	210.938	79.6097	210.938	79.7059	210.938	79.6382	210.938	79.7328	210.938	79.6799	210.938	79.7554	210.938	79.7214	210.938	79.7632	210.938	79.7514
218.262	81.1149	218.262	81.1018	218.262	81.0873	218.262	81.0503	218.262	81.0191	218.262	80.9645	218.262	80.9126	218.262	80.85	218.262	80.7728	218.262	80.7134	218.262	80.6075	218.262	80.5621	218.262	80.4262	218.262	80.404	218.262	80.2403	218.262	80.2471	218.262	80.0616	218.262	80.0995	218.262	79.9019	218.262	79.9693	218.262	79.7715	218.262	79.8638	218.262	79.6781	218.262	79.7882	218.262	79.6247	218.262	79.7441	218.262	79.6092	218.262	79.7278	218.262	79.6237	218.262	79.7308	218.262	79.6565	218.262	79.7418	218.262	79.6945	218.262	79.7495	218.262	79.7266	218.262	79.7456
225.586	81.1249	225.586	81.1178	225.586	81.0911	225.586	81.0717	225.586	81.0165	225.586	80.9906	225.586	80.9036	225.586	80.8804	225.586	80.7569	225.586	80.7483	225.586	80.5833	225.586	80.6022	225.586	80.392	225.586	80.4503	225.586	80.1947	225.586	80.3	225.586	80.0049	225.586	80.1585	225.586	79.8375	225.586	80.0323	225.586	79.7062	225.586	79.9279	225.586	79.6208	225.586	79.8508	225.586	79.5843	225.586	79.8038	225.586	79.5915	225.586	79.7849	225.586	79.63	225.586	79.787	225.586	79.684	225.586	79.7987	225.586	79.7378	225.586	79.8075	225.586	79.7797	225.586	79.803
232.91	81.1385	232.91	81.1191	232.91	81.1111	232.91	81.0558	232.91	81.0372	232.91	80.954	232.91	80.9199	232.91	80.8215	232.91	80.7649	232.91	80.6681	232.91	80.5804	232.91	80.5047	232.91	80.3763	232.91	80.3417	232.91	80.1641	232.91	80.1883	232.91	79.9567	232.91	80.0513	232.91	79.7675	232.91	79.9351	232.91	79.61	232.91	79.8428	232.91	79.4959	232.91	79.7762	232.91	79.4322	232.91	79.7351	232.91	79.4187	232.91	79.7165	232.91	79.4472	232.91	79.7125	232.91	79.5031	232.91	79.712	232.91	79.5696	232.91	79.7031	232.91	79.6313	232.91	79.6772
241.699	81.1318	241.699	81.1077	241.699	81.1057	241.699	81.036	241.699	81.0298	241.699	80.9226	241.699	80.9078	241.699	80.7762	241.699	80.7463	241.699	80.6078	241.699	80.5547	241.699	80.4305	241.699	80.3448	241.699	80.2571	241.699	80.1295	241.699	80.0991	241.699	79.9224	241.699	79.9646	241.699	79.7362	241.699	79.8573	241.699	79.5828	241.699	79.7772	241.699	79.4718	241.699	79.7222	241.699	79.4091	241.699	79.6891	241.699	79.3945	241.699	79.6736	241.699	79.4206	241.699	79.6696	241.699	79.4737	241.699	79.6686	241.699	79.537	241.699	79.6606	241.699	79.595	241.699	79.6373
250.488	81.0911	250.488	81.058	250.488	81.0686	250.488	80.9712	250.488	80.9919	250.488	80.8359	250.488	80.8662	250.488	80.6609	250.488	80.7003	250.488	80.4587	250.488	80.5069	250.488	80.245	250.488	80.3016	250.488	80.0381	250.488	80.1014	250.488	79.8562	250.488	79.922	250.488	79.7136	250.488	79.7751	250.488	79.6177	250.488	79.667	250.488	79.5675	250.488	79.5981	250.488	79.555	250.488	79.5652	250.488	79.5694	250.488	79.5624	250.488	79.5997	250.488	79.582	250.488	79.6357	250.488	79.6149	250.488	79.6682	250.488	79.6508	250.488	79.6894	250.488	79.6796	250.488	79.6936
259.277	81.2426	259.277	81.2121	259.277	81.22	259.277	81.1306	259.277	81.1446	259.277	81.0025	259.277	81.0196	259.277	80.8356	259.277	80.8512	259.277	80.6406	259.277	80.65	259.277	80.4311	259.277	80.431	259.277	80.2225	259.277	80.2126	259.277	80.0292	259.277	80.0146	259.277	79.8631	259.277	79.8544	259.277	79.7319	259.277	79.7439	259.277	79.6396	259.277	79.6866	259.277	79.5866	259.277	79.6765	259.277	79.5706	259.277	79.7009	259.277	79.5871	259.277	79.7426	259.277	79.6286	259.277	79.784	259.277	79.6846	259.277	79.8104	259.277	79.7422	259.277	79.8126	259.277	79.7883
268.066	80.883	268.066	80.854	268.066	80.8597	268.066	80.777	268.066	80.782	268.066	80.6585	268.066	80.6504	268.066	80.5083	268.066	80.4693	268.066	80.3396	268.066	80.2484	268.066	80.1687	268.066	80.0047	268.066	80.013	268.066	79.7633	268.066	79.8879	268.066	79.5545	268.066	79.8038	268.066	79.4076	268.066	79.7638	268.066	79.3404	268.066	79.7632	268.066	79.3528	268.066	79.7909	268.066	79.4275	268.066	79.8329	268.066	79.5374	268.066	79.8761	268.066	79.656	268.066	79.9113	268.066	79.7629	268.066	79.9338	268.066	79.8462	268.066	79.9417	268.066	79.9022	268.066	79.9325
276.855	80.7543	276.855	80.7331	276.855	80.72	276.855	80.6517	276.855	80.6363	276.855	80.5085	276.855	80.5087	276.855	80.3083	276.855	80.3414	276.855	80.0636	276.855	80.1384	276.855	79.7972	276.855	79.9059	276.855	79.5416	276.855	79.656	276.855	79.3342	276.855	79.4099	276.855	79.2067	276.855	79.1989	276.855	79.1729	276.855	79.0588	276.855	79.2238	276.855	79.0167	276.855	79.3338	276.855	79.0756	276.855	79.4715	276.855	79.2108	276.855	79.6089	276.855	79.3815	276.855	79.7245	276.855	79.5486	276.855	79.8045	276.855	79.6861	276.855	79.8419	276.855	79.7825	276.855	79.8346
287.109	81.0351	287.109	81.0476	287.109	80.9438	287.109	80.979	287.109	80.7826	287.109	80.8336	287.109	80.5657	287.109	80.6231	287.109	80.3115	287.109	80.3657	287.109	80.0408	287.109	80.0849	287.109	79.7749	287.109	79.8079	287.109	79.5346	287.109	79.5626	287.109	79.3384	287.109	79.3748	287.109	79.2023	287.109	79.2642	287.109	79.1376	287.109	79.2395	287.109	79.149	287.109	79.2952	287.109	79.2308	287.109	79.4114	287.109	79.3662	287.109	79.56	287.109	79.529	287.109	79.7108	287.109	79.6906	287.109	79.8378	287.109	79.8257	287.109	79.921	287.109	79.9153	287.109	79.9483
297.363	81.0466	297.363	81.0078	297.363	81.0008	297.363	80.8924	297.363	80.867	297.363	80.711	297.363	80.6483	297.363	80.475	297.363	80.3555	297.363	80.1976	297.363	80.0058	297.363	79.896	297.363	79.6217	297.363	79.5933	297.363	79.2301	297.363	79.3188	297.363	78.8628	297.363	79.1037	297.363	78.5568	297.363	78.9731	297.363	78.3502	297.363	78.9378	297.363	78.2727	297.363	78.9907	297.363	78.3308	297.363	79.1079	297.363	78.5022	297.363	79.2558	297.363	78.7423	297.363	79.3983	297.363	79.0006	297.363	79.5038	297.363	79.2342	297.363	79.5488	297.363	79.4129	297.363	79.5198
307.617	81.1325	307.617	81.0587	307.617	81.1264	307.617	80.9109	307.617	81.0363	307.617	80.6968	307.617	80.8615	307.617	80.4268	307.617	80.6076	307.617	80.1172	307.617	80.288	307.617	79.7925	307.617	79.9234	307.617	79.486	307.617	79.5411	307.617	79.2346	307.617	79.1721	307.617	79.068	307.617	78.8498	307.617	78.9983	307.617	78.609	307.617	79.0171	307.617	78.4809	307.617	79.1021	307.617	78.4832	307.617	79.2277	307.617	78.6088	307.617	79.3689	307.617	78.8241	307.617	79.5019	307.617	79.078	307.617	79.6022	307.617	79.319	307.617	79.6469	307.617	79.5065	307.617	79.6178
319.336	81.0093	319.336	80.9672	319.336	80.979	319.336	80.8538	319.336	80.8738	319.336	80.6692	319.336	80.6915	319.336	80.4129	319.336	80.4337	319.336	80.0872	319.336	80.1107	319.336	79.7015	319.336	79.745	319.336	79.2799	319.336	79.3714	319.336	78.8685	319.336	79.0307	319.336	78.5325	319.336	78.759	319.336	78.336	319.336	78.5802	319.336	78.3093	319.336	78.5053	319.336	78.4319	319.336	78.5356	319.336	78.6491	319.336	78.6613	319.336	78.9023	319.336	78.8569	319.336	79.1449	319.336	79.0816	319.336	79.3417	319.336	79.2888	319.336	79.466	319.336	79.4372	319.336	79.4998
329.59	81.0694	329.59	81.0408	329.59	81.0252	329.59	80.9379	329.59	80.9086	329.59	80.7607	329.59	80.7183	329.59	80.5125	329.59	80.452	329.59	80.2008	329.59	80.1104	329.59	79.838	329.59	79.7036	329.59	79.4422	329.59	79.2596	329.59	79.0398	329.59	78.8268	329.59	78.6692	329.59	78.4661	329.59	78.3794	329.59	78.2289	329.59	78.2157	329.59	78.1349	329.59	78.196	329.59	78.1672	329.59	78.2966	329.59	78.2883	329.59	78.4654	329.59	78.4568	329.59	78.647	329.59	78.6348	329.59	78.8004	329.59	78.7893	329.59	78.9001	329.59	78.8941	329.59	78.9329
341.309	81.1561	341.309	81.1078	341.309	81.1215	341.309	80.9771	341.309	81.0068	341.309	80.768	341.309	80.8162	341.309	80.4884	341.309	80.5543	341.309	80.1514	341.309	80.2257	341.309	79.7766	341.309	79.837	341.309	79.3908	341.309	79.4042	341.309	79.0274	341.309	78.9617	341.309	78.7223	341.309	78.5659	341.309	78.5068	341.309	78.2835	341.309	78.4004	341.309	78.1613	341.309	78.4059	341.309	78.2003	341.309	78.5074	341.309	78.3568	341.309	78.6724	341.309	78.5704	341.309	78.8576	341.309	78.7881	341.309	79.0196	341.309	78.9728	341.309	79.1245	341.309	79.0997	341.309	79.1527
353.027	81.0956	353.027	80.9996	353.027	81.091	353.027	80.807	353.027	80.9844	353.027	80.5251	353.027	80.7781	353.027	80.1646	353.027	80.4781	353.027	79.7419	353.027	80.095	353.027	79.2819	353.027	79.6446	353.027	78.8209	353.027	79.151	353.027	78.4062	353.027	78.6506	353.027	78.0893	353.027	78.1953	353.027	77.91	353.027	77.8482	353.027	77.8787	353.027	77.6637	353.027	77.9715	353.027	77.6604	353.027	78.1439	353.027	77.8091	353.027	78.3493	353.027	78.0482	353.027	78.5477	353.027	78.3113	353.027	78.7059	353.027	78.5458	353.027	78.7969	353.027	78.7163	353.027	78.8024
366.211	81.4326	366.211	81.327	366.211	81.4338	366.211	81.1169	366.211	81.3333	366.211	80.8049	366.211	81.1355	366.211	80.3969	366.211	80.8459	366.211	79.9019	366.211	80.4706	366.211	79.3341	366.211	80.0176	366.211	78.718	366.211	79.5007	366.211	78.0987	366.211	78.9469	366.211	77.5517	366.211	78.4061	366.211	77.174	366.211	77.9537	366.211	77.0416	366.211	77.674	366.211	77.1552	366.211	77.6164	366.211	77.4366	366.211	77.7586	366.211	77.7817	366.211	78.0164	366.211	78.1099	366.211	78.2914	366.211	78.3759	366.211	78.5095	366.211	78.5589	366.211	78.6319	366.211	78.6472
379.395	81.7774	379.395	81.7765	379.395	81.6942	379.395	81.6876	379.395	81.5284	379.395	81.5045	379.395	81.2803	379.395	81.2226	379.395	80.9519	379.395	80.8434	379.395	80.5502	379.395	80.3795	379.395	80.0896	379.395	79.8585	379.395	79.5922	379.395	79.3234	379.395	79.0885	379.395	78.8295	379.395	78.6191	379.395	78.4364	379.395	78.2349	379.395	78.1974	379.395	77.99	379.395	78.1423	379.395	77.9217	379.395	78.2604	379.395	78.0273	379.395	78.4962	379.395	78.2595	379.395	78.7675	379.395	78.5473	379.395	78.996	379.395	78.8219	379.395	79.128	379.395	79.0309	379.395	79.1394
392.578	81.4687	392.578	81.4093	392.578	81.4505	392.578	81.2705	392.578	81.3516	392.578	81.0481	392.578	81.1652	392.578	80.7381	392.578	80.8843	392.578	80.3421	392.578	80.5061	392.578	79.8714	392.578	80.0377	392.578	79.3515	392.578	79.501	392.578	78.8266	392.578	78.9363	392.578	78.3585	392.578	78.4019	392.578	78.0162	392.578	77.9684	392.578	77.8524	392.578	77.7028	392.578	77.8794	392.578	77.6434	392.578	78.0623	392.578	77.7784	392.578	78.3342	392.578	78.0474	392.578	78.6193	392.578	78.3687	392.578	78.852	392.578	78.6674	392.578	78.9867	392.578	78.8888	392.578	79.0001
405.762	81.187	405.762	81.1267	405.762	81.1653	405.762	80.9816	405.762	81.064	405.762	80.7486	405.762	80.8842	405.762	80.424	405.762	80.625	405.762	80.0045	405.762	80.2863	405.762	79.4932	405.762	79.8728	405.762	78.9115	405.762	79.4005	405.762	78.3123	405.762	78.8999	405.762	77.7839	405.762	78.4163	405.762	77.4247	405.762	78.0066	405.762	77.2912	405.762	77.7304	405.762	77.3666	405.762	77.6312	405.762	77.5843	405.762	77.7111	405.762	77.8703	405.762	77.922	405.762	78.1629	405.762	78.1857	405.762	78.4123	405.762	78.4256	405.762	78.58	405.762	78.5871	405.762	78.6413
420.41	81.4057	420.41	81.3109	420.41	81.3848	420.41	81.1014	420.41	81.2511	420.41	80.7826	420.41	81.0102	420.41	80.3622	420.41	80.6695	420.41	79.8476	420.41	80.2391	420.41	79.2454	420.41	79.7344	420.41	78.5698	420.41	79.1798	420.41	77.8616	420.41	78.61	420.41	77.2119	420.41	78.069	420.41	76.7556	420.41	77.6067	420.41	76.6023	420.41	77.2777	420.41	76.7466	420.41	77.1331	420.41	77.073	420.41	77.1927	420.41	77.4479	420.41	77.4158	420.41	77.7827	420.41	77.7103	420.41	78.0352	420.41	77.9802	420.41	78.1882	420.41	78.1628	420.41	78.2328
435.059	81.2513	435.059	81.2493	435.059	81.1581	435.059	81.147	435.059	80.9733	435.059	80.9358	435.059	80.7033	435.059	80.6026	435.059	80.3578	435.059	80.1328	435.059	79.9489	435.059	79.5168	435.059	79.4899	435.059	78.7615	435.059	79.0007	435.059	77.9108	435.059	78.5172	435.059	77.0743	435.059	78.0965	435.059	76.437	435.059	77.8018	435.059	76.1867	435.059	77.6688	435.059	76.3662	435.059	77.6863	435.059	76.8368	435.059	77.8148	435.059	77.4074	435.059	78.0144	435.059	77.9388	435.059	78.2494	435.059	78.3533	435.059	78.4779	435.059	78.6123	435.059	78.6475	435.059	78.7052
451.172	81.4429	451.172	81.5071	451.172	81.2682	451.172	81.4571	451.172	80.9838	451.172	81.2873	451.172	80.5882	451.172	80.9888	451.172	80.0783	451.172	80.5493	451.172	79.4541	451.172	79.9547	451.172	78.7289	451.172	79.1998	451.172	77.944	451.172	78.308	451.172	77.1854	451.172	77.365	451.172	76.5827	451.172	76.5452	451.172	76.2663	451.172	76.0715	451.172	76.293	451.172	76.0649	451.172	76.6121	451.172	76.4373	451.172	77.1051	451.172	76.9897	451.172	77.6432	451.172	77.5566	451.172	78.1196	451.172	78.0432	451.172	78.4595	451.172	78.4007	451.172	78.6233	451.172	78.6006
465.82	81.4255	465.82	81.4119	465.82	81.3257	465.82	81.2893	465.82	81.1065	465.82	81.0629	465.82	80.7591	465.82	80.7417	465.82	80.2766	465.82	80.3346	465.82	79.6606	465.82	79.8446	465.82	78.9239	465.82	79.265	465.82	78.0898	465.82	78.5852	465.82	77.1972	465.82	77.8112	465.82	76.3252	465.82	76.9986	465.82	75.6267	465.82	76.2861	465.82	75.2965	465.82	75.8768	465.82	75.4179	465.82	75.9022	465.82	75.8651	465.82	76.2835	465.82	76.4263	465.82	76.8023	465.82	76.9483	465.82	77.2671	465.82	77.3551	465.82	77.5746	465.82	77.61	465.82	77.6888
483.398	81.1864	483.398	81.1265	483.398	81.173	483.398	80.9959	483.398	81.0736	483.398	80.7865	483.398	80.8671	483.398	80.4802	483.398	80.525	483.398	80.0538	483.398	80.0145	483.398	79.4858	483.398	79.3077	483.398	78.7684	483.398	78.3999	483.398	77.9295	483.398	77.3369	483.398	77.0629	483.398	76.2428	483.398	76.3442	483.398	75.3231	483.398	75.964	483.398	74.8021	483.398	75.9797	483.398	74.8034	483.398	76.2725	483.398	75.2669	483.398	76.6775	483.398	75.9873	483.398	77.0891	483.398	76.7318	483.398	77.4512	483.398	77.3305	483.398	77.7136	483.398	77.6973	483.398	77.8148
499.512	81.1826	499.512	81.1081	499.512	81.1719	499.512	80.9599	499.512	81.0633	499.512	80.741	499.512	80.8472	499.512	80.4398	499.512	80.5157	499.512	80.0305	499.512	80.0558	499.512	79.4807	499.512	79.4465	499.512	78.7653	499.512	78.6623	499.512	77.8865	499.512	77.6909	499.512	76.9039	499.512	76.5667	499.512	75.9684	499.512	75.4274	499.512	75.3202	499.512	74.5554	499.512	75.1678	499.512	74.2596	499.512	75.4989	499.512	74.5755	499.512	76.0817	499.512	75.2305	499.512	76.6573	499.512	75.9347	499.512	77.0651	499.512	76.5306	499.512	77.2469	499.512	76.9605	499.512	77.205
517.09	81.4393	517.09	81.375	517.09	81.4343	517.09	81.2231	517.09	81.365	517.09	80.9623	517.09	81.2185	517.09	80.5787	517.09	80.9701	517.09	80.0684	517.09	80.5916	517.09	79.4324	517.09	80.0571	517.09	78.6687	517.09	79.3435	517.09	77.7759	517.09	78.4337	517.09	76.7786	517.09	77.3312	517.09	75.7703	517.09	76.103	517.09	74.9412	517.09	74.9508	517.09	74.519	517.09	74.2373	517.09	74.6093	517.09	74.2463	517.09	75.1013	517.09	74.8385	517.09	75.7575	517.09	75.6175	517.09	76.3547	517.09	76.2889	517.09	76.7506	517.09	76.7234	517.09	76.8796
536.133	80.4539	536.133	80.455	536.133	80.382	536.133	80.3877	536.133	80.2451	536.133	80.2596	536.133	80.0518	536.133	80.0719	536.133	79.8057	536.133	79.8085	536.133	79.4992	536.133	79.4344	536.133	79.1108	536.133	78.9052	536.133	78.609	536.133	78.1849	536.133	77.9659	536.133	77.2746	536.133	77.1821	536.133	76.2568	536.133	76.3244	536.133	75.337	536.133	75.5539	536.133	74.7856	536.133	75.0876	536.133	74.7292	536.133	75.0514	536.133	75.048	536.133	75.3685	536.133	75.5346	536.133	75.8392	536.133	76.0275	536.133	76.2757	536.133	76.4108	536.133	76.5515	536.133	76.5999
555.176	80.3379	555.176	80.1963	555.176	80.3757	555.176	79.9743	555.176	80.292	555.176	79.6929	555.176	80.0784	555.176	79.3636	555.176	79.7333	555.176	78.9812	555.176	79.2559	555.176	78.5228	555.176	78.6439	555.176	77.9575	555.176	77.9001	555.176	77.2662	555.176	77.0446	555.176	76.4642	555.176	76.1256	555.176	75.6333	555.176	75.2304	555.176	74.9622	555.176	74.4963	555.176	74.7088	555.176	74.1038	555.176	74.9701	555.176	74.1867	555.176	75.5331	555.176	74.687	555.176	76.0954	555.176	75.3674	555.176	76.4874	555.176	75.9901	555.176	76.6705	555.176	76.428	555.176	76.6515
574.219	80.6128	574.219	80.5739	574.219	80.5642	574.219	80.4333	574.219	80.4325	574.219	80.1694	574.219	80.2137	574.219	79.7623	574.219	79.8936	574.219	79.2022	574.219	79.4445	574.219	78.4886	574.219	78.8251	574.219	77.6176	574.219	77.9892	574.219	76.5791	574.219	76.9076	574.219	75.3948	574.219	75.6116	574.219	74.2126	574.219	74.285	574.219	73.3966	574.219	73.3587	574.219	73.3453	574.219	73.2792	574.219	74.0235	574.219	73.9485	574.219	75.0084	574.219	74.8796	574.219	75.9372	574.219	75.7409	574.219	76.6309	574.219	76.4202	574.219	77.0215	574.219	76.8839	574.219	77.0978
594.727	80.5016	594.727	80.4547	594.727	80.4621	594.727	80.3147	594.727	80.3436	594.727	80.0775	594.727	80.1471	594.727	79.7362	594.727	79.8622	594.727	79.2735	594.727	79.4709	594.727	78.6606	594.727	78.9533	594.727	77.8675	594.727	78.2831	594.727	76.8855	594.727	77.4123	594.727	75.7455	594.727	76.2713	594.727	74.5235	594.727	74.8242	594.727	73.3668	594.727	73.2372	594.727	72.6052	594.727	72.1257	594.727	72.6855	594.727	72.1973	594.727	73.5626	594.727	73.1802	594.727	74.6479	594.727	74.3184	594.727	75.4983	594.727	75.2326	594.727	75.9757	594.727	75.8252	594.727	76.0775
615.234	81.3571	615.234	81.2623	615.234	81.3535	615.234	81.0825	615.234	81.2399	615.234	80.8288	615.234	81.0116	615.234	80.5046	615.234	80.673	615.234	80.0967	615.234	80.2296	615.234	79.5674	615.234	79.6679	615.234	78.8452	615.234	78.9474	615.234	77.8279	615.234	78.0231	615.234	76.4241	615.234	76.8801	615.234	74.6672	615.234	75.5515	615.234	72.9376	615.234	74.15	615.234	72.0279	615.234	73.0095	615.234	72.2913	615.234	72.7254	615.234	73.1801	615.234	73.4365	615.234	74.1774	615.234	74.5008	615.234	75.0523	615.234	75.3655	615.234	75.6701	615.234	75.8526	615.234	75.9485
637.207	81.6298	637.207	81.6294	637.207	81.5843	637.207	81.5672	637.207	81.4979	637.207	81.4232	637.207	81.3615	637.207	81.1786	637.207	81.1509	637.207	80.8176	637.207	80.8312	637.207	80.3227	637.207	80.3649	637.207	79.6673	637.207	79.7169	637.207	78.8043	637.207	78.8567	637.207	77.6609	637.207	77.7718	637.207	76.1802	637.207	76.5009	637.207	74.4772	637.207	75.1867	637.207	73.1264	637.207	74.1188	637.207	72.9395	637.207	73.6702	637.207	73.7852	637.207	73.9998	637.207	74.8907	637.207	74.8329	637.207	75.8236	637.207	75.7279	637.207	76.4262	637.207	76.3734	637.207	76.6198
659.18	81.1387	659.18	81.0868	659.18	81.1379	659.18	80.9891	659.18	81.0763	659.18	80.8425	659.18	80.9509	659.18	80.6369	659.18	80.7629	659.18	80.3596	659.18	80.5091	659.18	79.9828	659.18	80.1685	659.18	79.4459	659.18	79.6865	659.18	78.6693	659.18	78.9704	659.18	77.5987	659.18	77.9143	659.18	76.2453	659.18	76.4688	659.18	74.7487	659.18	74.7951	659.18	73.5651	659.18	73.5019	659.18	73.4465	659.18	73.3574	659.18	74.4068	659.18	74.1902	659.18	75.5961	659.18	75.2492	659.18	76.4679	659.18	76.1293	659.18	76.9171	659.18	76.7172	659.18	76.9862
682.617	81.1406	682.617	81.1087	682.617	81.0784	682.617	80.9872	682.617	80.9467	682.617	80.8088	682.617	80.7712	682.617	80.5972	682.617	80.5565	682.617	80.3329	682.617	80.2841	682.617	79.962	682.617	79.9203	682.617	79.4277	682.617	79.4162	682.617	78.6764	682.617	78.7123	682.617	77.6503	682.617	77.7571	682.617	76.3148	682.617	76.5306	682.617	74.7703	682.617	75.0855	682.617	73.467	682.617	73.7111	682.617	73.1674	682.617	73.1522	682.617	73.9976	682.617	73.8811	682.617	75.2284	682.617	75.1899	682.617	76.2807	682.617	76.3042	682.617	76.9465	682.617	76.9727	682.617	77.1806
707.52	81.1263	707.52	81.0935	707.52	81.1306	707.52	81.0243	707.52	81.0828	707.52	80.8871	707.52	80.9592	707.52	80.6649	707.52	80.7551	707.52	80.3669	707.52	80.471	707.52	79.9949	707.52	80.0896	707.52	79.5085	707.52	79.5713	707.52	78.8197	707.52	78.8626	707.52	77.8008	707.52	77.9006	707.52	76.3125	707.52	76.6219	707.52	74.3337	707.52	75.0316	707.52	72.369	707.52	73.4509	707.52	71.8042	707.52	72.7929	707.52	73.0322	707.52	73.571	707.52	74.7387	707.52	74.9476	707.52	76.1175	707.52	76.1497	707.52	76.9533	707.52	76.9292	707.52	77.2138
732.422	81.0801	732.422	81.0078	732.422	81.0444	732.422	80.8541	732.422	80.8965	732.422	80.6352	732.422	80.6724	732.422	80.3527	732.422	80.4213	732.422	80.0143	732.422	80.1566	732.422	79.625	732.422	79.8397	732.422	79.1416	732.422	79.4028	732.422	78.4629	732.422	78.7625	732.422	77.4789	732.422	77.8166	732.422	76.1092	732.422	76.4749	732.422	74.333	732.422	74.7518	732.422	72.443	732.422	72.9778	732.422	71.6549	732.422	72.0852	732.422	72.8174	732.422	72.7998	732.422	74.6061	732.422	74.3387	732.422	76.0076	732.422	75.7447	732.422	76.8176	732.422	76.6687	732.422	77.0331
757.324	81.3011	757.324	81.1977	757.324	81.2113	757.324	80.948	757.324	80.9499	757.324	80.6347	757.324	80.5881	757.324	80.3134	757.324	80.2011	757.324	79.9845	757.324	79.8324	757.324	79.6179	757.324	79.4687	757.324	79.1707	757.324	79.0339	757.324	78.5605	757.324	78.4196	757.324	77.6474	757.324	77.5219	757.324	76.2747	757.324	76.2514	757.324	74.388	757.324	74.5538	757.324	72.354	757.324	72.6061	757.324	71.45	757.324	71.42	757.324	72.4542	757.324	72.2522	757.324	74.1131	757.324	74.092	757.324	75.4644	757.324	75.6067	757.324	76.3126	757.324	76.4503	757.324	76.6553
785.156	81.3215	785.156	81.3904	785.156	81.2447	785.156	81.3698	785.156	81.1654	785.156	81.1926	785.156	81.01	785.156	80.8679	785.156	80.7207	785.156	80.4568	785.156	80.3229	785.156	80.0015	785.156	79.8798	785.156	79.4742	785.156	79.3853	785.156	78.7761	785.156	78.7237	785.156	77.7638	785.156	77.7233	785.156	76.2709	785.156	76.2259	785.156	74.109	785.156	74.1338	785.156	71.1708	785.156	71.5344	785.156	68.4572	785.156	69.2807	785.156	69.1247	785.156	69.3243	785.156	71.7161	785.156	71.347	785.156	73.7791	785.156	73.4286	785.156	74.9932	785.156	74.8218	785.156	75.3501
811.523	80.2423	811.523	80.1727	811.523	80.2365	811.523	80.0922	811.523	80.1342	811.523	80.022	811.523	79.9865	811.523	79.9302	811.523	79.8393	811.523	79.7851	811.523	79.6701	811.523	79.5558	811.523	79.417	811.523	79.1769	811.523	79.0215	811.523	78.5631	811.523	78.4212	811.523	77.6393	811.523	77.5421	811.523	76.321	811.523	76.3058	811.523	74.5074	811.523	74.6214	811.523	72.2649	811.523	72.4805	811.523	70.4868	811.523	70.5391	811.523	70.7066	811.523	70.4063	811.523	72.2233	811.523	71.8012	811.523	73.6021	811.523	73.204	811.523	74.3981	811.523	74.1422	811.523	74.5605
840.82	80.332	840.82	80.2802	840.82	80.2513	840.82	80.1094	840.82	80.049	840.82	79.8892	840.82	79.774	840.82	79.728	840.82	79.5413	840.82	79.6662	840.82	79.4479	840.82	79.6288	840.82	79.431	840.82	79.5074	840.82	79.3205	840.82	79.2153	840.82	78.9922	840.82	78.638	840.82	78.3528	840.82	77.5796	840.82	77.2425	840.82	75.8007	840.82	75.4524	840.82	73.1762	840.82	72.9129	840.82	70.3898	840.82	70.4395	840.82	70.1291	840.82	70.5183	840.82	72.2304	840.82	72.615	840.82	74.1095	840.82	74.407	840.82	75.2106	840.82	75.3823	840.82	75.6211
870.117	80.1481	870.117	80.0238	870.117	80.0854	870.117	79.7444	870.117	79.8795	870.117	79.4217	870.117	79.5849	870.117	79.1725	870.117	79.2439	870.117	79.0366	870.117	78.9445	870.117	78.9722	870.117	78.7932	870.117	78.8928	870.117	78.7373	870.117	78.6697	870.117	78.5406	870.117	78.1334	870.117	77.9668	870.117	77.1018	870.117	76.8669	870.117	75.3771	870.117	75.1156	870.117	72.7947	870.117	72.6502	870.117	69.9787	870.117	70.2478	870.117	69.8862	870.117	70.2642	870.117	72.2448	870.117	72.1987	870.117	74.3244	870.117	74.0651	870.117	75.5527	870.117	75.3516	870.117	75.8868
900.879	80.6815	900.879	80.5563	900.879	80.5979	900.879	80.2391	900.879	80.2822	900.879	79.7294	900.879	79.776	900.879	79.1002	900.879	79.2143	900.879	78.5666	900.879	78.7526	900.879	78.3248	900.879	78.4706	900.879	78.3037	900.879	78.3619	900.879	78.2484	900.879	78.3206	900.879	77.9184	900.879	78.0949	900.879	77.0834	900.879	77.3549	900.879	75.473	900.879	75.8135	900.879	72.8523	900.879	73.346	900.879	69.7104	900.879	70.4768	900.879	69.3494	900.879	69.8113	900.879	72.0139	900.879	72.2177	900.879	74.413	900.879	74.6782	900.879	75.9135	900.879	76.1238	900.879	76.504
933.105	80.6874	933.105	80.4329	933.105	80.6421	933.105	79.9568	933.105	80.3011	933.105	79.4033	933.105	79.7509	933.105	78.9122	933.105	79.1586	933.105	78.5479	933.105	78.7235	933.105	78.3636	933.105	78.5453	933.105	78.4472	933.105	78.5558	933.105	78.6784	933.105	78.5876	933.105	78.6465	933.105	78.4117	933.105	77.9485	933.105	77.7665	933.105	76.3134	933.105	76.402	933.105	73.4328	933.105	73.9949	933.105	68.8181	933.105	70.1601	933.105	66.193	933.105	67.5516	933.105	70.7445	933.105	70.8844	933.105	74.0151	933.105	73.9234	933.105	75.591	933.105	75.5078	933.105	76.0191
965.332	80.8751	965.332	80.7526	965.332	80.7719	965.332	80.4047	965.332	80.4494	965.332	79.8255	965.332	79.9127	965.332	79.0201	965.332	79.1906	965.332	78.1583	965.332	78.4249	965.332	77.6644	965.332	77.9001	965.332	77.7224	965.332	77.8113	965.332	77.9185	965.332	78.0139	965.332	77.8284	965.332	78.1553	965.332	77.2862	965.332	77.8474	965.332	76.0847	965.332	76.665	965.332	73.7103	965.332	74.1289	965.332	69.2106	965.332	69.8814	965.332	64.0733	965.332	67.1926	965.332	69.0976	965.332	70.7074	965.332	73.1601	965.332	73.8164	965.332	75.2202	965.332	75.4836	965.332	75.9334
1,000.49	81.202	1,000.49	81.0731	1,000.49	81.0455	1,000.49	80.6623	1,000.49	80.6047	1,000.49	79.9639	1,000.49	79.9192	1,000.49	79.0133	1,000.49	79.0352	1,000.49	77.9409	1,000.49	78.0178	1,000.49	77.028	1,000.49	77.1574	1,000.49	76.7312	1,000.49	76.9435	1,000.49	77.1988	1,000.49	77.3575	1,000.49	77.8373	1,000.49	77.8223	1,000.49	77.971	1,000.49	77.8372	1,000.49	77.2372	1,000.49	77.0443	1,000.49	75.3701	1,000.49	75.0932	1,000.49	71.7648	1,000.49	71.5182	1,000.49	64.4701	1,000.49	66.0416	1,000.49	64.4542	1,000.49	66.8217	1,000.49	71.247	1,000.49	71.7599	1,000.49	74.2332	1,000.49	74.4077	1,000.49	75.1668
1,035.64	81.3998	1,035.64	81.2582	1,035.64	81.3453	1,035.64	80.9401	1,035.64	81.0441	1,035.64	80.3963	1,035.64	80.4647	1,035.64	79.5594	1,035.64	79.5864	1,035.64	78.4201	1,035.64	78.3938	1,035.64	77.1202	1,035.64	76.9837	1,035.64	76.0913	1,035.64	75.8326	1,035.64	75.8506	1,035.64	75.6506	1,035.64	76.3483	1,035.64	76.24	1,035.64	76.9879	1,035.64	76.717	1,035.64	77.1235	1,035.64	76.573	1,035.64	76.2037	1,035.64	75.5604	1,035.64	73.7273	1,035.64	73.3017	1,035.64	69.0656	1,035.64	69.2217	1,035.64	63.3679	1,035.64	65.6688	1,035.64	67.4509	1,035.64	69.1694	1,035.64	71.3222	1,035.64	72.0403	1,035.64	72.7244
1,072.27	81.1077	1,072.27	81.0181	1,072.27	80.968	1,072.27	80.7256	1,072.27	80.5717	1,072.27	80.206	1,072.27	79.9396	1,072.27	79.3984	1,072.27	79.133	1,072.27	78.3082	1,072.27	78.1583	1,072.27	77.0828	1,072.27	76.9862	1,072.27	76.0532	1,072.27	75.818	1,072.27	75.6866	1,072.27	75.1454	1,072.27	75.989	1,072.27	75.143	1,072.27	76.3369	1,072.27	75.3492	1,072.27	76.2282	1,072.27	75.1132	1,072.27	75.3904	1,072.27	73.9144	1,072.27	73.4683	1,072.27	71.5323	1,072.27	70.0702	1,072.27	68.3895	1,072.27	66.8544	1,072.27	66.9303	1,072.27	68.3953	1,072.27	68.8694	1,072.27	70.6129	1,072.27	70.8664	1,072.27	71.4672
1,108.89	80.677	1,108.89	80.6108	1,108.89	80.5594	1,108.89	80.355	1,108.89	80.2633	1,108.89	79.9271	1,108.89	79.7307	1,108.89	79.2914	1,108.89	78.9155	1,108.89	78.384	1,108.89	77.8688	1,108.89	77.2742	1,108.89	76.67	1,108.89	76.2048	1,108.89	75.4308	1,108.89	75.4118	1,108.89	74.4498	1,108.89	75.0333	1,108.89	73.9488	1,108.89	75.0426	1,108.89	73.828	1,108.89	74.9934	1,108.89	73.8903	1,108.89	74.3111	1,108.89	73.5726	1,108.89	72.7583	1,108.89	72.0357	1,108.89	70.4544	1,108.89	68.9966	1,108.89	68.2626	1,108.89	67.0323	1,108.89	68.6016	1,108.89	68.7665	1,108.89	70.4434	1,108.89	70.5815	1,108.89	71.2217
1,148.44	80.5999	1,148.44	80.5424	1,148.44	80.4721	1,148.44	80.31	1,148.44	80.122	1,148.44	79.8476	1,148.44	79.5745	1,148.44	79.132	1,148.44	78.8836	1,148.44	78.2331	1,148.44	77.9872	1,148.44	77.2017	1,148.44	76.7844	1,148.44	76.0468	1,148.44	75.4719	1,148.44	74.993	1,148.44	74.3956	1,148.44	74.4195	1,148.44	73.5312	1,148.44	74.1217	1,148.44	72.8491	1,148.44	73.491	1,148.44	72.2727	1,148.44	72.3375	1,148.44	71.1947	1,148.44	70.8345	1,148.44	69.3632	1,148.44	69.3727	1,148.44	67.7426	1,148.44	69.0317	1,148.44	68.0823	1,148.44	70.3866	1,148.44	69.9933	1,148.44	71.8745	1,148.44	71.6617	1,148.44	72.3473
1,189.45	80.4372	1,189.45	80.3441	1,189.45	80.3008	1,189.45	79.9389	1,189.45	79.9728	1,189.45	79.2611	1,189.45	79.378	1,189.45	78.4361	1,189.45	78.4925	1,189.45	77.5133	1,189.45	77.4107	1,189.45	76.4343	1,189.45	76.2079	1,189.45	75.2083	1,189.45	75.0311	1,189.45	74.2342	1,189.45	74.2723	1,189.45	74.0054	1,189.45	73.9438	1,189.45	74.1054	1,189.45	73.5998	1,189.45	73.7446	1,189.45	73.0893	1,189.45	72.5171	1,189.45	72.167	1,189.45	70.2907	1,189.45	70.0855	1,189.45	67.6609	1,189.45	66.5128	1,189.45	67.556	1,189.45	65.6005	1,189.45	70.0497	1,189.45	69.2882	1,189.45	72.0546	1,189.45	71.8863	1,189.45	72.7372
1,230.47	80.833	1,230.47	80.6763	1,230.47	80.7161	1,230.47	80.3104	1,230.47	80.3444	1,230.47	79.7909	1,230.47	79.7347	1,230.47	79.0184	1,230.47	78.9202	1,230.47	77.9147	1,230.47	77.9386	1,230.47	76.6251	1,230.47	76.6995	1,230.47	75.4761	1,230.47	75.2965	1,230.47	74.8568	1,230.47	74.3873	1,230.47	74.6903	1,230.47	74.1684	1,230.47	74.3204	1,230.47	73.9286	1,230.47	73.4112	1,230.47	73.1875	1,230.47	71.9368	1,230.47	71.5406	1,230.47	69.4642	1,230.47	68.5533	1,230.47	65.847	1,230.47	65.4998	1,230.47	66.4554	1,230.47	66.9717	1,230.47	70.0382	1,230.47	70.1005	1,230.47	72.0556	1,230.47	72.0953	1,230.47	72.7048
1,274.41	80.6109	1,274.41	80.4941	1,274.41	80.5573	1,274.41	80.1956	1,274.41	80.284	1,274.41	79.6716	1,274.41	79.717	1,274.41	78.871	1,274.41	78.8502	1,274.41	77.7706	1,274.41	77.7828	1,274.41	76.4598	1,274.41	76.5315	1,274.41	75.0825	1,274.41	75.0335	1,274.41	73.8369	1,274.41	73.754	1,274.41	73.2221	1,274.41	73.3454	1,274.41	73.3526	1,274.41	73.3588	1,274.41	73.4076	1,274.41	73.152	1,274.41	72.6162	1,274.41	72.2435	1,274.41	70.4436	1,274.41	69.8974	1,274.41	66.755	1,274.41	65.5891	1,274.41	66.134	1,274.41	64.5306	1,274.41	69.4436	1,274.41	69.0215	1,274.41	71.6442	1,274.41	71.7593	1,274.41	72.4842
1,319.82	80.6671	1,319.82	80.54	1,319.82	80.5054	1,319.82	80.1485	1,319.82	80.15	1,319.82	79.6263	1,319.82	79.7082	1,319.82	79.0183	1,319.82	79.0826	1,319.82	78.1211	1,319.82	78.1387	1,319.82	76.8111	1,319.82	76.9521	1,319.82	75.2047	1,319.82	75.55	1,319.82	73.527	1,319.82	74.076	1,319.82	72.6442	1,319.82	73.4083	1,319.82	73.02	1,319.82	73.6414	1,319.82	73.2573	1,319.82	73.6007	1,319.82	72.3561	1,319.82	72.5393	1,319.82	70.0002	1,319.82	69.7225	1,319.82	65.7595	1,319.82	64.01	1,319.82	64.3654	1,319.82	64.2933	1,319.82	69.3346	1,319.82	69.3055	1,319.82	72.2541	1,319.82	72.0216	1,319.82	73.0345
1,366.7	80.452	1,366.7	80.3252	1,366.7	80.3043	1,366.7	79.9951	1,366.7	79.9646	1,366.7	79.597	1,366.7	79.4405	1,366.7	79.031	1,366.7	78.702	1,366.7	78.1197	1,366.7	77.7814	1,366.7	76.8944	1,366.7	76.5887	1,366.7	75.3784	1,366.7	74.9841	1,366.7	73.6018	1,366.7	73.3973	1,366.7	72.6722	1,366.7	72.8524	1,366.7	73.2219	1,366.7	73.1585	1,366.7	73.5654	1,366.7	73.2345	1,366.7	72.8592	1,366.7	72.4197	1,366.7	70.7702	1,366.7	70.1361	1,366.7	65.7864	1,366.7	64.9057	1,366.7	61.9428	1,366.7	58.9133	1,366.7	68.6316	1,366.7	67.859	1,366.7	71.6927	1,366.7	71.6999	1,366.7	72.6621
1,413.57	80.4921	1,413.57	80.4328	1,413.57	80.3326	1,413.57	80.1333	1,413.57	79.9387	1,413.57	79.6796	1,413.57	79.4181	1,413.57	79.1196	1,413.57	78.8169	1,413.57	78.2852	1,413.57	77.9882	1,413.57	77.1776	1,413.57	76.9822	1,413.57	75.8549	1,413.57	75.6724	1,413.57	74.3223	1,413.57	73.6779	1,413.57	73.0924	1,413.57	71.9322	1,413.57	72.7263	1,413.57	72.2176	1,413.57	73.0418	1,413.57	72.9837	1,413.57	73.0688	1,413.57	72.8496	1,413.57	71.4354	1,413.57	71.3609	1,413.57	66.7654	1,413.57	67.0244	1,413.57	61.313	1,413.57	55.4609	1,413.57	67.3125	1,413.57	66.0721	1,413.57	70.8804	1,413.57	70.6922	1,413.57	71.9124
1,463.38	80.4782	1,463.38	80.2785	1,463.38	80.3858	1,463.38	79.9473	1,463.38	79.9066	1,463.38	79.4302	1,463.38	79.2891	1,463.38	78.7339	1,463.38	78.6586	1,463.38	77.8525	1,463.38	77.8944	1,463.38	76.7132	1,463.38	76.951	1,463.38	75.4682	1,463.38	75.6887	1,463.38	74.1961	1,463.38	73.9322	1,463.38	72.8512	1,463.38	72.1562	1,463.38	72.2268	1,463.38	71.8159	1,463.38	72.6228	1,463.38	72.7477	1,463.38	72.7521	1,463.38	73.0779	1,463.38	71.477	1,463.38	71.7521	1,463.38	67.2234	1,463.38	67.6544	1,463.38	57.8084	1,463.38	56.6248	1,463.38	65.4793	1,463.38	63.368	1,463.38	69.7471	1,463.38	69.1333	1,463.38	70.842
1,516.11	80.3791	1,516.11	80.2777	1,516.11	80.2663	1,516.11	79.8801	1,516.11	79.9298	1,516.11	79.0994	1,516.11	79.3225	1,516.11	78.1731	1,516.11	78.4829	1,516.11	77.3409	1,516.11	77.6118	1,516.11	76.3376	1,516.11	76.7476	1,516.11	75.0262	1,516.11	75.6167	1,516.11	73.448	1,516.11	74.0879	1,516.11	71.6163	1,516.11	72.4244	1,516.11	70.8393	1,516.11	71.4694	1,516.11	71.6268	1,516.11	72.0321	1,516.11	72.1071	1,516.11	72.7134	1,516.11	71.2042	1,516.11	72.1223	1,516.11	68.0455	1,516.11	69.5201	1,516.11	60.2434	1,516.11	62.8031	1,516.11	60.0284	1,516.11	57.7618	1,516.11	66.5579	1,516.11	66.2344	1,516.11	68.1651
1,568.85	80.6669	1,568.85	80.4843	1,568.85	80.5607	1,568.85	80.005	1,568.85	80.1797	1,568.85	79.2095	1,568.85	79.5243	1,568.85	78.2506	1,568.85	78.5732	1,568.85	77.3089	1,568.85	77.4031	1,568.85	76.2393	1,568.85	76.2817	1,568.85	74.8739	1,568.85	75.3623	1,568.85	73.1539	1,568.85	74.2015	1,568.85	71.1423	1,568.85	72.4618	1,568.85	69.8024	1,568.85	70.9571	1,568.85	70.1518	1,568.85	71.1383	1,568.85	71.0401	1,568.85	71.9358	1,568.85	70.6782	1,568.85	71.5747	1,568.85	67.7118	1,568.85	69.4146	1,568.85	60.8459	1,568.85	64.539	1,568.85	58.3231	1,568.85	59.5217	1,568.85	64.9983	1,568.85	64.8838	1,568.85	66.8529
1,624.51	80.7663	1,624.51	80.5468	1,624.51	80.6644	1,624.51	80.1038	1,624.51	80.1883	1,624.51	79.4038	1,624.51	79.4883	1,624.51	78.5095	1,624.51	78.7042	1,624.51	77.5195	1,624.51	77.6326	1,624.51	76.2854	1,624.51	76.2154	1,624.51	74.9348	1,624.51	74.8248	1,624.51	73.5549	1,624.51	73.4961	1,624.51	71.7419	1,624.51	72.1495	1,624.51	70.2171	1,624.51	70.8964	1,624.51	70.0163	1,624.51	70.2431	1,624.51	70.2453	1,624.51	70.5436	1,624.51	69.7255	1,624.51	70.1462	1,624.51	67.4621	1,624.51	67.9331	1,624.51	61.9643	1,624.51	63.6545	1,624.51	55.8217	1,624.51	59.8127	1,624.51	63.6893	1,624.51	63.4792	1,624.51	65.3963
1,681.64	80.6234	1,681.64	80.5377	1,681.64	80.4112	1,681.64	80.1467	1,681.64	79.9532	1,681.64	79.4449	1,681.64	79.2279	1,681.64	78.4837	1,681.64	78.266	1,681.64	77.3821	1,681.64	77.2304	1,681.64	76.1718	1,681.64	76.0529	1,681.64	74.9738	1,681.64	74.5154	1,681.64	73.7119	1,681.64	72.6798	1,681.64	71.9678	1,681.64	70.9636	1,681.64	70.2976	1,681.64	69.9534	1,681.64	70.069	1,681.64	69.8301	1,681.64	70.675	1,681.64	70.0915	1,681.64	70.468	1,681.64	69.6931	1,681.64	68.8163	1,681.64	67.6404	1,681.64	65.2767	1,681.64	63.5992	1,681.64	60.9702	1,681.64	61.3747	1,681.64	63.326	1,681.64	64.3165	1,681.64	65.3651
1,741.7	80.0973	1,741.7	80.0269	1,741.7	79.8765	1,741.7	79.6209	1,741.7	79.4313	1,741.7	78.9046	1,741.7	78.673	1,741.7	77.9513	1,741.7	77.5777	1,741.7	76.8214	1,741.7	76.5038	1,741.7	75.6035	1,741.7	75.3843	1,741.7	74.3532	1,741.7	73.8915	1,741.7	72.8942	1,741.7	72.3312	1,741.7	71.1188	1,741.7	70.5528	1,741.7	69.6315	1,741.7	68.782	1,741.7	69.418	1,741.7	68.6273	1,741.7	70.0305	1,741.7	69.173	1,741.7	70.1296	1,741.7	69.1496	1,741.7	69.0156	1,741.7	67.5598	1,741.7	65.8453	1,741.7	63.6145	1,741.7	62.8599	1,741.7	59.9335	1,741.7	64.4006	1,741.7	63.341	1,741.7	65.137
1,803.22	80.1412	1,803.22	79.911	1,803.22	79.9886	1,803.22	79.3672	1,803.22	79.4911	1,803.22	78.5727	1,803.22	78.717	1,803.22	77.5477	1,803.22	77.6634	1,803.22	76.338	1,803.22	76.4232	1,803.22	75.0088	1,803.22	75.2084	1,803.22	73.6259	1,803.22	74.0474	1,803.22	72.1608	1,803.22	72.7428	1,803.22	70.5205	1,803.22	71.0781	1,803.22	68.9403	1,803.22	69.2864	1,803.22	68.2689	1,803.22	68.4649	1,803.22	69.0324	1,803.22	68.9757	1,803.22	69.6046	1,803.22	69.4643	1,803.22	68.2788	1,803.22	68.3987	1,803.22	64.9547	1,803.22	65.1302	1,803.22	63.3739	1,803.22	62.5542	1,803.22	65.2005	1,803.22	64.8702	1,803.22	66.0663
1,866.21	80.6263	1,866.21	80.3687	1,866.21	80.4848	1,866.21	79.7764	1,866.21	79.9676	1,866.21	78.9337	1,866.21	79.1602	1,866.21	77.8184	1,866.21	78.1107	1,866.21	76.493	1,866.21	76.8277	1,866.21	75.0911	1,866.21	75.5192	1,866.21	73.5991	1,866.21	74.396	1,866.21	72.1863	1,866.21	73.2029	1,866.21	70.8291	1,866.21	71.6536	1,866.21	69.1483	1,866.21	69.8097	1,866.21	68.0552	1,866.21	68.5916	1,866.21	68.5612	1,866.21	69.3413	1,866.21	69.1697	1,866.21	69.8249	1,866.21	68.1663	1,866.21	68.5546	1,866.21	64.4452	1,866.21	65.7089	1,866.21	61.7878	1,866.21	63.3461	1,866.21	65.4455	1,866.21	65.4379	1,866.21	66.6921
1,932.13	80.6204	1,932.13	80.5152	1,932.13	80.5237	1,932.13	80.1102	1,932.13	80.1514	1,932.13	79.2866	1,932.13	79.2576	1,932.13	78.1289	1,932.13	78.0635	1,932.13	76.8411	1,932.13	76.949	1,932.13	75.3467	1,932.13	75.5656	1,932.13	73.7275	1,932.13	73.8501	1,932.13	72.2947	1,932.13	72.4534	1,932.13	70.974	1,932.13	71.0722	1,932.13	69.5153	1,932.13	69.4138	1,932.13	68.0826	1,932.13	68.4713	1,932.13	68.2775	1,932.13	68.9018	1,932.13	69.0968	1,932.13	69.4633	1,932.13	68.4103	1,932.13	68.6482	1,932.13	65.794	1,932.13	65.9514	1,932.13	61.8696	1,932.13	62.8248	1,932.13	64.5794	1,932.13	65.3527	1,932.13	66.4791
1,999.51	80.0247	1,999.51	79.9339	1,999.51	79.8554	1,999.51	79.4016	1,999.51	79.2325	1,999.51	78.5717	1,999.51	78.2521	1,999.51	77.5554	1,999.51	77.3014	1,999.51	76.2246	1,999.51	76.061	1,999.51	74.7256	1,999.51	74.4746	1,999.51	73.3625	1,999.51	72.8055	1,999.51	72.0332	1,999.51	71.3343	1,999.51	70.5734	1,999.51	70.3034	1,999.51	69.7529	1,999.51	68.5163	1,999.51	68.5857	1,999.51	66.4546	1,999.51	67.4328	1,999.51	66.8824	1,999.51	68.0099	1,999.51	68.1006	1,999.51	68.3102	1,999.51	67.9068	1,999.51	66.6889	1,999.51	65.048	1,999.51	63.4346	1,999.51	62.3868	1,999.51	64.5995	1,999.51	64.5723	1,999.51	66.3456
2,069.82	79.4913	2,069.82	79.3399	2,069.82	79.4399	2,069.82	78.6591	2,069.82	78.8561	2,069.82	77.6198	2,069.82	77.8066	2,069.82	76.5322	2,069.82	76.7036	2,069.82	75.3627	2,069.82	75.3054	2,069.82	73.9611	2,069.82	74.0376	2,069.82	72.3248	2,069.82	72.598	2,069.82	70.7304	2,069.82	70.8603	2,069.82	69.3317	2,069.82	69.7493	2,069.82	67.8687	2,069.82	68.4176	2,069.82	66.8699	2,069.82	66.5454	2,069.82	66.8944	2,069.82	65.547	2,069.82	67.4384	2,069.82	66.3782	2,069.82	67.2846	2,069.82	67.0494	2,069.82	65.3533	2,069.82	65.2269	2,069.82	64.3365	2,069.82	61.9585	2,069.82	64.6577	2,069.82	63.3254	2,069.82	64.9812
2,143.07	80.307	2,143.07	80.054	2,143.07	79.9762	2,143.07	79.2409	2,143.07	79.4828	2,143.07	78.258	2,143.07	78.5324	2,143.07	76.8815	2,143.07	77.3753	2,143.07	75.5643	2,143.07	76.1356	2,143.07	74.2794	2,143.07	74.7622	2,143.07	72.7125	2,143.07	73.1819	2,143.07	70.9903	2,143.07	71.6618	2,143.07	68.9671	2,143.07	70.7324	2,143.07	66.8717	2,143.07	69.9119	2,143.07	65.8387	2,143.07	68.2419	2,143.07	66.3994	2,143.07	66.6906	2,143.07	67.2441	2,143.07	67.7169	2,143.07	66.4915	2,143.07	67.63	2,143.07	65.1535	2,143.07	67.1028	2,143.07	64.7059	2,143.07	64.9575	2,143.07	66.1869	2,143.07	66.7147	2,143.07	67.6285
2,219.24	80.4004	2,219.24	80.0263	2,219.24	80.2095	2,219.24	79.7129	2,219.24	79.5228	2,219.24	78.7673	2,219.24	78.6615	2,219.24	77.1288	2,219.24	77.4644	2,219.24	75.901	2,219.24	75.8727	2,219.24	74.5703	2,219.24	74.4808	2,219.24	73.1122	2,219.24	73.436	2,219.24	71.5903	2,219.24	71.8177	2,219.24	69.6654	2,219.24	69.9812	2,219.24	68.9351	2,219.24	69.0427	2,219.24	68.6789	2,219.24	68.4087	2,219.24	67.308	2,219.24	67.2437	2,219.24	67.0015	2,219.24	67.4872	2,219.24	67.4269	2,219.24	68.2683	2,219.24	65.2591	2,219.24	65.7631	2,219.24	63.7653	2,219.24	64.8632	2,219.24	66.6575	2,219.24	66.771	2,219.24	68.6855
2,296.88	79.4733	2,296.88	79.4646	2,296.88	79.5426	2,296.88	78.9355	2,296.88	78.8596	2,296.88	78.0108	2,296.88	77.7634	2,296.88	77.0142	2,296.88	76.242	2,296.88	75.451	2,296.88	74.7413	2,296.88	74.2122	2,296.88	73.4996	2,296.88	72.6413	2,296.88	71.9758	2,296.88	71.0747	2,296.88	70.4674	2,296.88	69.9636	2,296.88	68.5051	2,296.88	68.7609	2,296.88	67.6179	2,296.88	67.9393	2,296.88	66.6951	2,296.88	66.7543	2,296.88	66.3802	2,296.88	68.2817	2,296.88	67.27	2,296.88	68.0086	2,296.88	67.188	2,296.88	64.0966	2,296.88	63.8157	2,296.88	61.1923	2,296.88	60.6591	2,296.88	65.6391	2,296.88	64.7444	2,296.88	66.3332
2,378.91	80.1632	2,378.91	79.576	2,378.91	79.8686	2,378.91	78.9094	2,378.91	79.0346	2,378.91	77.9465	2,378.91	78.2567	2,378.91	76.6965	2,378.91	77.398	2,378.91	75.1328	2,378.91	75.7908	2,378.91	73.3588	2,378.91	73.9915	2,378.91	72.0151	2,378.91	72.4653	2,378.91	70.4724	2,378.91	70.6212	2,378.91	68.5372	2,378.91	69.2897	2,378.91	66.9303	2,378.91	67.328	2,378.91	65.7315	2,378.91	67.0849	2,378.91	63.7034	2,378.91	65.5755	2,378.91	66.598	2,378.91	66.8264	2,378.91	67.2593	2,378.91	67.5868	2,378.91	64.9472	2,378.91	64.3755	2,378.91	61.2978	2,378.91	61.4388	2,378.91	64.2152	2,378.91	63.187	2,378.91	65.3362
2,462.4	81.2175	2,462.4	80.8428	2,462.4	80.96	2,462.4	80.2225	2,462.4	80.2823	2,462.4	79.2815	2,462.4	79.2767	2,462.4	77.9494	2,462.4	77.8524	2,462.4	76.174	2,462.4	76.1686	2,462.4	74.0998	2,462.4	74.6016	2,462.4	72.5806	2,462.4	73.1552	2,462.4	70.9127	2,462.4	71.6105	2,462.4	69.528	2,462.4	69.9861	2,462.4	67.4024	2,462.4	68.3489	2,462.4	66.1478	2,462.4	67.1689	2,462.4	65.3157	2,462.4	66.5931	2,462.4	64.8323	2,462.4	66.929	2,462.4	66.2641	2,462.4	67.5046	2,462.4	64.4621	2,462.4	65.0291	2,462.4	62.487	2,462.4	61.9425	2,462.4	62.6976	2,462.4	64.4518	2,462.4	65.1921
2,548.83	80.8657	2,548.83	80.6115	2,548.83	80.4853	2,548.83	80.0863	2,548.83	79.799	2,548.83	78.9564	2,548.83	78.7732	2,548.83	77.5291	2,548.83	77.3226	2,548.83	76.0509	2,548.83	75.4751	2,548.83	74.3401	2,548.83	73.6668	2,548.83	72.7101	2,548.83	72.2009	2,548.83	71.7792	2,548.83	70.5733	2,548.83	70.2169	2,548.83	68.6841	2,548.83	68.1684	2,548.83	66.6113	2,548.83	66.4315	2,548.83	65.5944	2,548.83	65.9782	2,548.83	64.6871	2,548.83	66.8467	2,548.83	65.2538	2,548.83	67.3823	2,548.83	65.9704	2,548.83	65.8025	2,548.83	65.5841	2,548.83	62.7203	2,548.83	61.2021	2,548.83	64.8514	2,548.83	63.6487	2,548.83	65.2878
2,639.65	80.1724	2,639.65	79.906	2,639.65	79.9602	2,639.65	79.0957	2,639.65	79.3565	2,639.65	78.0504	2,639.65	78.3996	2,639.65	76.4438	2,639.65	77.0212	2,639.65	74.6438	2,639.65	75.5093	2,639.65	73.1856	2,639.65	73.3374	2,639.65	70.8857	2,639.65	71.2827	2,639.65	69.2808	2,639.65	69.6584	2,639.65	67.7964	2,639.65	68.0412	2,639.65	65.62	2,639.65	66.8776	2,639.65	65.1588	2,639.65	64.3114	2,639.65	64.6721	2,639.65	63.4872	2,639.65	62.9883	2,639.65	62.8249	2,639.65	64.7613	2,639.65	64.5513	2,639.65	65.795	2,639.65	63.676	2,639.65	62.5052	2,639.65	61.8714	2,639.65	64.8873	2,639.65	60.9235	2,639.65	65.7944
2,731.93	81.1875	2,731.93	80.9225	2,731.93	80.8811	2,731.93	80.1591	2,731.93	80.3186	2,731.93	79.0567	2,731.93	79.2701	2,731.93	77.4695	2,731.93	77.9766	2,731.93	75.9246	2,731.93	76.5261	2,731.93	74.1574	2,731.93	74.6116	2,731.93	71.9837	2,731.93	72.6785	2,731.93	69.6751	2,731.93	71.2057	2,731.93	67.952	2,731.93	69.8026	2,731.93	66.7691	2,731.93	67.9728	2,731.93	64.683	2,731.93	66.459	2,731.93	63.4891	2,731.93	65.8785	2,731.93	63.9343	2,731.93	65.4054	2,731.93	63.8467	2,731.93	64.7664	2,731.93	62.9642	2,731.93	65.1562	2,731.93	59.9446	2,731.93	61.9521	2,731.93	60.9352	2,731.93	63.8238	2,731.93	63.5925
2,828.61	81.0889	2,828.61	80.9794	2,828.61	80.6988	2,828.61	80.3195	2,828.61	79.9789	2,828.61	79.2947	2,828.61	78.8057	2,828.61	77.8798	2,828.61	77.386	2,828.61	76.4727	2,828.61	75.8728	2,828.61	75.0142	2,828.61	74.2683	2,828.61	73.0183	2,828.61	72.3974	2,828.61	70.7632	2,828.61	70.8639	2,828.61	69.4747	2,828.61	69.7317	2,828.61	67.3763	2,828.61	67.923	2,828.61	66.0561	2,828.61	65.9011	2,828.61	64.5523	2,828.61	64.4119	2,828.61	62.1292	2,828.61	63.6428	2,828.61	66.25	2,828.61	65.2954	2,828.61	66.7929	2,828.61	64.9249	2,828.61	62.6799	2,828.61	60.7346	2,828.61	64.2967	2,828.61	58.3908	2,828.61	65.8674
2,928.22	80.3035	2,928.22	79.8785	2,928.22	80.0997	2,928.22	79.0443	2,928.22	79.349	2,928.22	77.9651	2,928.22	78.3265	2,928.22	76.7546	2,928.22	76.9379	2,928.22	75.3993	2,928.22	75.2362	2,928.22	73.6016	2,928.22	73.5706	2,928.22	71.6698	2,928.22	71.5247	2,928.22	70.384	2,928.22	69.6977	2,928.22	68.568	2,928.22	68.3673	2,928.22	67.1504	2,928.22	66.4238	2,928.22	64.9881	2,928.22	64.7305	2,928.22	64.3261	2,928.22	63.6153	2,928.22	64.9795	2,928.22	62.6793	2,928.22	63.4256	2,928.22	64.161	2,928.22	62.5119	2,928.22	64.9925	2,928.22	61.865	2,928.22	61.4036	2,928.22	54.8052	2,928.22	60.7829	2,928.22	56.2318
3,030.76	80.9444	3,030.76	80.5286	3,030.76	80.7453	3,030.76	79.8213	3,030.76	79.9289	3,030.76	78.7161	3,030.76	78.8431	3,030.76	77.5522	3,030.76	77.5031	3,030.76	75.7897	3,030.76	76.0431	3,030.76	73.6098	3,030.76	74.5023	3,030.76	71.6868	3,030.76	72.5763	3,030.76	69.325	3,030.76	70.3816	3,030.76	68.053	3,030.76	69.2842	3,030.76	66.968	3,030.76	67.9447	3,030.76	64.5301	3,030.76	65.4582	3,030.76	63.4662	3,030.76	64.1176	3,030.76	61.3877	3,030.76	63.3356	3,030.76	63.6504	3,030.76	64.196	3,030.76	63.7824	3,030.76	65.5039	3,030.76	60.7631	3,030.76	62.3877	3,030.76	61.8188	3,030.76	62.2403	3,030.76	63.5305
3,137.7	80.6964	3,137.7	80.4893	3,137.7	80.4826	3,137.7	79.8693	3,137.7	79.8599	3,137.7	78.8002	3,137.7	78.9483	3,137.7	77.5957	3,137.7	77.4027	3,137.7	76.0689	3,137.7	75.7578	3,137.7	74.1917	3,137.7	73.9838	3,137.7	72.2911	3,137.7	72.0922	3,137.7	70.7059	3,137.7	69.8747	3,137.7	68.1816	3,137.7	67.8406	3,137.7	67.5829	3,137.7	66.7188	3,137.7	66.3538	3,137.7	65.476	3,137.7	63.9393	3,137.7	63.9318	3,137.7	62.9509	3,137.7	61.9521	3,137.7	61.7919	3,137.7	62.8043	3,137.7	63.6283	3,137.7	63.5721	3,137.7	58.2312	3,137.7	60.9295	3,137.7	60.6041	3,137.7	59.8765	3,137.7	62.9014
3,249.02	80.6533	3,249.02	80.3116	3,249.02	80.2596	3,249.02	79.6091	3,249.02	79.6386	3,249.02	78.5366	3,249.02	78.5222	3,249.02	77.033	3,249.02	76.9705	3,249.02	75.1776	3,249.02	75.3134	3,249.02	73.2048	3,249.02	73.3997	3,249.02	70.9303	3,249.02	71.4727	3,249.02	69.0485	3,249.02	69.285	3,249.02	67.8135	3,249.02	67.4608	3,249.02	65.7622	3,249.02	66.4356	3,249.02	64.9887	3,249.02	64.2209	3,249.02	64.6083	3,249.02	63.6866	3,249.02	62.0691	3,249.02	62.5329	3,249.02	63.0904	3,249.02	59.4465	3,249.02	64.8421	3,249.02	62.6515	3,249.02	62.4557	3,249.02	60.3618	3,249.02	62.0614	3,249.02	55.3051	3,249.02	62.6596
3,363.28	81.7427	3,363.28	81.2932	3,363.28	81.4957	3,363.28	80.475	3,363.28	80.6521	3,363.28	79.0815	3,363.28	79.3621	3,363.28	77.3607	3,363.28	77.5207	3,363.28	75.4138	3,363.28	75.7081	3,363.28	73.8089	3,363.28	73.8211	3,363.28	71.6224	3,363.28	72.0938	3,363.28	69.48	3,363.28	69.8124	3,363.28	67.1266	3,363.28	67.3678	3,363.28	65.5531	3,363.28	66.6057	3,363.28	64.2528	3,363.28	65.5388	3,363.28	64.2807	3,363.28	64.5337	3,363.28	62.555	3,363.28	64.5039	3,363.28	61.2351	3,363.28	61.9478	3,363.28	62.9323	3,363.28	63.4351	3,363.28	62.213	3,363.28	61.2335	3,363.28	57.1417	3,363.28	59.4748	3,363.28	60.4938
3,481.93	81.8671	3,481.93	81.6587	3,481.93	81.6469	3,481.93	80.831	3,481.93	80.6789	3,481.93	79.3869	3,481.93	79.3233	3,481.93	77.7031	3,481.93	77.5207	3,481.93	76.1286	3,481.93	75.8295	3,481.93	74.0963	3,481.93	73.3685	3,481.93	71.8556	3,481.93	71.24	3,481.93	69.7868	3,481.93	69.9814	3,481.93	67.6206	3,481.93	67.8678	3,481.93	66.7551	3,481.93	64.7333	3,481.93	64.3709	3,481.93	64.252	3,481.93	64.2517	3,481.93	63.7674	3,481.93	63.6574	3,481.93	63.6516	3,481.93	61.8138	3,481.93	61.2442	3,481.93	63.9486	3,481.93	63.7901	3,481.93	63.0563	3,481.93	62.2167	3,481.93	59.6455	3,481.93	61.2715	3,481.93	60.5901
3,604.98	81.4896	3,604.98	81.2745	3,604.98	80.8465	3,604.98	80.4424	3,604.98	80.3668	3,604.98	79.2744	3,604.98	78.8426	3,604.98	77.0218	3,604.98	77.296	3,604.98	75.0642	3,604.98	75.3486	3,604.98	72.9685	3,604.98	73.5472	3,604.98	70.6451	3,604.98	71.4007	3,604.98	67.5722	3,604.98	68.9307	3,604.98	67.5559	3,604.98	66.4867	3,604.98	65.0977	3,604.98	66.2559	3,604.98	64.3645	3,604.98	64.2082	3,604.98	63.2461	3,604.98	62.7268	3,604.98	64.0362	3,604.98	63.0306	3,604.98	61.4129	3,604.98	62.0488	3,604.98	62.1519	3,604.98	62.8527	3,604.98	59.7022	3,604.98	61.6249	3,604.98	59.8671	3,604.98	59.3382	3,604.98	61.2535
3,732.42	81.7458	3,732.42	81.3512	3,732.42	81.4599	3,732.42	80.7025	3,732.42	80.7124	3,732.42	79.3386	3,732.42	79.3036	3,732.42	77.6322	3,732.42	77.5354	3,732.42	75.5342	3,732.42	75.5235	3,732.42	73.266	3,732.42	73.549	3,732.42	70.7274	3,732.42	71.4192	3,732.42	69.8496	3,732.42	69.1842	3,732.42	67.3905	3,732.42	67.1336	3,732.42	65.5502	3,732.42	65.8503	3,732.42	63.8668	3,732.42	64.6187	3,732.42	63.262	3,732.42	62.8412	3,732.42	64.4192	3,732.42	64.1498	3,732.42	62.5321	3,732.42	62.6154	3,732.42	62.3381	3,732.42	62.8094	3,732.42	60.8615	3,732.42	61.6029	3,732.42	59.384	3,732.42	59.6203	3,732.42	60.9002
3,864.26	80.839	3,864.26	80.5337	3,864.26	80.8634	3,864.26	79.6853	3,864.26	79.8436	3,864.26	78.3252	3,864.26	78.7208	3,864.26	77.0911	3,864.26	76.9322	3,864.26	75.4057	3,864.26	75.2695	3,864.26	73.0459	3,864.26	72.8903	3,864.26	71.2596	3,864.26	70.687	3,864.26	70.5638	3,864.26	69.0286	3,864.26	66.8954	3,864.26	66.8439	3,864.26	66.0222	3,864.26	63.9821	3,864.26	64.5578	3,864.26	63.5441	3,864.26	62.882	3,864.26	61.8809	3,864.26	63.4629	3,864.26	63.358	3,864.26	63.2167	3,864.26	62.4332	3,864.26	62.1104	3,864.26	61.7342	3,864.26	61.26	3,864.26	61.5695	3,864.26	60.4375	3,864.26	57.0056	3,864.26	62.5917
4,000.49	80.8468	4,000.49	80.6069	4,000.49	80.7925	4,000.49	79.69	4,000.49	79.8076	4,000.49	78.1519	4,000.49	78.8012	4,000.49	76.9949	4,000.49	77.0728	4,000.49	75.3215	4,000.49	75.3776	4,000.49	72.8878	4,000.49	73.0186	4,000.49	71.8593	4,000.49	71.5786	4,000.49	68.7826	4,000.49	69.1751	4,000.49	66.8167	4,000.49	67.6428	4,000.49	65.1892	4,000.49	65.9604	4,000.49	64.2126	4,000.49	65.1417	4,000.49	62.2227	4,000.49	62.9972	4,000.49	62.6004	4,000.49	62.99	4,000.49	62.3932	4,000.49	63.8126	4,000.49	62.9245	4,000.49	63.64	4,000.49	62.6526	4,000.49	62.3497	4,000.49	57.3106	4,000.49	60.4963	4,000.49	62.2614
4,141.11	80.4366	4,141.11	80.4881	4,141.11	79.8228	4,141.11	79.4556	4,141.11	79.6038	4,141.11	78.7025	4,141.11	78.2184	4,141.11	76.8282	4,141.11	77.0517	4,141.11	74.8521	4,141.11	74.8791	4,141.11	73.5693	4,141.11	73.456	4,141.11	72.1273	4,141.11	71.0317	4,141.11	68.686	4,141.11	68.8258	4,141.11	68.3072	4,141.11	66.5626	4,141.11	65.0949	4,141.11	64.8849	4,141.11	65.474	4,141.11	63.2495	4,141.11	62.9003	4,141.11	62.4532	4,141.11	62.3299	4,141.11	62.4643	4,141.11	62.7218	4,141.11	62.4715	4,141.11	64.2429	4,141.11	62.436	4,141.11	63.4965	4,141.11	62.3733	4,141.11	57.3006	4,141.11	59.7898	4,141.11	60.5154
4,287.6	80.5093	4,287.6	80.2066	4,287.6	80.1994	4,287.6	79.9748	4,287.6	79.755	4,287.6	79.285	4,287.6	78.6806	4,287.6	77.2212	4,287.6	77.1051	4,287.6	74.9804	4,287.6	75.6216	4,287.6	73.694	4,287.6	74.0511	4,287.6	70.6108	4,287.6	71.5142	4,287.6	69.1693	4,287.6	69.5259	4,287.6	67.1207	4,287.6	67.611	4,287.6	66.2184	4,287.6	66.4247	4,287.6	63.3725	4,287.6	64.6801	4,287.6	63.0658	4,287.6	62.9054	4,287.6	63.0072	4,287.6	62.8012	4,287.6	63.4721	4,287.6	62.6592	4,287.6	62.7018	4,287.6	62.4132	4,287.6	62.3477	4,287.6	62.3849	4,287.6	58.5751	4,287.6	58.408	4,287.6	59.3341
4,438.48	80.2108	4,438.48	79.6434	4,438.48	80.7307	4,438.48	79.5987	4,438.48	79.3863	4,438.48	78.4552	4,438.48	78.9564	4,438.48	77.1883	4,438.48	77.5749	4,438.48	76.5653	4,438.48	76.27	4,438.48	73.8793	4,438.48	73.3629	4,438.48	72.0389	4,438.48	71.952	4,438.48	70.3605	4,438.48	69.9772	4,438.48	68.4614	4,438.48	68.4329	4,438.48	67.2229	4,438.48	66.2337	4,438.48	64.1384	4,438.48	64.6978	4,438.48	62.9396	4,438.48	62.3935	4,438.48	62.1425	4,438.48	62.3293	4,438.48	63.3077	4,438.48	62.3054	4,438.48	61.9903	4,438.48	61.0891	4,438.48	63.3522	4,438.48	60.9133	4,438.48	57.9732	4,438.48	53.2364	4,438.48	60.9725
4,595.21	80.73	4,595.21	80.7499	4,595.21	80.5697	4,595.21	80.0265	4,595.21	80.3599	4,595.21	79.2711	4,595.21	79.4572	4,595.21	78.425	4,595.21	78.2863	4,595.21	76.9052	4,595.21	76.0953	4,595.21	74.0037	4,595.21	74.1321	4,595.21	72.5873	4,595.21	72.0224	4,595.21	69.2747	4,595.21	69.184	4,595.21	67.8251	4,595.21	67.17	4,595.21	64.4755	4,595.21	65.8311	4,595.21	64.3536	4,595.21	63.0901	4,595.21	62.009	4,595.21	62.2593	4,595.21	61.9996	4,595.21	60.5831	4,595.21	63.0754	4,595.21	63.723	4,595.21	60.9162	4,595.21	62.0257	4,595.21	62.5637	4,595.21	62.454	4,595.21	55.6314	4,595.21	57.7372	4,595.21	60.4915
4,756.35	80.4041	4,756.35	80.7226	4,756.35	79.9087	4,756.35	80.0661	4,756.35	79.991	4,756.35	79.2867	4,756.35	78.8321	4,756.35	77.8031	4,756.35	77.3129	4,756.35	74.9905	4,756.35	75.1374	4,756.35	73.2606	4,756.35	73.5652	4,756.35	70.8392	4,756.35	70.6074	4,756.35	68.0342	4,756.35	68.2044	4,756.35	64.9246	4,756.35	65.5053	4,756.35	64.0557	4,756.35	64.024	4,756.35	62.4292	4,756.35	62.1037	4,756.35	61.3094	4,756.35	60.2814	4,756.35	60.185	4,756.35	60.5245	4,756.35	61.4934	4,756.35	61.9147	4,756.35	60.5703	4,756.35	60.6862	4,756.35	61.6007	4,756.35	61.9477	4,756.35	56.7365	4,756.35	55.5223	4,756.35	57.978
4,924.8	80.8414	4,924.8	80.6433	4,924.8	80.9732	4,924.8	80.3929	4,924.8	79.9134	4,924.8	79.1474	4,924.8	78.7085	4,924.8	76.9809	4,924.8	76.6017	4,924.8	74.4284	4,924.8	74.994	4,924.8	72.4502	4,924.8	72.7367	4,924.8	70.2315	4,924.8	70.4528	4,924.8	67.766	4,924.8	67.3088	4,924.8	64.1093	4,924.8	64.8795	4,924.8	63.2029	4,924.8	63.6158	4,924.8	62.2207	4,924.8	61.0076	4,924.8	60.4982	4,924.8	60.8727	4,924.8	57.068	4,924.8	56.6423	4,924.8	59.6725	4,924.8	58.3121	4,924.8	60.8553	4,924.8	60.0851	4,924.8	62.0326	4,924.8	61.7523	4,924.8	57.1178	4,924.8	53.2108	4,924.8	58.9223
5,097.66	80.8286	5,097.66	80.2501	5,097.66	80.8613	5,097.66	79.5903	5,097.66	79.9379	5,097.66	78.0007	5,097.66	78.6953	5,097.66	75.9042	5,097.66	77.1291	5,097.66	74.5566	5,097.66	75.0082	5,097.66	71.2753	5,097.66	71.9268	5,097.66	69.3022	5,097.66	69.3108	5,097.66	66.491	5,097.66	67.4744	5,097.66	65.1943	5,097.66	65.1357	5,097.66	63.0885	5,097.66	62.6727	5,097.66	62.218	5,097.66	61.5182	5,097.66	59.6386	5,097.66	59.7251	5,097.66	57.4449	5,097.66	57.2922	5,097.66	60.2242	5,097.66	60.0135	5,097.66	59.1204	5,097.66	58.8994	5,097.66	60.1241	5,097.66	61.4446	5,097.66	51.5207	5,097.66	56.6926	5,097.66	57.5919
5,277.83	80.501	5,277.83	80.7021	5,277.83	79.9206	5,277.83	79.5769	5,277.83	79.6869	5,277.83	78.422	5,277.83	78.3696	5,277.83	76.9972	5,277.83	76.6333	5,277.83	74.4317	5,277.83	73.821	5,277.83	72.3696	5,277.83	72.07	5,277.83	69.8549	5,277.83	69.3853	5,277.83	67.9444	5,277.83	66.8055	5,277.83	66.6658	5,277.83	64.3505	5,277.83	63.6763	5,277.83	63.0473	5,277.83	61.9413	5,277.83	61.0356	5,277.83	59.9468	5,277.83	60.4247	5,277.83	57.9192	5,277.83	58.5211	5,277.83	60.628	5,277.83	59.894	5,277.83	59.7861	5,277.83	59.4289	5,277.83	60.8268	5,277.83	60.4799	5,277.83	56.5116	5,277.83	55.1673	5,277.83	58.6389
5,463.87	80.3686	5,463.87	80.3147	5,463.87	80.4536	5,463.87	79.7911	5,463.87	79.7429	5,463.87	78.5569	5,463.87	78.3817	5,463.87	76.4786	5,463.87	76.1256	5,463.87	74.1467	5,463.87	74.0835	5,463.87	72.061	5,463.87	72.0391	5,463.87	69.6823	5,463.87	69.8834	5,463.87	67.1572	5,463.87	68.0638	5,463.87	64.2657	5,463.87	65.4275	5,463.87	61.4964	5,463.87	62.801	5,463.87	58.7592	5,463.87	61.6364	5,463.87	59.4588	5,463.87	58.5705	5,463.87	56.277	5,463.87	57.8219	5,463.87	58.0519	5,463.87	60.6084	5,463.87	59.2877	5,463.87	60.6301	5,463.87	61.357	5,463.87	60.1454	5,463.87	53.1553	5,463.87	54.8477	5,463.87	55.9687
5,657.23	80.4536	5,657.23	79.9322	5,657.23	80.5489	5,657.23	79.1997	5,657.23	79.4121	5,657.23	77.5224	5,657.23	77.7685	5,657.23	75.0813	5,657.23	76.1764	5,657.23	73.5436	5,657.23	74.7762	5,657.23	71.2156	5,657.23	72.1426	5,657.23	69.5207	5,657.23	69.5094	5,657.23	66.5268	5,657.23	67.0328	5,657.23	64.0414	5,657.23	65.4062	5,657.23	61.9237	5,657.23	63.0729	5,657.23	60.8869	5,657.23	61.0929	5,657.23	60.1765	5,657.23	60.2077	5,657.23	59.0334	5,657.23	59.6455	5,657.23	60.3581	5,657.23	59.6768	5,657.23	60.7368	5,657.23	60.6691	5,657.23	60.5727	5,657.23	60.7114	5,657.23	56.9297	5,657.23	55.088	5,657.23	56.2365
5,856.45	80.9474	5,856.45	80.8558	5,856.45	80.6071	5,856.45	79.7866	5,856.45	79.8265	5,856.45	78.3854	5,856.45	78.2986	5,856.45	76.9909	5,856.45	76.8006	5,856.45	75.1787	5,856.45	74.6742	5,856.45	73.0028	5,856.45	72.624	5,856.45	70.6259	5,856.45	70.1323	5,856.45	67.6332	5,856.45	67.8005	5,856.45	65.5737	5,856.45	65.4776	5,856.45	63.7144	5,856.45	63.4318	5,856.45	60.6619	5,856.45	61.4848	5,856.45	59.6063	5,856.45	59.6794	5,856.45	57.6764	5,856.45	59.4009	5,856.45	58.8455	5,856.45	58.6561	5,856.45	60.7241	5,856.45	61.1284	5,856.45	60.2427	5,856.45	59.8333	5,856.45	55.8828	5,856.45	56.8762	5,856.45	56.4582
6,062.99	81.0111	6,062.99	80.7633	6,062.99	80.8305	6,062.99	79.8833	6,062.99	79.9062	6,062.99	78.4378	6,062.99	78.5458	6,062.99	77.0539	6,062.99	76.8076	6,062.99	75.1557	6,062.99	74.8791	6,062.99	72.8823	6,062.99	72.8086	6,062.99	70.3006	6,062.99	70.6594	6,062.99	67.3969	6,062.99	68.5798	6,062.99	64.6737	6,062.99	65.5114	6,062.99	63.3374	6,062.99	63.0731	6,062.99	60.7514	6,062.99	60.3267	6,062.99	59.9827	6,062.99	59.3606	6,062.99	58.59	6,062.99	59.597	6,062.99	59.0506	6,062.99	58.7998	6,062.99	60.4806	6,062.99	61.4134	6,062.99	60.7827	6,062.99	60.4557	6,062.99	56.5491	6,062.99	56.7458	6,062.99	55.9009
6,276.86	81.3869	6,276.86	81.109	6,276.86	81.2088	6,276.86	80.0289	6,276.86	80.1883	6,276.86	78.6817	6,276.86	78.6364	6,276.86	77.2236	6,276.86	77.4074	6,276.86	75.4213	6,276.86	75.765	6,276.86	73.2865	6,276.86	73.4826	6,276.86	71.3683	6,276.86	71.0595	6,276.86	68.738	6,276.86	68.2058	6,276.86	66.0115	6,276.86	65.7517	6,276.86	63.4606	6,276.86	63.6956	6,276.86	62.0174	6,276.86	61.5206	6,276.86	59.9446	6,276.86	60.8609	6,276.86	59.8523	6,276.86	59.3724	6,276.86	59.3407	6,276.86	58.2176	6,276.86	61.5375	6,276.86	61.7592	6,276.86	60.9652	6,276.86	61.2039	6,276.86	57.5896	6,276.86	56.5528	6,276.86	54.5598
6,498.05	81.6209	6,498.05	81.2602	6,498.05	81.3955	6,498.05	80.0478	6,498.05	80.2524	6,498.05	78.9033	6,498.05	78.7634	6,498.05	77.8974	6,498.05	77.6223	6,498.05	76.2219	6,498.05	75.6686	6,498.05	73.8905	6,498.05	73.6837	6,498.05	71.0347	6,498.05	70.5225	6,498.05	68.3395	6,498.05	67.5278	6,498.05	65.9536	6,498.05	65.001	6,498.05	64.2606	6,498.05	62.4149	6,498.05	61.6331	6,498.05	60.8531	6,498.05	57.0398	6,498.05	58.7605	6,498.05	55.8134	6,498.05	58.2643	6,498.05	56.9605	6,498.05	57.5432	6,498.05	60.7764	6,498.05	60.7903	6,498.05	59.8829	6,498.05	60.124	6,498.05	57.815	6,498.05	57.7714	6,498.05	53.7313
6,726.56	81.4379	6,726.56	81.0527	6,726.56	81.0918	6,726.56	79.9026	6,726.56	79.9278	6,726.56	78.9284	6,726.56	78.6795	6,726.56	78.1286	6,726.56	77.6221	6,726.56	76.0085	6,726.56	75.62	6,726.56	73.0982	6,726.56	73.1802	6,726.56	69.7242	6,726.56	70.129	6,726.56	66.8111	6,726.56	66.4706	6,726.56	63.548	6,726.56	62.7723	6,726.56	60.7572	6,726.56	60.0811	6,726.56	56.603	6,726.56	57.045	6,726.56	57.6045	6,726.56	56.6583	6,726.56	55.8948	6,726.56	55.7937	6,726.56	53.9073	6,726.56	56.2512	6,726.56	60.0913	6,726.56	60.0085	6,726.56	60.0285	6,726.56	60.2342	6,726.56	56.6915	6,726.56	57.8776	6,726.56	53.6574
6,963.87	81.2118	6,963.87	80.8299	6,963.87	80.8366	6,963.87	79.7997	6,963.87	79.7346	6,963.87	79.1274	6,963.87	78.5561	6,963.87	77.7257	6,963.87	77.7659	6,963.87	75.3729	6,963.87	75.6715	6,963.87	72.3759	6,963.87	72.3143	6,963.87	69.4717	6,963.87	68.5627	6,963.87	65.9348	6,963.87	64.7719	6,963.87	62.5792	6,963.87	61.8542	6,963.87	59.1447	6,963.87	60.0537	6,963.87	58.6509	6,963.87	57.7814	6,963.87	56.859	6,963.87	54.8242	6,963.87	56.6866	6,963.87	52.9416	6,963.87	56.0464	6,963.87	51.5022	6,963.87	59.5423	6,963.87	59.319	6,963.87	60.1849	6,963.87	59.3681	6,963.87	57.2276	6,963.87	56.4426	6,963.87	54.2724
7,209.96	80.9474	7,209.96	80.6726	7,209.96	80.824	7,209.96	79.6638	7,209.96	79.8519	7,209.96	78.7136	7,209.96	78.9325	7,209.96	77.5659	7,209.96	77.2651	7,209.96	74.8513	7,209.96	74.087	7,209.96	71.7948	7,209.96	71.5623	7,209.96	68.6998	7,209.96	68.0599	7,209.96	65.9858	7,209.96	65.1561	7,209.96	63.5205	7,209.96	63.1849	7,209.96	61.1594	7,209.96	60.3588	7,209.96	59.5933	7,209.96	57.8217	7,209.96	57.6247	7,209.96	56.7242	7,209.96	55.4931	7,209.96	55.1206	7,209.96	55.577	7,209.96	55.0147	7,209.96	59.0491	7,209.96	58.7482	7,209.96	59.1206	7,209.96	58.3845	7,209.96	56.6879	7,209.96	57.0145	7,209.96	51.2707
7,464.84	80.913	7,464.84	80.5056	7,464.84	80.3046	7,464.84	79.2805	7,464.84	79.3347	7,464.84	78.5898	7,464.84	78.2132	7,464.84	76.9607	7,464.84	76.6816	7,464.84	74.1903	7,464.84	74.422	7,464.84	71.1637	7,464.84	70.8936	7,464.84	68.319	7,464.84	67.7748	7,464.84	65.2473	7,464.84	65.1945	7,464.84	62.2554	7,464.84	62.0759	7,464.84	60.3539	7,464.84	59.7155	7,464.84	58.3622	7,464.84	57.7776	7,464.84	56.9891	7,464.84	56.7183	7,464.84	56.623	7,464.84	54.804	7,464.84	55.7302	7,464.84	55.1821	7,464.84	58.2619	7,464.84	58.0415	7,464.84	57.7275	7,464.84	58.6253	7,464.84	55.812	7,464.84	57.5724	7,464.84	47.1236
7,727.05	80.6213	7,727.05	80.2398	7,727.05	80.5205	7,727.05	79.4015	7,727.05	79.3447	7,727.05	78.5191	7,727.05	78.2303	7,727.05	77.0125	7,727.05	76.9775	7,727.05	74.4525	7,727.05	73.6969	7,727.05	71.4371	7,727.05	71.0193	7,727.05	67.8558	7,727.05	67.5684	7,727.05	64.7617	7,727.05	64.005	7,727.05	62.2492	7,727.05	62.4831	7,727.05	59.3593	7,727.05	60.495	7,727.05	57.8057	7,727.05	57.608	7,727.05	56.6763	7,727.05	54.8597	7,727.05	56.1037	7,727.05	55.4419	7,727.05	55.7771	7,727.05	53.9224	7,727.05	58.6448	7,727.05	58.4807	7,727.05	57.5165	7,727.05	57.764	7,727.05	54.4919	7,727.05	56.3294	7,727.05	49.4803
7,999.51	81.0424	7,999.51	80.7035	7,999.51	80.5342	7,999.51	79.9676	7,999.51	79.725	7,999.51	79.1032	7,999.51	78.7001	7,999.51	77.3988	7,999.51	76.8961	7,999.51	74.2947	7,999.51	74.2935	7,999.51	70.3307	7,999.51	70.723	7,999.51	66.6409	7,999.51	67.0452	7,999.51	64.9022	7,999.51	64.7117	7,999.51	62.2597	7,999.51	61.9857	7,999.51	60.6245	7,999.51	60.7433	7,999.51	57.6147	7,999.51	57.9639	7,999.51	56.1655	7,999.51	56.295	7,999.51	54.8972	7,999.51	53.2076	7,999.51	55.6496	7,999.51	54.2939	7,999.51	57.4848	7,999.51	56.6191	7,999.51	57.9734	7,999.51	57.5513	7,999.51	55.0286	7,999.51	55.6583	7,999.51	48.7304
8,282.23	80.802	8,282.23	80.5956	8,282.23	80.5698	8,282.23	79.8049	8,282.23	79.7068	8,282.23	78.9865	8,282.23	78.9006	8,282.23	77.443	8,282.23	77.0838	8,282.23	73.9236	8,282.23	73.7562	8,282.23	71.0387	8,282.23	70.7428	8,282.23	68.5207	8,282.23	68.0984	8,282.23	65.8767	8,282.23	64.8158	8,282.23	62.8013	8,282.23	62.5971	8,282.23	60.809	8,282.23	59.7957	8,282.23	59.5971	8,282.23	57.9374	8,282.23	55.9665	8,282.23	55.8562	8,282.23	55.8458	8,282.23	54.8847	8,282.23	55.7159	8,282.23	53.9409	8,282.23	56.8394	8,282.23	57.3346	8,282.23	57.0514	8,282.23	57.2834	8,282.23	54.4042	8,282.23	55.5136	8,282.23	47.5066
8,573.73	81.1181	8,573.73	80.8944	8,573.73	80.8853	8,573.73	80.2694	8,573.73	80.3894	8,573.73	79.2791	8,573.73	79.1914	8,573.73	77.3191	8,573.73	77.1601	8,573.73	73.8741	8,573.73	74.2903	8,573.73	71.8074	8,573.73	70.9365	8,573.73	68.1748	8,573.73	68.2969	8,573.73	66.2711	8,573.73	65.0169	8,573.73	63.4386	8,573.73	62.7067	8,573.73	61.207	8,573.73	59.9119	8,573.73	58.3604	8,573.73	58.4133	8,573.73	55.3679	8,573.73	55.6815	8,573.73	57.012	8,573.73	55.1104	8,573.73	54.4342	8,573.73	54.7804	8,573.73	56.6017	8,573.73	56.4502	8,573.73	56.2155	8,573.73	55.9773	8,573.73	53.8832	8,573.73	54.9243	8,573.73	47.3491
8,876.95	81.0039	8,876.95	80.9918	8,876.95	80.8773	8,876.95	80.3665	8,876.95	80.4302	8,876.95	79.3248	8,876.95	79.0177	8,876.95	77.1616	8,876.95	77.0685	8,876.95	74.1866	8,876.95	73.8761	8,876.95	71.5379	8,876.95	71.1445	8,876.95	68.5418	8,876.95	68.2249	8,876.95	65.325	8,876.95	63.9639	8,876.95	62.6202	8,876.95	61.7774	8,876.95	59.6906	8,876.95	59.0218	8,876.95	57.1582	8,876.95	57.7133	8,876.95	54.9485	8,876.95	54.6245	8,876.95	54.5861	8,876.95	54.0616	8,876.95	54.0881	8,876.95	53.5003	8,876.95	56.8116	8,876.95	56.0686	8,876.95	55.7596	8,876.95	56.0986	8,876.95	53.2926	8,876.95	54.1531	8,876.95	43.491
9,188.96	81.2159	9,188.96	81.1335	9,188.96	81.2846	9,188.96	80.7016	9,188.96	80.842	9,188.96	79.3463	9,188.96	79.3355	9,188.96	77.2519	9,188.96	76.8989	9,188.96	73.8793	9,188.96	73.745	9,188.96	71.13	9,188.96	70.8146	9,188.96	67.756	9,188.96	67.8169	9,188.96	64.2837	9,188.96	63.243	9,188.96	62.2432	9,188.96	61.9724	9,188.96	59.5645	9,188.96	59.444	9,188.96	57.6627	9,188.96	56.8852	9,188.96	55.3714	9,188.96	54.7228	9,188.96	52.8634	9,188.96	52.8853	9,188.96	51.4871	9,188.96	53.3134	9,188.96	55.0916	9,188.96	55.2354	9,188.96	56.4911	9,188.96	56.2092	9,188.96	53.1697	9,188.96	54.2484	9,188.96	46.288
9,514.16	81.5023	9,514.16	81.5049	9,514.16	81.5194	9,514.16	81.0085	9,514.16	81.0153	9,514.16	79.5914	9,514.16	79.2534	9,514.16	77.1998	9,514.16	76.957	9,514.16	73.7141	9,514.16	73.8561	9,514.16	71.2952	9,514.16	70.8075	9,514.16	67.333	9,514.16	67.2718	9,514.16	64.803	9,514.16	63.2178	9,514.16	61.2859	9,514.16	61.6663	9,514.16	59.6622	9,514.16	59.1569	9,514.16	57.0049	9,514.16	57.3622	9,514.16	53.9517	9,514.16	54.3923	9,514.16	53.1116	9,514.16	53.4871	9,514.16	52.7538	9,514.16	51.5847	9,514.16	56.0781	9,514.16	53.5516	9,514.16	55.8049	9,514.16	55.2877	9,514.16	53.7522	9,514.16	54.8163	9,514.16	46.153
9,849.61	81.66	9,849.61	81.7695	9,849.61	81.6594	9,849.61	81.1752	9,849.61	81.1372	9,849.61	79.4315	9,849.61	79.2682	9,849.61	77.1587	9,849.61	76.4969	9,849.61	73.6843	9,849.61	73.3995	9,849.61	70.7771	9,849.61	70.0317	9,849.61	65.8889	9,849.61	66.3566	9,849.61	64.2831	9,849.61	63.0183	9,849.61	61.4208	9,849.61	60.62	9,849.61	57.9861	9,849.61	58.0642	9,849.61	56.4144	9,849.61	55.1819	9,849.61	54.2002	9,849.61	52.9859	9,849.61	51.8903	9,849.61	52.9179	9,849.61	48.2648	9,849.61	48.8482	9,849.61	53.4435	9,849.61	51.8132	9,849.61	55.9725	9,849.61	54.6708	9,849.61	51.1907	9,849.61	53.364	9,849.61	47.2835
10,196.8	81.3428	10,196.8	81.5493	10,196.8	81.5315	10,196.8	80.9023	10,196.8	80.77	10,196.8	79.2376	10,196.8	78.7302	10,196.8	76.8206	10,196.8	76.0425	10,196.8	73.1296	10,196.8	72.856	10,196.8	70.2049	10,196.8	69.057	10,196.8	66.6432	10,196.8	65.9452	10,196.8	63.154	10,196.8	61.8495	10,196.8	61.0678	10,196.8	59.834	10,196.8	57.4989	10,196.8	56.1502	10,196.8	55.397	10,196.8	56.052	10,196.8	53.9495	10,196.8	52.488	10,196.8	51.2191	10,196.8	52.7961	10,196.8	46.8363	10,196.8	46.6573	10,196.8	53.4592	10,196.8	51.2857	10,196.8	55.2897	10,196.8	54.5082	10,196.8	52.093	10,196.8	52.0373	10,196.8	44.9321
10,555.7	80.8662	10,555.7	81.0921	10,555.7	81.1235	10,555.7	80.4189	10,555.7	80.4093	10,555.7	78.3913	10,555.7	78.1937	10,555.7	76.0109	10,555.7	75.3826	10,555.7	72.2424	10,555.7	71.7783	10,555.7	69.003	10,555.7	68.1606	10,555.7	66.2209	10,555.7	65.555	10,555.7	62.3981	10,555.7	61.6919	10,555.7	60.7425	10,555.7	59.049	10,555.7	57.7769	10,555.7	56.3562	10,555.7	55.3596	10,555.7	55.2259	10,555.7	52.9829	10,555.7	51.8706	10,555.7	52.4651	10,555.7	51.9679	10,555.7	48.825	10,555.7	47.913	10,555.7	50.7899	10,555.7	49.3699	10,555.7	54.8579	10,555.7	52.7483	10,555.7	53.027	10,555.7	51.4431	10,555.7	44.7394
10,927.7	80.5697	10,927.7	80.7752	10,927.7	80.8811	10,927.7	80.0864	10,927.7	80.2593	10,927.7	78.0112	10,927.7	77.9112	10,927.7	75.4876	10,927.7	74.9917	10,927.7	71.2412	10,927.7	71.1684	10,927.7	68.4039	10,927.7	66.9472	10,927.7	64.5264	10,927.7	63.2552	10,927.7	61.4927	10,927.7	60.4479	10,927.7	58.2038	10,927.7	58.2948	10,927.7	57.5901	10,927.7	56.0126	10,927.7	54.2859	10,927.7	53.7536	10,927.7	52.8144	10,927.7	50.8837	10,927.7	51.2081	10,927.7	51.9019	10,927.7	48.7099	10,927.7	47.3015	10,927.7	49.8815	10,927.7	48.585	10,927.7	53.5095	10,927.7	51.5601	10,927.7	50.8626	10,927.7	49.1695	10,927.7	40.5987
11,313	80.9285	11,313	81.126	11,313	81.2801	11,313	80.2534	11,313	80.3318	11,313	77.9549	11,313	77.963	11,313	75.2888	11,313	74.9536	11,313	70.7015	11,313	71.2733	11,313	67.5109	11,313	67.5087	11,313	62.2227	11,313	63.9103	11,313	61.6051	11,313	59.8647	11,313	58.1065	11,313	57.6494	11,313	55.7811	11,313	56.0446	11,313	52.9558	11,313	52.2478	11,313	50.3509	11,313	52.1084	11,313	45.8123	11,313	51.2675	11,313	44.9002	11,313	44.657	11,313	50.8099	11,313	46.796	11,313	51.9168	11,313	51.8785	11,313	48.6179	11,313	49.4287	11,313	39.1491
11,712.9	81.2547	11,712.9	81.5599	11,712.9	81.6513	11,712.9	80.7032	11,712.9	80.7516	11,712.9	78.6263	11,712.9	78.2455	11,712.9	75.7984	11,712.9	75.0944	11,712.9	71.039	11,712.9	71.2337	11,712.9	67.6023	11,712.9	66.7813	11,712.9	63.2555	11,712.9	63.7693	11,712.9	59.8115	11,712.9	60.0748	11,712.9	58.4318	11,712.9	57.3676	11,712.9	54.7472	11,712.9	55.007	11,712.9	52.8115	11,712.9	52.6939	11,712.9	50.8084	11,712.9	51.4264	11,712.9	48.2248	11,712.9	49.2945	11,712.9	43.3333	11,712.9	41.2111	11,712.9	50.0257	11,712.9	47.9926	11,712.9	52.1508	11,712.9	52.3604	11,712.9	48.073	11,712.9	47.3525	11,712.9	36.1964
12,126	81.5226	12,126	81.8987	12,126	81.9423	12,126	81.1199	12,126	81.1951	12,126	78.8516	12,126	78.4431	12,126	75.889	12,126	74.8575	12,126	70.8851	12,126	70.5634	12,126	68.3783	12,126	66.7496	12,126	65.0959	12,126	63.7691	12,126	61.5414	12,126	61.1934	12,126	59.417	12,126	57.9426	12,126	56.2986	12,126	56.107	12,126	53.3015	12,126	53.9441	12,126	52.3268	12,126	52.2975	12,126	47.8889	12,126	49.8544	12,126	43.209	12,126	42.8536	12,126	49.6029	12,126	47.8204	12,126	52.0315	12,126	51.9471	12,126	50.9732	12,126	48.7185	12,126	39.4473
12,553.7	81.6015	12,553.7	82.2116	12,553.7	82.1913	12,553.7	81.4126	12,553.7	81.3799	12,553.7	78.9447	12,553.7	78.7456	12,553.7	76.0164	12,553.7	74.958	12,553.7	71.2414	12,553.7	70.8649	12,553.7	68.7766	12,553.7	67.2608	12,553.7	64.8658	12,553.7	63.8923	12,553.7	62.3002	12,553.7	61.7533	12,553.7	58.9155	12,553.7	58.5244	12,553.7	57.2277	12,553.7	57.3914	12,553.7	54.5013	12,553.7	52.8455	12,553.7	51.7988	12,553.7	52.6334	12,553.7	47.9497	12,553.7	48.6161	12,553.7	38.9867	12,553.7	45.3237	12,553.7	48.8158	12,553.7	46.9198	12,553.7	50.6652	12,553.7	51.7976	12,553.7	50.9574	12,553.7	49.7926	12,553.7	40.4847
12,996.1	81.6049	12,996.1	82.2555	12,996.1	82.1685	12,996.1	81.4169	12,996.1	81.1941	12,996.1	79.2206	12,996.1	78.7375	12,996.1	76.1264	12,996.1	75.0635	12,996.1	71.4102	12,996.1	71.4894	12,996.1	68.6898	12,996.1	67.7117	12,996.1	65.1973	12,996.1	64.6455	12,996.1	62.2107	12,996.1	62.1821	12,996.1	60.1022	12,996.1	59.4511	12,996.1	57.6831	12,996.1	57.4393	12,996.1	55.1155	12,996.1	53.5467	12,996.1	52.5056	12,996.1	53.73	12,996.1	48.6863	12,996.1	45.6788	12,996.1	43.4737	12,996.1	43.765	12,996.1	48.866	12,996.1	45.975	12,996.1	51.1779	12,996.1	52.6847	12,996.1	49.8367	12,996.1	48.344	12,996.1	40.7355
13,454.6	81.3027	13,454.6	81.839	13,454.6	82.1026	13,454.6	81.3249	13,454.6	81.1226	13,454.6	79.0659	13,454.6	78.6657	13,454.6	76.3506	13,454.6	75.4404	13,454.6	71.6231	13,454.6	72.1498	13,454.6	69.2204	13,454.6	68.8302	13,454.6	65.7886	13,454.6	66.2845	13,454.6	63.412	13,454.6	63.6399	13,454.6	60.3893	13,454.6	59.9794	13,454.6	57.4933	13,454.6	57.2024	13,454.6	55.3241	13,454.6	55.148	13,454.6	51.9309	13,454.6	53.1485	13,454.6	48.524	13,454.6	45.1927	13,454.6	47.8318	13,454.6	46.7428	13,454.6	48.3042	13,454.6	48.0041	13,454.6	51.2132	13,454.6	52.9855	13,454.6	49.5834	13,454.6	48.2455	13,454.6	41.1719
13,929.2	81.042	13,929.2	81.5421	13,929.2	81.8077	13,929.2	81.0762	13,929.2	81.1981	13,929.2	78.9362	13,929.2	78.9581	13,929.2	76.6015	13,929.2	75.711	13,929.2	71.589	13,929.2	72.4604	13,929.2	69.2775	13,929.2	69.4668	13,929.2	65.6233	13,929.2	66.2984	13,929.2	62.6971	13,929.2	63.0715	13,929.2	60.1311	13,929.2	59.4128	13,929.2	56.4677	13,929.2	57.4842	13,929.2	52.7073	13,929.2	54.3803	13,929.2	51.0035	13,929.2	53.9065	13,929.2	49.8496	13,929.2	47.2637	13,929.2	48.1065	13,929.2	45.9289	13,929.2	46.8765	13,929.2	48.07	13,929.2	51.1762	13,929.2	51.6984	13,929.2	48.1166	13,929.2	47.5247	13,929.2	41.751
14,419.9	81.1834	14,419.9	81.6883	14,419.9	81.7894	14,419.9	81.2221	14,419.9	81.512	14,419.9	79.2648	14,419.9	79.5375	14,419.9	76.5339	14,419.9	76.1143	14,419.9	71.5035	14,419.9	72.8594	14,419.9	69.3664	14,419.9	69.5901	14,419.9	65.0407	14,419.9	66.2951	14,419.9	61.9978	14,419.9	62.7764	14,419.9	59.1531	14,419.9	60.2695	14,419.9	55.5897	14,419.9	56.8082	14,419.9	52.3437	14,419.9	53.8772	14,419.9	50.7147	14,419.9	52.4909	14,419.9	47.8029	14,419.9	46.4885	14,419.9	50.501	14,419.9	47.3535	14,419.9	45.7687	14,419.9	48.6765	14,419.9	51.9332	14,419.9	53.3093	14,419.9	49.4093	14,419.9	47.7756	14,419.9	42.6256
14,928.2	81.4952	14,928.2	82.0149	14,928.2	82.0071	14,928.2	81.7593	14,928.2	81.8005	14,928.2	79.694	14,928.2	79.8398	14,928.2	76.765	14,928.2	76.3429	14,928.2	71.6689	14,928.2	73.3199	14,928.2	69.2518	14,928.2	70.2145	14,928.2	64.7955	14,928.2	66.53	14,928.2	62.1241	14,928.2	62.9357	14,928.2	60.1305	14,928.2	60.5122	14,928.2	56.1054	14,928.2	56.8188	14,928.2	54.5412	14,928.2	54.8969	14,928.2	50.5397	14,928.2	52.8037	14,928.2	46.8808	14,928.2	45.7875	14,928.2	48.0895	14,928.2	47.4942	14,928.2	44.5121	14,928.2	49.9336	14,928.2	50.5037	14,928.2	54.0966	14,928.2	49.7021	14,928.2	49.8905	14,928.2	36.7111
15,455.6	81.5981	15,455.6	81.9734	15,455.6	82.2062	15,455.6	82.0573	15,455.6	81.9667	15,455.6	80.0284	15,455.6	80.2814	15,455.6	77.591	15,455.6	77.1872	15,455.6	72.5362	15,455.6	74.2918	15,455.6	70.1815	15,455.6	71.3908	15,455.6	66.6144	15,455.6	67.4823	15,455.6	63.46	15,455.6	64.0956	15,455.6	61.1301	15,455.6	61.4612	15,455.6	56.741	15,455.6	57.1512	15,455.6	55.3982	15,455.6	56.8351	15,455.6	51.1948	15,455.6	53.0733	15,455.6	51.0893	15,455.6	47.5253	15,455.6	50.0032	15,455.6	50.3628	15,455.6	46.4185	15,455.6	49.9933	15,455.6	51.8496	15,455.6	54.7389	15,455.6	49.7892	15,455.6	49.3505	15,455.6	40.7888
16,000.5	81.8569	16,000.5	81.8816	16,000.5	81.8817	16,000.5	81.9508	16,000.5	82.0152	16,000.5	80.3909	16,000.5	80.6567	16,000.5	77.603	16,000.5	77.5091	16,000.5	73.0823	16,000.5	74.8839	16,000.5	70.2266	16,000.5	71.3657	16,000.5	66.8741	16,000.5	67.931	16,000.5	63.9078	16,000.5	64.0605	16,000.5	62.2942	16,000.5	61.3166	16,000.5	56.7972	16,000.5	58.4871	16,000.5	56.7505	16,000.5	56.7147	16,000.5	52.6961	16,000.5	53.1459	16,000.5	51.6598	16,000.5	55.5823	16,000.5	48.1572	16,000.5	51.2224	16,000.5	48.8456	16,000.5	46.1499	16,000.5	52.3289	16,000.5	51.9103	16,000.5	45.1505	16,000.5	38.6106	16,000.5	45.4163
16,564.5	81.3827	16,564.5	81.231	16,564.5	81.2239	16,564.5	81.3589	16,564.5	81.544	16,564.5	79.9873	16,564.5	80.4105	16,564.5	77.1533	16,564.5	77.3338	16,564.5	72.8705	16,564.5	74.4761	16,564.5	69.8717	16,564.5	70.7764	16,564.5	66.3802	16,564.5	67.2292	16,564.5	64.2048	16,564.5	63.4352	16,564.5	61.5215	16,564.5	60.818	16,564.5	57.8704	16,564.5	57.7593	16,564.5	56.4805	16,564.5	56.3464	16,564.5	53.3722	16,564.5	52.7668	16,564.5	51.341	16,564.5	56.4413	16,564.5	48.1866	16,564.5	49.4471	16,564.5	45.9865	16,564.5	42.4611	16,564.5	50.0266	16,564.5	49.5058	16,564.5	46.0925	16,564.5	35.6764	16,564.5	44.8201
17,148.9	80.932	17,148.9	80.3334	17,148.9	80.5414	17,148.9	80.6803	17,148.9	80.9849	17,148.9	79.1051	17,148.9	80.12	17,148.9	76.7216	17,148.9	76.998	17,148.9	72.2543	17,148.9	74.0506	17,148.9	69.6897	17,148.9	70.5497	17,148.9	66.2282	17,148.9	67.219	17,148.9	63.8861	17,148.9	63.2462	17,148.9	61.6026	17,148.9	61.1912	17,148.9	57.8351	17,148.9	57.7519	17,148.9	55.4899	17,148.9	55.9298	17,148.9	52.5421	17,148.9	53.89	17,148.9	52.4382	17,148.9	55.8423	17,148.9	47.0395	17,148.9	46.3934	17,148.9	45.5184	17,148.9	37.5374	17,148.9	49.2329	17,148.9	47.2692	17,148.9	46.6011	17,148.9	36.322	17,148.9	45.0059
17,752.4	80.8931	17,752.4	79.716	17,752.4	80.4564	17,752.4	79.8842	17,752.4	80.7852	17,752.4	78.2884	17,752.4	79.9863	17,752.4	76.8773	17,752.4	76.8828	17,752.4	72.8844	17,752.4	73.7108	17,752.4	70.3128	17,752.4	70.1916	17,752.4	66.192	17,752.4	67.0482	17,752.4	63.9672	17,752.4	62.8931	17,752.4	61.4669	17,752.4	60.5931	17,752.4	57.9643	17,752.4	57.4807	17,752.4	54.79	17,752.4	55.9114	17,752.4	53.5383	17,752.4	54.0443	17,752.4	53.352	17,752.4	56.0127	17,752.4	45.6692	17,752.4	46.9622	17,752.4	46.3699	17,752.4	32.3903	17,752.4	48.5777	17,752.4	46.3069	17,752.4	46.7034	17,752.4	29.1086	17,752.4	43.153
18,379.4	80.4074	18,379.4	78.5186	18,379.4	79.8996	18,379.4	78.3187	18,379.4	80.4559	18,379.4	77.3221	18,379.4	79.4194	18,379.4	76.7149	18,379.4	76.0899	18,379.4	73.2527	18,379.4	73.1269	18,379.4	70.6571	18,379.4	70.3201	18,379.4	66.3636	18,379.4	67.0084	18,379.4	64.1779	18,379.4	62.3216	18,379.4	60.6931	18,379.4	60.346	18,379.4	57.9996	18,379.4	57.9057	18,379.4	53.9882	18,379.4	54.6098	18,379.4	53.2835	18,379.4	53.1981	18,379.4	52.4639	18,379.4	55.1661	18,379.4	41.7587	18,379.4	47.5594	18,379.4	45.8053	18,379.4	34.2117	18,379.4	49.0893	18,379.4	45.4059	18,379.4	46.5433	18,379.4	34.6629	18,379.4	44.3216
19,026.9	79.5497	19,026.9	77.1424	19,026.9	78.471	19,026.9	76.7262	19,026.9	78.8494	19,026.9	76.3275	19,026.9	77.9035	19,026.9	75.9747	19,026.9	74.9751	19,026.9	72.4088	19,026.9	72.8183	19,026.9	69.6101	19,026.9	70.0799	19,026.9	64.6738	19,026.9	66.6076	19,026.9	62.1503	19,026.9	62.7363	19,026.9	59.767	19,026.9	60.0813	19,026.9	56.7046	19,026.9	57.0379	19,026.9	53.3263	19,026.9	54.4927	19,026.9	51.4881	19,026.9	53.9629	19,026.9	50.1332	19,026.9	53.3232	19,026.9	42.3048	19,026.9	46.3501	19,026.9	43.8141	19,026.9	34.5513	19,026.9	48.7137	19,026.9	48.3483	19,026.9	46.5973	19,026.9	42.3412	19,026.9	42.2803
19,697.8	77.726	19,697.8	75.5108	19,697.8	75.878	19,697.8	74.9274	19,697.8	75.6172	19,697.8	74.7077	19,697.8	75.0177	19,697.8	74.4153	19,697.8	73.2556	19,697.8	70.7125	19,697.8	72.073	19,697.8	67.4542	19,697.8	68.8135	19,697.8	62.2105	19,697.8	64.7316	19,697.8	59.6471	19,697.8	60.5126	19,697.8	58.2361	19,697.8	58.5847	19,697.8	52.388	19,697.8	55.7584	19,697.8	52.2661	19,697.8	51.8994	19,697.8	50.2917	19,697.8	52.1114	19,697.8	49.173	19,697.8	50.7621	19,697.8	39.7457	19,697.8	43.6818	19,697.8	42.4303	19,697.8	28.9376	19,697.8	45.4672	19,697.8	46.4367	19,697.8	44.4915	19,697.8	42.3125	19,697.8	40.22
19,999.5	76.8861	19,999.5	75.0095	19,999.5	74.5644	19,999.5	73.7841	19,999.5	73.7117	19,999.5	73.7881	19,999.5	73.4795	19,999.5	73.5984	19,999.5	72.4091	19,999.5	69.6852	19,999.5	71.2268	19,999.5	66.6436	19,999.5	68.0984	19,999.5	60.7963	19,999.5	63.8053	19,999.5	58.4223	19,999.5	60.0632	19,999.5	55.9004	19,999.5	57.7482	19,999.5	54.0625	19,999.5	54.4052	19,999.5	53.2087	19,999.5	51.5584	19,999.5	45.9857	19,999.5	48.8293	19,999.5	53.6255	19,999.5	49.5532	19,999.5	40.6563	19,999.5	35.6184	19,999.5	47.6358	19,999.5	43.9672	19,999.5	43.3557	19,999.5	39.966	19,999.5	45.395	19,999.5	39.7406	19,999.5	45.93
