"SPL Vertical"																																																																							
"On-Axis"		"10°"		"-10°"		"20°"		"-20°"		"30°"		"-30°"		"40°"		"-40°"		"50°"		"-50°"		"60°"		"-60°"		"70°"		"-70°"		"80°"		"-80°"		"90°"		"-90°"		"100°"		"-100°"		"110°"		"-110°"		"120°"		"-120°"		"130°"		"-130°"		"140°"		"-140°"		"150°"		"-150°"		"160°"		"-160°"		"170°"		"-170°"		"180°"	
"Frequency [Hz]"	"Sound Pessure Level [dB]    /  [	2.83	V at 	35	m]"	"Frequency [Hz]"	"Sound Pessure Level [dB]    /  [	2.83	V at 	35	m]"	"Frequency [Hz]"	"Sound Pessure Level [dB]    /  [	2.83	V at 	35	m]"	"Frequency [Hz]"	"Sound Pessure Level [dB]    /  [	2.83	V at 	35	m]"	"Frequency [Hz]"	"Sound Pessure Level [dB]    /  [	2.83	V at 	35	m]"	"Frequency [Hz]"	"Sound Pessure Level [dB]    /  [	2.83	V at 	35	m]"	"Frequency [Hz]"	"Sound Pessure Level [dB]    /  [	2.83	V at 	35	m]"	"Frequency [Hz]"	"Sound Pessure Level [dB]    /  [	2.83	V at 	35	m]"	"Frequency [Hz]"	"Sound Pessure Level [dB]    /  [	2.83	V at 	35	m]"	"Frequency [Hz]"	"Sound Pessure Level [dB]    /  [	2.83	V at 	35	m]"	"Frequency [Hz]"	"Sound Pessure Level [dB]    /  [	2.83	V at 	35	m]"	"Frequency [Hz]"	"Sound Pessure Level [dB]    /  [	2.83	V at 	35	m]"	"Frequency [Hz]"	"Sound Pessure Level [dB]    /  [	2.83	V at 	35	m]"	"Frequency [Hz]"	"Sound Pessure Level [dB]    /  [	2.83	V at 	35	m]"	"Frequency [Hz]"	"Sound Pessure Level [dB]    /  [	2.83	V at 	35	m]"	"Frequency [Hz]"	"Sound Pessure Level [dB]    /  [	2.83	V at 	35	m]"	"Frequency [Hz]"	"Sound Pessure Level [dB]    /  [	2.83	V at 	35	m]"	"Frequency [Hz]"	"Sound Pessure Level [dB]    /  [	2.83	V at 	35	m]"	"Frequency [Hz]"	"Sound Pessure Level [dB]    /  [	2.83	V at 	35	m]"	"Frequency [Hz]"	"Sound Pessure Level [dB]    /  [	2.83	V at 	35	m]"	"Frequency [Hz]"	"Sound Pessure Level [dB]    /  [	2.83	V at 	35	m]"	"Frequency [Hz]"	"Sound Pessure Level [dB]    /  [	2.83	V at 	35	m]"	"Frequency [Hz]"	"Sound Pessure Level [dB]    /  [	2.83	V at 	35	m]"	"Frequency [Hz]"	"Sound Pessure Level [dB]    /  [	2.83	V at 	35	m]"	"Frequency [Hz]"	"Sound Pessure Level [dB]    /  [	2.83	V at 	35	m]"	"Frequency [Hz]"	"Sound Pessure Level [dB]    /  [	2.83	V at 	35	m]"	"Frequency [Hz]"	"Sound Pessure Level [dB]    /  [	2.83	V at 	35	m]"	"Frequency [Hz]"	"Sound Pessure Level [dB]    /  [	2.83	V at 	35	m]"	"Frequency [Hz]"	"Sound Pessure Level [dB]    /  [	2.83	V at 	35	m]"	"Frequency [Hz]"	"Sound Pessure Level [dB]    /  [	2.83	V at 	35	m]"	"Frequency [Hz]"	"Sound Pessure Level [dB]    /  [	2.83	V at 	35	m]"	"Frequency [Hz]"	"Sound Pessure Level [dB]    /  [	2.83	V at 	35	m]"	"Frequency [Hz]"	"Sound Pessure Level [dB]    /  [	2.83	V at 	35	m]"	"Frequency [Hz]"	"Sound Pessure Level [dB]    /  [	2.83	V at 	35	m]"	"Frequency [Hz]"	"Sound Pessure Level [dB]    /  [	2.83	V at 	35	m]"	"Frequency [Hz]"	"Sound Pessure Level [dB]    /  [	2.83	V at 	35	m]"
20.5078	50.711	20.5078	50.6323	20.5078	50.8082	20.5078	50.5733	20.5078	50.9209	20.5078	50.5343	20.5078	51.0451	20.5078	50.5147	20.5078	51.1759	20.5078	50.5134	20.5078	51.3083	20.5078	50.5295	20.5078	51.4375	20.5078	50.5619	20.5078	51.5595	20.5078	50.6097	20.5078	51.6707	20.5078	50.6724	20.5078	51.7683	20.5078	50.749	20.5078	51.8494	20.5078	50.8387	20.5078	51.9111	20.5078	50.9403	20.5078	51.9507	20.5078	51.0522	20.5078	51.9657	20.5078	51.1722	20.5078	51.9546	20.5078	51.2975	20.5078	51.9169	20.5078	51.4245	20.5078	51.854	20.5078	51.5487	20.5078	51.7687	20.5078	51.6652
21.9727	43.8347	21.9727	43.7042	21.9727	44.0012	21.9727	43.6134	21.9727	44.1964	21.9727	43.562	21.9727	44.4097	21.9727	43.5467	21.9727	44.6291	21.9727	43.5622	21.9727	44.8432	21.9727	43.603	21.9727	45.0417	21.9727	43.6637	21.9727	45.2168	21.9727	43.7403	21.9727	45.363	21.9727	43.8297	21.9727	45.4765	21.9727	43.9299	21.9727	45.5555	21.9727	44.0398	21.9727	45.599	21.9727	44.159	21.9727	45.6069	21.9727	44.2871	21.9727	45.58	21.9727	44.4241	21.9727	45.5199	21.9727	44.5691	21.9727	45.4298	21.9727	44.7208	21.9727	45.3143	21.9727	44.8762	21.9727	45.1791	21.9727	45.0309
23.4375	45.1378	23.4375	45.0125	23.4375	45.2821	23.4375	44.9085	23.4375	45.4413	23.4375	44.8262	23.4375	45.6089	23.4375	44.7648	23.4375	45.7774	23.4375	44.7229	23.4375	45.9384	23.4375	44.6988	23.4375	46.0839	23.4375	44.6912	23.4375	46.2067	23.4375	44.6991	23.4375	46.3012	23.4375	44.722	23.4375	46.3636	23.4375	44.7597	23.4375	46.3915	23.4375	44.8125	23.4375	46.3844	23.4375	44.8808	23.4375	46.3432	23.4375	44.965	23.4375	46.2702	23.4375	45.0651	23.4375	46.1694	23.4375	45.1808	23.4375	46.0458	23.4375	45.3107	23.4375	45.9056	23.4375	45.4525	23.4375	45.7556	23.4375	45.6025
24.9023	43.9593	24.9023	43.7967	24.9023	44.1591	24.9023	43.6754	24.9023	44.3882	24.9023	43.5967	24.9023	44.636	24.9023	43.5588	24.9023	44.8906	24.9023	43.5585	24.9023	45.1394	24.9023	43.5915	24.9023	45.3712	24.9023	43.6535	24.9023	45.5765	24.9023	43.7403	24.9023	45.7482	24.9023	43.8487	24.9023	45.8816	24.9023	43.9757	24.9023	45.974	24.9023	44.119	24.9023	46.0245	24.9023	44.2767	24.9023	46.0337	24.9023	44.4467	24.9023	46.0032	24.9023	44.6268	24.9023	45.9356	24.9023	44.8141	24.9023	45.8345	24.9023	45.005	24.9023	45.7045	24.9023	45.195	24.9023	45.5507	24.9023	45.3788
26.3672	43.5943	26.3672	43.3214	26.3672	43.8743	26.3672	43.0624	26.3672	44.1528	26.3672	42.823	26.3672	44.4204	26.3672	42.6078	26.3672	44.667	26.3672	42.42	26.3672	44.8823	26.3672	42.2622	26.3672	45.0566	26.3672	42.1363	26.3672	45.1814	26.3672	42.0438	26.3672	45.2501	26.3672	41.9862	26.3672	45.2582	26.3672	41.9649	26.3672	45.2039	26.3672	41.9816	26.3672	45.0883	26.3672	42.0377	26.3672	44.9155	26.3672	42.1348	26.3672	44.6926	26.3672	42.2735	26.3672	44.4291	26.3672	42.4536	26.3672	44.1365	26.3672	42.6732	26.3672	43.8275	26.3672	42.928	26.3672	43.515	26.3672	43.2116
27.832	46.1694	27.832	45.9952	27.832	46.3632	27.832	45.8442	27.832	46.571	27.832	45.7184	27.832	46.7852	27.832	45.6184	27.832	46.9967	27.832	45.5438	27.832	47.1953	27.832	45.4939	27.832	47.3705	27.832	45.4675	27.832	47.5129	27.832	45.4635	27.832	47.6142	27.832	45.4811	27.832	47.669	27.832	45.5196	27.832	47.6745	27.832	45.5786	27.832	47.6311	27.832	45.6576	27.832	47.5425	27.832	45.7561	27.832	47.4151	27.832	45.8734	27.832	47.2574	27.832	46.0087	27.832	47.0789	27.832	46.1608	27.832	46.8891	27.832	46.3279	27.832	46.6963	27.832	46.5076
29.2969	45.7945	29.2969	45.5516	29.2969	46.0502	29.2969	45.3289	29.2969	46.3099	29.2969	45.1318	29.2969	46.5632	29.2969	44.9636	29.2969	46.7996	29.2969	44.8261	29.2969	47.0083	29.2969	44.7197	29.2969	47.1797	29.2969	44.644	29.2969	47.3055	29.2969	44.5982	29.2969	47.3794	29.2969	44.5815	29.2969	47.3977	29.2969	44.5934	29.2969	47.3593	29.2969	44.6339	29.2969	47.266	29.2969	44.703	29.2969	47.1224	29.2969	44.8012	29.2969	46.9358	29.2969	44.9286	29.2969	46.7154	29.2969	45.085	29.2969	46.4718	29.2969	45.2693	29.2969	46.2163	29.2969	45.4794	29.2969	45.9597	29.2969	45.7115
30.7617	49.4593	30.7617	49.2744	30.7617	49.6521	30.7617	49.1021	30.7617	49.8468	30.7617	48.9467	30.7617	50.0368	30.7617	48.8111	30.7617	50.215	30.7617	48.6979	30.7617	50.374	30.7617	48.6087	30.7617	50.5064	30.7617	48.5447	30.7617	50.6058	30.7617	48.5066	30.7617	50.667	30.7617	48.4947	30.7617	50.6867	30.7617	48.509	30.7617	50.6636	30.7617	48.5492	30.7617	50.599	30.7617	48.6147	30.7617	50.4964	30.7617	48.7043	30.7617	50.3613	30.7617	48.8169	30.7617	50.2006	30.7617	48.9504	30.7617	50.0219	30.7617	49.1027	30.7617	49.8329	30.7617	49.2709	30.7617	49.6407	30.7617	49.4517
32.2266	51.0035	32.2266	50.8179	32.2266	51.1971	32.2266	50.6452	32.2266	51.393	32.2266	50.489	32.2266	51.5841	32.2266	50.3519	32.2266	51.7631	32.2266	50.2356	32.2266	51.922	32.2266	50.1412	32.2266	52.0531	32.2266	50.0695	32.2266	52.1495	32.2266	50.0208	32.2266	52.2057	32.2266	49.9957	32.2266	52.218	32.2266	49.9946	32.2266	52.1854	32.2266	50.0182	32.2266	52.1089	32.2266	50.0668	32.2266	51.9926	32.2266	50.1409	32.2266	51.8422	32.2266	50.2403	32.2266	51.6655	32.2266	50.3644	32.2266	51.4711	32.2266	50.5118	32.2266	51.2675	32.2266	50.6799	32.2266	51.0632	32.2266	50.8653
33.6914	53.7648	33.6914	53.6119	33.6914	53.9256	33.6914	53.4708	33.6914	54.0892	33.6914	53.3445	33.6914	54.2501	33.6914	53.2351	33.6914	54.4019	33.6914	53.1442	33.6914	54.538	33.6914	53.0726	33.6914	54.652	33.6914	53.021	33.6914	54.7381	33.6914	52.9896	33.6914	54.7918	33.6914	52.9788	33.6914	54.8102	33.6914	52.9888	33.6914	54.7922	33.6914	53.0198	33.6914	54.7388	33.6914	53.0717	33.6914	54.6532	33.6914	53.1442	33.6914	54.5398	33.6914	53.2366	33.6914	54.4046	33.6914	53.3477	33.6914	54.2539	33.6914	53.4756	33.6914	54.0942	33.6914	53.6178	33.6914	53.9314	33.6914	53.771
35.1563	54.9873	35.1563	54.8372	35.1563	55.1458	35.1563	54.6997	35.1563	55.3071	35.1563	54.5782	35.1563	55.4655	35.1563	54.4751	35.1563	55.6145	35.1563	54.392	35.1563	55.7475	35.1563	54.3296	35.1563	55.8584	35.1563	54.2882	35.1563	55.9419	35.1563	54.2677	35.1563	55.9938	35.1563	54.2678	35.1563	56.0117	35.1563	54.2881	35.1563	55.9952	35.1563	54.3279	35.1563	55.9457	35.1563	54.3867	35.1563	55.8665	35.1563	54.4634	35.1563	55.7624	35.1563	54.5569	35.1563	55.6388	35.1563	54.6656	35.1563	55.5017	35.1563	54.7876	35.1563	55.3566	35.1563	54.9207	35.1563	55.2086	35.1563	55.0621
36.6211	57.3893	36.6211	57.2327	36.6211	57.5508	36.6211	57.0855	36.6211	57.7118	36.6211	56.9512	36.6211	57.8665	36.6211	56.8326	36.6211	58.0089	36.6211	56.7317	36.6211	58.1326	36.6211	56.6499	36.6211	58.2319	36.6211	56.5881	36.6211	58.302	36.6211	56.547	36.6211	58.3392	36.6211	56.5268	36.6211	58.3416	36.6211	56.5279	36.6211	58.3089	36.6211	56.5505	36.6211	58.2429	36.6211	56.5944	36.6211	58.1473	36.6211	56.6595	36.6211	58.0267	36.6211	56.745	36.6211	57.8872	36.6211	56.8497	36.6211	57.7347	36.6211	56.9718	36.6211	57.5753	36.6211	57.1088	36.6211	57.4146	36.6211	57.2576
38.0859	59.6282	38.0859	59.4685	38.0859	59.792	38.0859	59.3174	38.0859	59.9546	38.0859	59.1788	38.0859	60.1104	38.0859	59.0556	38.0859	60.2533	38.0859	58.9503	38.0859	60.3774	38.0859	58.8646	38.0859	60.4773	38.0859	58.7998	38.0859	60.5481	38.0859	58.7567	38.0859	60.5862	38.0859	58.7358	38.0859	60.5897	38.0859	58.7375	38.0859	60.5583	38.0859	58.7619	38.0859	60.4935	38.0859	58.8088	38.0859	60.3987	38.0859	58.8775	38.0859	60.2784	38.0859	58.9673	38.0859	60.1383	38.0859	59.0765	38.0859	59.9844	38.0859	59.2033	38.0859	59.8226	38.0859	59.3448	38.0859	59.6588	38.0859	59.498
39.5508	61.5482	39.5508	61.4053	39.5508	61.6931	39.5508	61.2685	39.5508	61.8354	39.5508	61.1413	39.5508	61.9699	39.5508	61.0265	39.5508	62.0915	39.5508	60.9264	39.5508	62.195	39.5508	60.8427	39.5508	62.2757	39.5508	60.7767	39.5508	62.3298	39.5508	60.7294	39.5508	62.3544	39.5508	60.7016	39.5508	62.3481	39.5508	60.694	39.5508	62.3111	39.5508	60.7068	39.5508	62.245	39.5508	60.7403	39.5508	62.153	39.5508	60.7942	39.5508	62.0395	39.5508	60.868	39.5508	61.9094	39.5508	60.9605	39.5508	61.7681	39.5508	61.0699	39.5508	61.6211	39.5508	61.1939	39.5508	61.4734	39.5508	61.3296
41.0156	63.4798	41.0156	63.3372	41.0156	63.6249	41.0156	63.2012	41.0156	63.7678	41.0156	63.0751	41.0156	63.9036	41.0156	62.9618	41.0156	64.0273	41.0156	62.8634	41.0156	64.1337	41.0156	62.7817	41.0156	64.2183	41.0156	62.718	41.0156	64.2772	41.0156	62.6733	41.0156	64.3076	41.0156	62.6484	41.0156	64.3079	41.0156	62.644	41.0156	64.278	41.0156	62.6605	41.0156	64.2192	41.0156	62.6982	41.0156	64.1342	41.0156	62.7569	41.0156	64.0267	41.0156	62.836	41.0156	63.9012	41.0156	62.9341	41.0156	63.7626	41.0156	63.0494	41.0156	63.6161	41.0156	63.1791	41.0156	63.4668	41.0156	63.3196
42.4805	65.1572	42.4805	65.0167	42.4805	65.298	42.4805	64.8811	42.4805	65.4346	42.4805	64.7542	42.4805	65.5619	42.4805	64.6395	42.4805	65.6751	42.4805	64.5398	42.4805	65.7693	42.4805	64.4571	42.4805	65.8406	42.4805	64.3932	42.4805	65.8856	42.4805	64.349	42.4805	65.9023	42.4805	64.3251	42.4805	65.89	42.4805	64.3216	42.4805	65.8493	42.4805	64.3384	42.4805	65.7825	42.4805	64.3748	42.4805	65.693	42.4805	64.43	42.4805	65.5852	42.4805	64.5028	42.4805	65.4637	42.4805	64.5917	42.4805	65.3336	42.4805	64.6946	42.4805	65.1992	42.4805	64.8095	42.4805	65.0648	42.4805	64.9338
43.9453	66.9909	43.9453	66.8525	43.9453	67.1287	43.9453	66.7175	43.9453	67.2612	43.9453	66.5896	43.9453	67.3838	43.9453	66.4719	43.9453	67.4918	43.9453	66.3671	43.9453	67.5806	43.9453	66.2774	43.9453	67.6462	43.9453	66.2044	43.9453	67.6854	43.9453	66.1496	43.9453	67.6962	43.9453	66.1138	43.9453	67.6776	43.9453	66.0979	43.9453	67.6305	43.9453	66.1023	43.9453	67.5568	43.9453	66.1269	43.9453	67.4599	43.9453	66.1715	43.9453	67.3442	43.9453	66.2356	43.9453	67.2146	43.9453	66.3181	43.9453	67.0762	43.9453	66.4174	43.9453	66.9342	43.9453	66.5315	43.9453	66.7933	43.9453	66.6579
45.4102	68.7217	45.4102	68.5883	45.4102	68.8539	45.4102	68.4577	45.4102	68.9808	45.4102	68.3333	45.4102	69.0981	45.4102	68.2181	45.4102	69.2013	45.4102	68.1148	45.4102	69.2862	45.4102	68.0255	45.4102	69.349	45.4102	67.9521	45.4102	69.3869	45.4102	67.896	45.4102	69.3976	45.4102	67.8584	45.4102	69.3804	45.4102	67.8402	45.4102	69.3357	45.4102	67.8419	45.4102	69.2653	45.4102	67.864	45.4102	69.1722	45.4102	67.9063	45.4102	69.0603	45.4102	67.9683	45.4102	68.9342	45.4102	68.0491	45.4102	68.7989	45.4102	68.1472	45.4102	68.6593	45.4102	68.2604	45.4102	68.5201	45.4102	68.3858
46.875	70.3894	46.875	70.2616	46.875	70.5161	46.875	70.1364	46.875	70.6377	46.875	70.0171	46.875	70.75	46.875	69.9067	46.875	70.8487	46.875	69.8077	46.875	70.9299	46.875	69.7221	46.875	70.9899	46.875	69.6518	46.875	71.0259	46.875	69.5981	46.875	71.036	46.875	69.562	46.875	71.0192	46.875	69.5443	46.875	70.9761	46.875	69.5456	46.875	70.9082	46.875	69.566	46.875	70.8184	46.875	69.6055	46.875	70.7105	46.875	69.6637	46.875	70.5887	46.875	69.7399	46.875	70.4581	46.875	69.8328	46.875	70.3233	46.875	69.9405	46.875	70.1893	46.875	70.0604
48.3398	71.9783	48.3398	71.8562	48.3398	72.099	48.3398	71.7364	48.3398	72.2144	48.3398	71.6224	48.3398	72.3205	48.3398	71.517	48.3398	72.4131	48.3398	71.4228	48.3398	72.4886	48.3398	71.3418	48.3398	72.5435	48.3398	71.2756	48.3398	72.5754	48.3398	71.2256	48.3398	72.5826	48.3398	71.1925	48.3398	72.5645	48.3398	71.1771	48.3398	72.5218	48.3398	71.1795	48.3398	72.4564	48.3398	71.2	48.3398	72.3709	48.3398	71.2381	48.3398	72.2691	48.3398	71.2935	48.3398	72.155	48.3398	71.3654	48.3398	72.0331	48.3398	71.4523	48.3398	71.9079	48.3398	71.5526	48.3398	71.7836	48.3398	71.664
51.2695	74.5661	51.2695	74.4486	51.2695	74.6806	51.2695	74.3318	51.2695	74.7884	51.2695	74.2187	51.2695	74.8858	51.2695	74.1125	51.2695	74.969	51.2695	74.0156	51.2695	75.0346	51.2695	73.9304	51.2695	75.0797	51.2695	73.8588	51.2695	75.1021	51.2695	73.8021	51.2695	75.1003	51.2695	73.7617	51.2695	75.0742	51.2695	73.7383	51.2695	75.0246	51.2695	73.7325	51.2695	74.9534	51.2695	73.7444	51.2695	74.8637	51.2695	73.7741	51.2695	74.7592	51.2695	73.8213	51.2695	74.644	51.2695	73.8851	51.2695	74.5226	51.2695	73.9646	51.2695	74.3994	51.2695	74.0581	51.2695	74.2785	51.2695	74.1636
52.7344	75.653	52.7344	75.5368	52.7344	75.7656	52.7344	75.4205	52.7344	75.8709	52.7344	75.3073	52.7344	75.9653	52.7344	75.2001	52.7344	76.045	52.7344	75.1017	52.7344	76.1069	52.7344	75.0142	52.7344	76.1481	52.7344	74.9397	52.7344	76.1666	52.7344	74.8796	52.7344	76.161	52.7344	74.8352	52.7344	76.1313	52.7344	74.8076	52.7344	76.0784	52.7344	74.7974	52.7344	76.0043	52.7344	74.8049	52.7344	75.9121	52.7344	74.8304	52.7344	75.8053	52.7344	74.8736	52.7344	75.6884	52.7344	74.934	52.7344	75.5657	52.7344	75.0107	52.7344	75.4417	52.7344	75.1021	52.7344	75.3206	52.7344	75.2063
54.1992	76.6462	54.1992	76.5353	54.1992	76.7532	54.1992	76.4237	54.1992	76.8527	54.1992	76.3147	54.1992	76.9414	54.1992	76.2111	54.1992	77.0158	54.1992	76.1154	54.1992	77.0729	54.1992	76.0301	54.1992	77.1101	54.1992	75.9571	54.1992	77.1256	54.1992	75.8981	54.1992	77.1185	54.1992	75.8543	54.1992	77.0886	54.1992	75.8269	54.1992	77.037	54.1992	75.8164	54.1992	76.9658	54.1992	75.8234	54.1992	76.8777	54.1992	75.8479	54.1992	76.7763	54.1992	75.8896	54.1992	76.6654	54.1992	75.9478	54.1992	76.5493	54.1992	76.0215	54.1992	76.4319	54.1992	76.109	54.1992	76.3171	54.1992	76.2084
55.6641	77.4778	55.6641	77.3712	55.6641	77.5817	55.6641	77.2654	55.6641	77.6795	55.6641	77.1635	55.6641	77.7677	55.6641	77.0683	55.6641	77.8427	55.6641	76.9822	55.6641	77.9017	55.6641	76.9073	55.6641	77.9421	55.6641	76.8451	55.6641	77.9619	55.6641	76.797	55.6641	77.9603	55.6641	76.7639	55.6641	77.9372	55.6641	76.7462	55.6641	77.8936	55.6641	76.7442	55.6641	77.8313	55.6641	76.7581	55.6641	77.753	55.6641	76.7875	55.6641	77.6618	55.6641	76.832	55.6641	77.5615	55.6641	76.8908	55.6641	77.4556	55.6641	76.9629	55.6641	77.3478	55.6641	77.0467	55.6641	77.2417	55.6641	77.1404
58.5938	78.6536	58.5938	78.5486	58.5938	78.7543	58.5938	78.4428	58.5938	78.8474	58.5938	78.3398	58.5938	78.9294	58.5938	78.2424	58.5938	78.9971	58.5938	78.1536	58.5938	79.048	58.5938	78.0756	58.5938	79.0798	58.5938	78.0105	58.5938	79.0913	58.5938	77.9595	58.5938	79.082	58.5938	77.9238	58.5938	79.0523	58.5938	77.9038	58.5938	79.0035	58.5938	77.8996	58.5938	78.9379	58.5938	77.9112	58.5938	78.8582	58.5938	77.938	58.5938	78.7676	58.5938	77.9794	58.5938	78.6695	58.5938	78.0344	58.5938	78.5674	58.5938	78.1019	58.5938	78.4646	58.5938	78.1805	58.5938	78.3641	58.5938	78.2686
60.0586	79.1253	60.0586	79.0217	60.0586	79.2241	60.0586	78.9169	60.0586	79.3148	60.0586	78.8141	60.0586	79.3938	60.0586	78.7166	60.0586	79.4582	60.0586	78.6271	60.0586	79.5053	60.0586	78.5479	60.0586	79.5331	60.0586	78.481	60.0586	79.5405	60.0586	78.428	60.0586	79.5271	60.0586	78.3897	60.0586	79.4935	60.0586	78.367	60.0586	79.4414	60.0586	78.3598	60.0586	79.373	60.0586	78.3682	60.0586	79.2912	60.0586	78.3917	60.0586	79.1994	60.0586	78.4297	60.0586	79.101	60.0586	78.4813	60.0586	78.9993	60.0586	78.5454	60.0586	78.8977	60.0586	78.6209	60.0586	78.7991	60.0586	78.7061
62.9883	79.9076	62.9883	79.8054	62.9883	80.0019	62.9883	79.6985	62.9883	80.0851	62.9883	79.5903	62.9883	80.154	62.9883	79.484	62.9883	80.2061	62.9883	79.3827	62.9883	80.2393	62.9883	79.2892	62.9883	80.2521	62.9883	79.2061	62.9883	80.2437	62.9883	79.1354	62.9883	80.2146	62.9883	79.079	62.9883	80.1656	62.9883	79.0382	62.9883	80.0989	62.9883	79.014	62.9883	80.017	62.9883	79.0068	62.9883	79.9232	62.9883	79.0167	62.9883	79.8209	62.9883	79.0435	62.9883	79.7137	62.9883	79.0866	62.9883	79.605	62.9883	79.145	62.9883	79.4981	62.9883	79.2173	62.9883	79.3961	62.9883	79.3017
64.4531	80.1075	64.4531	80.0082	64.4531	80.1993	64.4531	79.9048	64.4531	80.2805	64.4531	79.8004	64.4531	80.3482	64.4531	79.6984	64.4531	80.4001	64.4531	79.6018	64.4531	80.4341	64.4531	79.5134	64.4531	80.4489	64.4531	79.4356	64.4531	80.4439	64.4531	79.3706	64.4531	80.4191	64.4531	79.3197	64.4531	80.3756	64.4531	79.2843	64.4531	80.3149	64.4531	79.2649	64.4531	80.2396	64.4531	79.2618	64.4531	80.1525	64.4531	79.275	64.4531	80.0567	64.4531	79.304	64.4531	79.9555	64.4531	79.3483	64.4531	79.8522	64.4531	79.4067	64.4531	79.75	64.4531	79.4779	64.4531	79.6518	64.4531	79.5603
67.3828	80.4543	67.3828	80.3599	67.3828	80.5404	67.3828	80.2605	67.3828	80.6154	67.3828	80.1592	67.3828	80.6766	67.3828	80.0594	67.3828	80.7219	67.3828	79.9642	67.3828	80.7495	67.3828	79.8766	67.3828	80.7584	67.3828	79.7992	67.3828	80.7483	67.3828	79.7341	67.3828	80.7196	67.3828	79.6831	67.3828	80.6737	67.3828	79.6474	67.3828	80.6124	67.3828	79.6277	67.3828	80.5385	67.3828	79.6242	67.3828	80.4547	67.3828	79.6366	67.3828	80.3641	67.3828	79.6643	67.3828	80.2696	67.3828	79.7064	67.3828	80.174	67.3828	79.7615	67.3828	80.0799	67.3828	79.8283	67.3828	79.9894	67.3828	79.9049
68.8477	80.4679	68.8477	80.3742	68.8477	80.5529	68.8477	80.2748	68.8477	80.6264	68.8477	80.1726	68.8477	80.686	68.8477	80.0707	68.8477	80.7293	68.8477	79.9723	68.8477	80.7548	68.8477	79.8802	68.8477	80.7611	68.8477	79.7971	68.8477	80.7479	68.8477	79.7254	68.8477	80.7154	68.8477	79.667	68.8477	80.6649	68.8477	79.6234	68.8477	80.5982	68.8477	79.5957	68.8477	80.518	68.8477	79.5845	68.8477	80.4274	68.8477	79.5899	68.8477	80.3297	68.8477	79.6118	68.8477	80.2283	68.8477	79.6494	68.8477	80.1262	68.8477	79.7018	68.8477	80.0265	68.8477	79.7675	68.8477	79.9319	68.8477	79.8448
71.7773	80.4857	71.7773	80.3883	71.7773	80.5738	71.7773	80.285	71.7773	80.6496	71.7773	80.1794	71.7773	80.7102	71.7773	80.075	71.7773	80.7534	71.7773	79.9751	71.7773	80.7779	71.7773	79.8829	71.7773	80.7827	71.7773	79.8012	71.7773	80.7681	71.7773	79.7324	71.7773	80.7349	71.7773	79.6784	71.7773	80.6849	71.7773	79.6405	71.7773	80.6204	71.7773	79.6195	71.7773	80.5441	71.7773	79.6155	71.7773	80.4589	71.7773	79.6283	71.7773	80.3675	71.7773	79.6571	71.7773	80.2725	71.7773	79.7007	71.7773	80.1765	71.7773	79.7576	71.7773	80.0817	71.7773	79.8262	71.7773	79.9903	71.7773	79.9044
74.707	80.559	74.707	80.4677	74.707	80.6407	74.707	80.3699	74.707	80.7098	74.707	80.2691	74.707	80.7639	74.707	80.1687	74.707	80.8009	74.707	80.0718	74.707	80.8195	74.707	79.9816	74.707	80.819	74.707	79.9009	74.707	80.7997	74.707	79.8319	74.707	80.7623	74.707	79.7765	74.707	80.7088	74.707	79.7359	74.707	80.6415	74.707	79.7108	74.707	80.563	74.707	79.7015	74.707	80.4765	74.707	79.7077	74.707	80.3848	74.707	79.7288	74.707	80.291	74.707	79.7641	74.707	80.1975	74.707	79.8123	74.707	80.1069	74.707	79.8722	74.707	80.0212	74.707	79.9424
77.6367	80.6705	77.6367	80.5838	77.6367	80.7485	77.6367	80.4915	77.6367	80.8148	77.6367	80.3968	77.6367	80.8671	77.6367	80.3032	77.6367	80.9035	77.6367	80.2139	77.6367	80.9228	77.6367	80.1319	77.6367	80.9245	77.6367	80.0597	77.6367	80.9087	77.6367	79.9995	77.6367	80.8765	77.6367	79.9527	77.6367	80.8296	77.6367	79.9203	77.6367	80.77	77.6367	79.9026	77.6367	80.7003	77.6367	79.8996	77.6367	80.6231	77.6367	79.9105	77.6367	80.5411	77.6367	79.9345	77.6367	80.4568	77.6367	79.9707	77.6367	80.3726	77.6367	80.0178	77.6367	80.2905	77.6367	80.0746	77.6367	80.2123	77.6367	80.1399
79.1016	80.6576	79.1016	80.5725	79.1016	80.7338	79.1016	80.4818	79.1016	80.7984	79.1016	80.3887	79.1016	80.8489	79.1016	80.2966	79.1016	80.8836	79.1016	80.2089	79.1016	80.9014	79.1016	80.1285	79.1016	80.9019	79.1016	80.0582	79.1016	80.8856	79.1016	79.9999	79.1016	80.8536	79.1016	79.9553	79.1016	80.8076	79.1016	79.9251	79.1016	80.7499	79.1016	79.9097	79.1016	80.6829	79.1016	79.9087	79.1016	80.6093	79.1016	79.9214	79.1016	80.5315	79.1016	79.9469	79.1016	80.4517	79.1016	79.9837	79.1016	80.372	79.1016	80.0308	79.1016	80.2941	79.1016	80.0866	79.1016	80.2197	79.1016	80.15
82.0313	80.6622	82.0313	80.5794	82.0313	80.7347	82.0313	80.4893	82.0313	80.7941	82.0313	80.3951	82.0313	80.8384	82.0313	80.3004	82.0313	80.866	82.0313	80.2083	82.0313	80.876	82.0313	80.1221	82.0313	80.8684	82.0313	80.0447	82.0313	80.8437	82.0313	79.9783	82.0313	80.8035	82.0313	79.925	82.0313	80.7497	82.0313	79.8859	82.0313	80.6848	82.0313	79.8617	82.0313	80.6116	82.0313	79.8524	82.0313	80.5326	82.0313	79.8576	82.0313	80.4506	82.0313	79.8765	82.0313	80.3677	82.0313	79.9079	82.0313	80.2859	82.0313	79.9505	82.0313	80.2071	82.0313	80.0031	82.0313	80.1327	82.0313	80.0643
84.9609	80.6343	84.9609	80.5506	84.9609	80.708	84.9609	80.4602	84.9609	80.7689	84.9609	80.3663	84.9609	80.8146	84.9609	80.2722	84.9609	80.8434	84.9609	80.1811	84.9609	80.8541	84.9609	80.0958	84.9609	80.8465	84.9609	80.0189	84.9609	80.8211	84.9609	79.9525	84.9609	80.7793	84.9609	79.8983	84.9609	80.7231	84.9609	79.8572	84.9609	80.6551	84.9609	79.83	84.9609	80.578	84.9609	79.8169	84.9609	80.4949	84.9609	79.8177	84.9609	80.4086	84.9609	79.832	84.9609	80.3215	84.9609	79.8592	84.9609	80.2361	84.9609	79.8985	84.9609	80.1543	84.9609	79.9488	84.9609	80.0781	84.9609	80.0091
87.8906	80.5293	87.8906	80.4417	87.8906	80.6075	87.8906	80.3481	87.8906	80.6729	87.8906	80.2525	87.8906	80.7233	87.8906	80.1588	87.8906	80.7567	87.8906	80.0707	87.8906	80.7724	87.8906	79.9915	87.8906	80.7704	87.8906	79.924	87.8906	80.7517	87.8906	79.87	87.8906	80.7178	87.8906	79.8308	87.8906	80.6709	87.8906	79.8068	87.8906	80.6135	87.8906	79.7976	87.8906	80.5481	87.8906	79.8022	87.8906	80.4773	87.8906	79.8195	87.8906	80.4033	87.8906	79.8478	87.8906	80.328	87.8906	79.8859	87.8906	80.2532	87.8906	79.9323	87.8906	80.1804	87.8906	79.9859	87.8906	80.1109	87.8906	80.0458
90.8203	80.4204	90.8203	80.3348	90.8203	80.4977	90.8203	80.2443	90.8203	80.5637	90.8203	80.153	90.8203	80.6162	90.8203	80.0649	90.8203	80.6539	90.8203	79.9841	90.8203	80.6764	90.8203	79.9139	90.8203	80.6839	90.8203	79.8572	90.8203	80.6774	90.8203	79.8158	90.8203	80.6584	90.8203	79.7905	90.8203	80.6283	90.8203	79.7812	90.8203	80.5888	90.8203	79.7869	90.8203	80.5416	90.8203	79.8062	90.8203	80.4879	90.8203	79.8371	90.8203	80.429	90.8203	79.8775	90.8203	80.3663	90.8203	79.9258	90.8203	80.3009	90.8203	79.9802	90.8203	80.2342	90.8203	80.0394	90.8203	80.1676	90.8203	80.1022
95.2148	80.5933	95.2148	80.511	95.2148	80.6596	95.2148	80.4156	95.2148	80.7076	95.2148	80.3108	95.2148	80.7357	95.2148	80.2003	95.2148	80.7432	95.2148	80.0887	95.2148	80.7301	95.2148	79.9804	95.2148	80.6978	95.2148	79.8802	95.2148	80.6485	95.2148	79.7923	95.2148	80.5854	95.2148	79.7206	95.2148	80.5126	95.2148	79.6679	95.2148	80.4342	95.2148	79.6359	95.2148	80.3541	95.2148	79.6248	95.2148	80.2754	95.2148	79.6334	95.2148	80.2001	95.2148	79.6594	95.2148	80.1286	95.2148	79.6994	95.2148	80.0606	95.2148	79.7497	95.2148	79.995	95.2148	79.8068	95.2148	79.9308	95.2148	79.8678
98.1445	80.6766	98.1445	80.5901	98.1445	80.7482	98.1445	80.4919	98.1445	80.8023	98.1445	80.3854	98.1445	80.8371	98.1445	80.2748	98.1445	80.8517	98.1445	80.164	98.1445	80.846	98.1445	80.0571	98.1445	80.8206	98.1445	79.958	98.1445	80.7773	98.1445	79.87	98.1445	80.7183	98.1445	79.7959	98.1445	80.6464	98.1445	79.7381	98.1445	80.565	98.1445	79.6978	98.1445	80.477	98.1445	79.6757	98.1445	80.3856	98.1445	79.6716	98.1445	80.2931	98.1445	79.6846	98.1445	80.2017	98.1445	79.7134	98.1445	80.1129	98.1445	79.7562	98.1445	80.0281	98.1445	79.8109	98.1445	79.9485	98.1445	79.8756
101.074	80.4071	101.074	80.316	101.074	80.4842	101.074	80.2145	101.074	80.5444	101.074	80.1072	101.074	80.5856	101.074	79.9985	101.074	80.6069	101.074	79.8932	101.074	80.6086	101.074	79.7957	101.074	80.5917	101.074	79.7097	101.074	80.5583	101.074	79.6384	101.074	80.511	101.074	79.5838	101.074	80.4531	101.074	79.5472	101.074	80.3873	101.074	79.5288	101.074	80.3165	101.074	79.528	101.074	80.2427	101.074	79.5435	101.074	80.1673	101.074	79.5735	101.074	80.0914	101.074	79.6159	101.074	80.0155	101.074	79.6686	101.074	79.9404	101.074	79.7293	101.074	79.8669	101.074	79.796
105.469	80.6278	105.469	80.5338	105.469	80.7075	105.469	80.4294	105.469	80.7696	105.469	80.3189	105.469	80.8118	105.469	80.207	105.469	80.8327	105.469	80.0984	105.469	80.8321	105.469	79.9973	105.469	80.8109	105.469	79.9079	105.469	80.771	105.469	79.8332	105.469	80.7154	105.469	79.7757	105.469	80.6478	105.469	79.7367	105.469	80.572	105.469	79.7166	105.469	80.4919	105.469	79.7147	105.469	80.4106	105.469	79.7294	105.469	80.3304	105.469	79.7587	105.469	80.2527	105.469	79.8	105.469	80.1779	105.469	79.8506	105.469	80.106	105.469	79.9082	105.469	80.0369	105.469	79.9707
108.398	80.6402	108.398	80.5498	108.398	80.7149	108.398	80.4473	108.398	80.771	108.398	80.3374	108.398	80.8064	108.398	80.2247	108.398	80.8203	108.398	80.114	108.398	80.8132	108.398	80.0102	108.398	80.7864	108.398	79.9174	108.398	80.7423	108.398	79.8393	108.398	80.6842	108.398	79.7785	108.398	80.6158	108.398	79.7364	108.398	80.5408	108.398	79.7137	108.398	80.4625	108.398	79.7096	108.398	80.3836	108.398	79.7227	108.398	80.3061	108.398	79.7505	108.398	80.231	108.398	79.7905	108.398	80.1586	108.398	79.8399	108.398	80.0888	108.398	79.8961	108.398	80.0216	108.398	79.9571
112.793	80.6639	112.793	80.5775	112.793	80.7328	112.793	80.4775	112.793	80.7815	112.793	80.3683	112.793	80.8084	112.793	80.2551	112.793	80.8131	112.793	80.1432	112.793	80.7963	112.793	80.0378	112.793	80.7599	112.793	79.9437	112.793	80.7071	112.793	79.8646	112.793	80.6415	112.793	79.8035	112.793	80.5673	112.793	79.7616	112.793	80.4887	112.793	79.7393	112.793	80.4095	112.793	79.7353	112.793	80.3325	112.793	79.7476	112.793	80.2596	112.793	79.7735	112.793	80.1913	112.793	79.8099	112.793	80.1276	112.793	79.8539	112.793	80.0675	112.793	79.903	112.793	80.0104	112.793	79.9555
117.188	80.5453	117.188	80.4497	117.188	80.6242	117.188	80.3419	117.188	80.683	117.188	80.2269	117.188	80.7198	117.188	80.1106	117.188	80.7338	117.188	79.9987	117.188	80.7261	117.188	79.8965	117.188	80.6987	117.188	79.8086	117.188	80.6549	117.188	79.7384	117.188	80.5988	117.188	79.688	117.188	80.5344	117.188	79.658	117.188	80.4658	117.188	79.648	117.188	80.3959	117.188	79.6561	117.188	80.3268	117.188	79.6801	117.188	80.2594	117.188	79.7169	117.188	80.1936	117.188	79.7638	117.188	80.1291	117.188	79.818	117.188	80.0652	117.188	79.8769	117.188	80.0017	117.188	79.9386
120.117	80.5637	120.117	80.4753	120.117	80.6333	120.117	80.3724	120.117	80.681	120.117	80.2602	120.117	80.7055	120.117	80.1451	120.117	80.7069	120.117	80.0337	120.117	80.6869	120.117	79.9322	120.117	80.6486	120.117	79.8466	120.117	80.5964	120.117	79.7813	120.117	80.5353	120.117	79.7392	120.117	80.4707	120.117	79.721	120.117	80.4074	120.117	79.7256	120.117	80.349	120.117	79.75	120.117	80.2974	120.117	79.7899	120.117	80.2528	120.117	79.8404	120.117	80.2137	120.117	79.8965	120.117	80.1775	120.117	79.9535	120.117	80.1412	120.117	80.008	120.117	80.1019	120.117	80.0577
124.512	80.906	124.512	80.8212	124.512	80.9718	124.512	80.7212	124.512	81.0158	124.512	80.611	124.512	81.0366	124.512	80.4963	124.512	81.0342	124.512	80.383	124.512	81.0102	124.512	80.2771	124.512	80.9674	124.512	80.1841	124.512	80.9097	124.512	80.1085	124.512	80.8419	124.512	80.0536	124.512	80.7692	124.512	80.0208	124.512	80.6963	124.512	80.0099	124.512	80.6272	124.512	80.0192	124.512	80.5643	124.512	80.0453	124.512	80.5085	124.512	80.084	124.512	80.4591	124.512	80.1308	124.512	80.4141	124.512	80.1814	124.512	80.371	124.512	80.2323	124.512	80.3272	124.512	80.2812
128.906	80.8362	128.906	80.7474	128.906	80.904	128.906	80.6418	128.906	80.9482	128.906	80.5247	128.906	80.9671	128.906	80.4022	128.906	80.9612	128.906	80.2809	128.906	80.932	128.906	80.1677	128.906	80.883	128.906	80.0687	128.906	80.8191	128.906	79.9894	128.906	80.7459	128.906	79.9336	128.906	80.67	128.906	79.9033	128.906	80.5971	128.906	79.8982	128.906	80.5318	128.906	79.9162	128.906	80.4765	128.906	79.9533	128.906	80.4311	128.906	80.0043	128.906	80.3932	128.906	80.0634	128.906	80.3589	128.906	80.125	128.906	80.3239	128.906	80.1843	128.906	80.2844	128.906	80.238
133.301	80.8496	133.301	80.7559	133.301	80.9175	133.301	80.6408	133.301	80.9563	133.301	80.5097	133.301	80.9644	133.301	80.369	133.301	80.9415	133.301	80.2256	133.301	80.8893	133.301	80.0865	133.301	80.811	133.301	79.9585	133.301	80.7119	133.301	79.8476	133.301	80.5985	133.301	79.7587	133.301	80.4785	133.301	79.6949	133.301	80.3599	133.301	79.6571	133.301	80.2497	133.301	79.6442	133.301	80.1535	133.301	79.6529	133.301	80.0739	133.301	79.6784	133.301	80.0106	133.301	79.715	133.301	79.9604	133.301	79.7573	133.301	79.9187	133.301	79.8005	133.301	79.8805	133.301	79.8417
139.16	80.8976	139.16	80.8022	139.16	80.9668	139.16	80.6849	139.16	81.0071	139.16	80.5506	139.16	81.0169	139.16	80.4054	139.16	80.9964	139.16	80.2558	139.16	80.9469	139.16	80.1086	139.16	80.8716	139.16	79.9703	139.16	80.7748	139.16	79.8473	139.16	80.6622	139.16	79.7446	139.16	80.5403	139.16	79.6661	139.16	80.4157	139.16	79.6138	139.16	80.295	139.16	79.5873	139.16	80.1836	139.16	79.5844	139.16	80.0851	139.16	79.601	139.16	80.0008	139.16	79.6321	139.16	79.9298	139.16	79.6726	139.16	79.8693	139.16	79.718	139.16	79.8157	139.16	79.7658
143.555	80.8558	143.555	80.7595	143.555	80.928	143.555	80.6437	143.555	80.9728	143.555	80.5141	143.555	80.9886	143.555	80.3771	143.555	80.9755	143.555	80.2394	143.555	80.9353	143.555	80.1076	143.555	80.8714	143.555	79.9876	143.555	80.7884	143.555	79.8847	143.555	80.6919	143.555	79.8025	143.555	80.5878	143.555	79.7434	143.555	80.4821	143.555	79.708	143.555	80.3799	143.555	79.6951	143.555	80.285	143.555	79.7022	143.555	80.2	143.555	79.7256	143.555	80.1254	143.555	79.7608	143.555	80.0603	143.555	79.8036	143.555	80.0026	143.555	79.8505	143.555	79.9497	143.555	79.8993
147.949	80.8552	147.949	80.7632	147.949	80.9225	147.949	80.651	147.949	80.9624	147.949	80.5241	147.949	80.9737	147.949	80.3889	147.949	80.957	147.949	80.2523	147.949	80.9147	147.949	80.1211	147.949	80.8505	147.949	80.0016	147.949	80.7695	147.949	79.8993	147.949	80.6773	147.949	79.8184	147.949	80.5796	147.949	79.7616	147.949	80.4821	147.949	79.7298	147.949	80.3894	147.949	79.7217	147.949	80.3047	147.949	79.7346	147.949	80.2297	147.949	79.7642	147.949	80.1643	147.949	79.8055	147.949	80.1069	147.949	79.8537	147.949	80.0548	147.949	79.9045	147.949	80.005	147.949	79.9552
153.809	80.8265	153.809	80.7366	153.809	80.8895	153.809	80.6237	153.809	80.9233	153.809	80.4931	153.809	80.9274	153.809	80.3512	153.809	80.9032	153.809	80.2054	153.809	80.8539	153.809	80.0633	153.809	80.7839	153.809	79.9327	153.809	80.6993	153.809	79.8205	153.809	80.6064	153.809	79.7323	153.809	80.5119	153.809	79.6721	153.809	80.4213	153.809	79.6411	153.809	80.3387	153.809	79.6384	153.809	80.2662	153.809	79.6606	153.809	80.2036	153.809	79.7023	153.809	80.149	153.809	79.7573	153.809	80.099	153.809	79.8191	153.809	80.05	153.809	79.8822	153.809	79.9985	153.809	79.9427
159.668	80.9053	159.668	80.8223	159.668	80.9604	159.668	80.7149	159.668	80.9857	159.668	80.5881	159.668	80.9805	159.668	80.4478	159.668	80.9462	159.668	80.301	159.668	80.8856	159.668	80.1551	159.668	80.8029	159.668	80.0178	159.668	80.7042	159.668	79.8962	159.668	80.5965	159.668	79.7967	159.668	80.4873	159.668	79.7241	159.668	80.3838	159.668	79.6813	159.668	80.2918	159.668	79.6683	159.668	80.215	159.668	79.6824	159.668	80.1537	159.668	79.7185	159.668	80.1054	159.668	79.7695	159.668	80.0655	159.668	79.8278	159.668	80.0279	159.668	79.8865	159.668	79.9874	159.668	79.9405
165.527	81.0731	165.527	80.9725	165.527	81.1432	165.527	80.8468	165.527	81.1792	165.527	80.7029	165.527	81.1798	165.527	80.5487	165.527	81.1455	165.527	80.3928	165.527	81.0797	165.527	80.2439	165.527	80.9875	165.527	80.1099	165.527	80.8765	165.527	79.9978	165.527	80.7557	165.527	79.9125	165.527	80.6348	165.527	79.8569	165.527	80.523	165.527	79.8317	165.527	80.4276	165.527	79.835	165.527	80.3526	165.527	79.8627	165.527	80.2982	165.527	79.909	165.527	80.2605	165.527	79.9666	165.527	80.2326	165.527	80.028	165.527	80.2068	165.527	80.0863	165.527	80.1762	165.527	80.1364
171.387	81.1981	171.387	81.1035	171.387	81.2582	171.387	80.9792	171.387	81.2813	171.387	80.8315	171.387	81.2664	171.387	80.668	171.387	81.2146	171.387	80.4974	171.387	81.1293	171.387	80.3289	171.387	81.0155	171.387	80.172	171.387	80.8805	171.387	80.0351	171.387	80.7332	171.387	79.9254	171.387	80.5834	171.387	79.8475	171.387	80.4417	171.387	79.803	171.387	80.3172	171.387	79.7902	171.387	80.2168	171.387	79.8043	171.387	80.1432	171.387	79.8378	171.387	80.0945	171.387	79.8821	171.387	80.0647	171.387	79.9287	171.387	80.0452	171.387	79.9705	171.387	80.0271	171.387	80.0034
177.246	81.1029	177.246	81	177.246	81.1745	177.246	80.8708	177.246	81.2113	177.246	80.7221	177.246	81.2119	177.246	80.5615	177.246	81.1771	177.246	80.3972	177.246	81.1093	177.246	80.2372	177.246	81.0128	177.246	80.0889	177.246	80.8935	177.246	79.9586	177.246	80.758	177.246	79.8511	177.246	80.614	177.246	79.7692	177.246	80.4695	177.246	79.7143	177.246	80.3322	177.246	79.6855	177.246	80.2089	177.246	79.6803	177.246	80.1045	177.246	79.694	177.246	80.0209	177.246	79.7212	177.246	79.9567	177.246	79.756	177.246	79.9075	177.246	79.7932	177.246	79.8671	177.246	79.8301
183.105	80.9179	183.105	80.8147	183.105	80.9862	183.105	80.6818	183.105	81.0165	183.105	80.5267	183.105	81.0081	183.105	80.3581	183.105	80.9632	183.105	80.1858	183.105	80.8862	183.105	80.02	183.105	80.7841	183.105	79.8703	183.105	80.6657	183.105	79.745	183.105	80.5408	183.105	79.6502	183.105	80.4189	183.105	79.5892	183.105	80.308	183.105	79.5621	183.105	80.2136	183.105	79.5661	183.105	80.1375	183.105	79.5955	183.105	80.0785	183.105	79.6432	183.105	80.0325	183.105	79.7015	183.105	79.9942	183.105	79.7629	183.105	79.958	183.105	79.8216	183.105	79.9191	183.105	79.8741
188.965	80.968	188.965	80.8641	188.965	81.0352	188.965	80.7286	188.965	81.0627	188.965	80.5688	188.965	81.0499	188.965	80.3932	188.965	80.9985	188.965	80.2117	188.965	80.9126	188.965	80.0349	188.965	80.7989	188.965	79.8729	188.965	80.666	188.965	79.7351	188.965	80.5249	188.965	79.6287	188.965	80.3871	188.965	79.5585	188.965	80.2639	188.965	79.5261	188.965	80.164	188.965	79.5299	188.965	80.0918	188.965	79.5651	188.965	80.0457	188.965	79.6241	188.965	80.019	188.965	79.6975	188.965	80.0017	188.965	79.7753	188.965	79.9828	188.965	79.8481	188.965	79.9534	188.965	79.9087
196.289	81.1822	196.289	81.0769	196.289	81.2492	196.289	80.9386	196.289	81.2743	196.289	80.7745	196.289	81.2559	196.289	80.5934	196.289	81.1944	196.289	80.4051	196.289	81.0921	196.289	80.2202	196.289	80.9536	196.289	80.0488	196.289	80.7863	196.289	79.9006	196.289	80.6001	196.289	79.7828	196.289	80.4081	196.289	79.7	196.289	80.2255	196.289	79.6533	196.289	80.0674	196.289	79.6402	196.289	79.9461	196.289	79.6547	196.289	79.8675	196.289	79.6886	196.289	79.8288	196.289	79.7319	196.289	79.8196	196.289	79.7746	196.289	79.8254	196.289	79.8083	196.289	79.8316	196.289	79.8275
203.613	81.0977	203.613	81.0141	203.613	81.1419	203.613	80.8949	203.613	81.1452	203.613	80.7463	203.613	81.1089	203.613	80.576	203.613	81.0366	203.613	80.393	203.613	80.9341	203.613	80.2067	203.613	80.8083	203.613	80.0269	203.613	80.6671	203.613	79.8628	203.613	80.5184	203.613	79.7227	203.613	80.3701	203.613	79.6133	203.613	80.2297	203.613	79.5389	203.613	80.1039	203.613	79.5009	203.613	79.998	203.613	79.4966	203.613	79.9149	203.613	79.5201	203.613	79.8539	203.613	79.5625	203.613	79.8105	203.613	79.6137	203.613	79.7772	203.613	79.6646	203.613	79.7456	203.613	79.7091
210.938	81.0951	210.938	80.996	210.938	81.1537	210.938	80.8619	210.938	81.1687	210.938	80.7003	210.938	81.139	210.938	80.5205	210.938	81.0663	210.938	80.3328	210.938	80.9543	210.938	80.148	210.938	80.809	210.938	79.9768	210.938	80.6387	210.938	79.8283	210.938	80.4535	210.938	79.7099	210.938	80.2661	210.938	79.6258	210.938	80.0904	210.938	79.5772	210.938	79.9409	210.938	79.5621	210.938	79.8289	210.938	79.5752	210.938	79.76	210.938	79.6086	210.938	79.7308	210.938	79.6526	210.938	79.7303	210.938	79.6969	210.938	79.7429	210.938	79.732	210.938	79.7536	210.938	79.7514
218.262	81.1149	218.262	81.031	218.262	81.1597	218.262	80.9122	218.262	81.1637	218.262	80.7648	218.262	81.128	218.262	80.5964	218.262	81.056	218.262	80.4159	218.262	80.9533	218.262	80.2326	218.262	80.8269	218.262	80.0559	218.262	80.6847	218.262	79.8948	218.262	80.5342	218.262	79.7574	218.262	80.3829	218.262	79.6504	218.262	80.2382	218.262	79.578	218.262	80.1075	218.262	79.5417	218.262	79.9976	218.262	79.539	218.262	79.9135	218.262	79.5637	218.262	79.8557	218.262	79.6068	218.262	79.8197	218.262	79.6576	218.262	79.7961	218.262	79.7061	218.262	79.7743	218.262	79.7456
225.586	81.1249	225.586	81.0219	225.586	81.1883	225.586	80.8855	225.586	81.208	225.586	80.7236	225.586	81.1828	225.586	80.5456	225.586	81.1142	225.586	80.3608	225.586	81.0067	225.586	80.1787	225.586	80.8673	225.586	80.0083	225.586	80.7048	225.586	79.8576	225.586	80.5299	225.586	79.7336	225.586	80.3546	225.586	79.6415	225.586	80.1911	225.586	79.5846	225.586	80.0514	225.586	79.5632	225.586	79.9448	225.586	79.574	225.586	79.8753	225.586	79.6102	225.586	79.8398	225.586	79.6619	225.586	79.8283	225.586	79.7179	225.586	79.8268	225.586	79.7675	225.586	79.8216	225.586	79.803
232.91	81.1385	232.91	81.0345	232.91	81.1963	232.91	80.891	232.91	81.2046	232.91	80.717	232.91	81.1638	232.91	80.5234	232.91	81.0778	232.91	80.3217	232.91	80.9538	232.91	80.1235	232.91	80.8015	232.91	79.9395	232.91	80.6311	232.91	79.7791	232.91	80.4527	232.91	79.6497	232.91	80.2757	232.91	79.5562	232.91	80.1088	232.91	79.5004	232.91	79.961	232.91	79.4809	232.91	79.841	232.91	79.4923	232.91	79.7552	232.91	79.5262	232.91	79.705	232.91	79.5719	232.91	79.6848	232.91	79.6181	232.91	79.6826	232.91	79.6552	232.91	79.6841	232.91	79.6772
241.699	81.1318	241.699	81.0301	241.699	81.1898	241.699	80.8911	241.699	81.2007	241.699	80.7232	241.699	81.1644	241.699	80.5364	241.699	81.0842	241.699	80.3415	241.699	80.966	241.699	80.1487	241.699	80.8182	241.699	79.9678	241.699	80.6505	241.699	79.8069	241.699	80.4728	241.699	79.673	241.699	80.295	241.699	79.5709	241.699	80.1267	241.699	79.5032	241.699	79.9771	241.699	79.47	241.699	79.8544	241.699	79.468	241.699	79.7639	241.699	79.4905	241.699	79.7064	241.699	79.5285	241.699	79.6762	241.699	79.5715	241.699	79.6627	241.699	79.6098	241.699	79.6532	241.699	79.6373
250.488	81.0911	250.488	80.9742	250.488	81.1586	250.488	80.8153	250.488	81.1729	250.488	80.6246	250.488	81.135	250.488	80.4142	250.488	81.0502	250.488	80.1973	250.488	80.9281	250.488	79.9865	250.488	80.7812	250.488	79.7939	250.488	80.623	250.488	79.6293	250.488	80.4656	250.488	79.5008	250.488	80.3179	250.488	79.413	250.488	80.185	250.488	79.3676	250.488	80.0696	250.488	79.3622	250.488	79.9732	250.488	79.3908	250.488	79.8965	250.488	79.4442	250.488	79.839	250.488	79.511	250.488	79.7972	250.488	79.5802	250.488	79.7645	250.488	79.6428	250.488	79.7326	250.488	79.6936
259.277	81.2426	259.277	81.1377	259.277	81.2977	259.277	80.992	259.277	81.2981	259.277	80.8167	259.277	81.2436	259.277	80.6247	259.277	81.1388	259.277	80.4283	259.277	80.994	259.277	80.2382	259.277	80.8237	259.277	80.0622	259.277	80.6453	259.277	79.9051	259.277	80.4762	259.277	79.7693	259.277	80.3296	259.277	79.6571	259.277	80.2127	259.277	79.5714	259.277	80.1256	259.277	79.5164	259.277	80.0633	259.277	79.4963	259.277	80.0184	259.277	79.5123	259.277	79.9826	259.277	79.5602	259.277	79.948	259.277	79.6307	259.277	79.9072	259.277	79.7108	259.277	79.8547	259.277	79.7883
268.066	80.883	268.066	80.7746	268.066	80.9431	268.066	80.629	268.066	80.9475	268.066	80.4601	268.066	80.8939	268.066	80.283	268.066	80.7855	268.066	80.1123	268.066	80.6317	268.066	79.9603	268.066	80.4482	268.066	79.836	268.066	80.2557	268.066	79.7435	268.066	80.0776	268.066	79.6827	268.066	79.9355	268.066	79.6503	268.066	79.8443	268.066	79.6416	268.066	79.8076	268.066	79.6519	268.066	79.8176	268.066	79.6782	268.066	79.8575	268.066	79.7182	268.066	79.9069	268.066	79.7695	268.066	79.9477	268.066	79.8273	268.066	79.9679	268.066	79.8846	268.066	79.9624	268.066	79.9325
276.855	80.7543	276.855	80.6381	276.855	80.8157	276.855	80.4762	276.855	80.8176	276.855	80.282	276.855	80.7594	276.855	80.0723	276.855	80.6445	276.855	79.8656	276.855	80.4802	276.855	79.6808	276.855	80.278	276.855	79.5333	276.855	80.0539	276.855	79.4336	276.855	79.8284	276.855	79.3848	276.855	79.6261	276.855	79.3831	276.855	79.4722	276.855	79.4194	276.855	79.3871	276.855	79.4818	276.855	79.3785	276.855	79.5586	276.855	79.4371	276.855	79.6394	276.855	79.5383	276.855	79.7155	276.855	79.651	276.855	79.779	276.855	79.7476	276.855	79.8216	276.855	79.8109	276.855	79.8346
287.109	81.0351	287.109	80.9403	287.109	81.0653	287.109	80.7917	287.109	81.025	287.109	80.6044	287.109	80.9135	287.109	80.3969	287.109	80.7355	287.109	80.1887	287.109	80.5018	287.109	79.9984	287.109	80.2294	287.109	79.8404	287.109	79.941	287.109	79.7236	287.109	79.6642	287.109	79.6511	287.109	79.4284	287.109	79.621	287.109	79.2607	287.109	79.6285	287.109	79.1806	287.109	79.6668	287.109	79.1939	287.109	79.7276	287.109	79.2893	287.109	79.8008	287.109	79.4397	287.109	79.8741	287.109	79.6098	287.109	79.933	287.109	79.7658	287.109	79.9622	287.109	79.8827	287.109	79.9483
297.363	81.0466	297.363	80.8946	297.363	81.1209	297.363	80.6759	297.363	81.1124	297.363	80.4073	297.363	81.0214	297.363	80.1116	297.363	80.8536	297.363	79.8158	297.363	80.6195	297.363	79.5479	297.363	80.3344	297.363	79.3316	297.363	80.0176	297.363	79.1816	297.363	79.6927	297.363	79.1007	297.363	79.387	297.363	79.0815	297.363	79.1303	297.363	79.1111	297.363	78.9515	297.363	79.1751	297.363	78.8713	297.363	79.2604	297.363	78.8934	297.363	79.3543	297.363	78.9995	297.363	79.4429	297.363	79.1531	297.363	79.5105	297.363	79.3124	297.363	79.5407	297.363	79.4417	297.363	79.5198
307.617	81.1325	307.617	80.9586	307.617	81.233	307.617	80.7218	307.617	81.2539	307.617	80.4371	307.617	81.1936	307.617	80.124	307.617	81.056	307.617	79.8071	307.617	80.8502	307.617	79.5144	307.617	80.5901	307.617	79.2743	307.617	80.2927	307.617	79.1088	307.617	79.9781	307.617	79.0276	307.617	79.6688	307.617	79.0258	307.617	79.3914	307.617	79.087	307.617	79.1758	307.617	79.1896	307.617	79.0499	307.617	79.3125	307.617	79.0278	307.617	79.4367	307.617	79.1006	307.617	79.5449	307.617	79.2365	307.617	79.6202	307.617	79.3924	307.617	79.6479	307.617	79.5286	307.617	79.6178
319.336	81.0093	319.336	80.8487	319.336	81.0963	319.336	80.6254	319.336	81.1029	319.336	80.354	319.336	81.0274	319.336	80.0512	319.336	80.8744	319.336	79.737	319.336	80.6548	319.336	79.4339	319.336	80.3856	319.336	79.1665	319.336	80.0875	319.336	78.9593	319.336	79.7816	319.336	78.8307	319.336	79.4874	319.336	78.788	319.336	79.2241	319.336	78.8253	319.336	79.0137	319.336	78.9252	319.336	78.8822	319.336	79.0647	319.336	78.8514	319.336	79.2188	319.336	78.9235	319.336	79.3622	319.336	79.0719	319.336	79.4704	319.336	79.2487	319.336	79.5213	319.336	79.4035	319.336	79.4998
329.59	81.0694	329.59	80.8866	329.59	81.1693	329.59	80.6334	329.59	81.1792	329.59	80.3277	329.59	81.0972	329.59	79.9921	329.59	80.9272	329.59	79.6524	329.59	80.68	329.59	79.3344	329.59	80.3737	329.59	79.0599	329.59	80.0338	329.59	78.844	329.59	79.6895	329.59	78.6936	329.59	79.3685	329.59	78.608	329.59	79.0915	329.59	78.5813	329.59	78.8713	329.59	78.6043	329.59	78.7167	329.59	78.6654	329.59	78.6348	329.59	78.75	329.59	78.6272	329.59	78.8394	329.59	78.6832	329.59	78.9119	329.59	78.776	329.59	78.9473	329.59	78.8698	329.59	78.9329
341.309	81.1561	341.309	80.9638	341.309	81.2683	341.309	80.7011	341.309	81.2959	341.309	80.3835	341.309	81.2389	341.309	80.0324	341.309	81.1023	341.309	79.6746	341.309	80.8954	341.309	79.3404	341.309	80.632	341.309	79.0584	341.309	80.3295	341.309	78.8498	341.309	80.0073	341.309	78.7229	341.309	79.6864	341.309	78.6721	341.309	79.3897	341.309	78.6825	341.309	79.1415	341.309	78.7363	341.309	78.9656	341.309	78.8179	341.309	78.8778	341.309	78.9141	341.309	78.8766	341.309	79.0116	341.309	78.9397	341.309	79.0946	341.309	79.0303	341.309	79.1461	341.309	79.1103	341.309	79.1527
353.027	81.0956	353.027	80.8943	353.027	81.1898	353.027	80.5978	353.027	81.1713	353.027	80.2245	353.027	81.0411	353.027	79.8006	353.027	80.8079	353.027	79.3601	353.027	80.4896	353.027	78.9435	353.027	80.1139	353.027	78.591	353.027	79.7174	353.027	78.3331	353.027	79.3414	353.027	78.1803	353.027	79.0236	353.027	78.1227	353.027	78.7885	353.027	78.1379	353.027	78.6427	353.027	78.2029	353.027	78.5775	353.027	78.3011	353.027	78.576	353.027	78.4205	353.027	78.6188	353.027	78.5484	353.027	78.6854	353.027	78.6673	353.027	78.753	353.027	78.7571	353.027	78.7982	353.027	78.8024
366.211	81.4326	366.211	81.2102	366.211	81.5529	366.211	80.8963	366.211	81.5642	366.211	80.506	366.211	81.4635	366.211	80.0597	366.211	81.2532	366.211	79.585	366.211	80.9419	366.211	79.1179	366.211	80.5463	366.211	78.7	366.211	80.092	366.211	78.3709	366.211	79.6139	366.211	78.1557	366.211	79.1545	366.211	78.0554	366.211	78.7602	366.211	78.0489	366.211	78.4732	366.211	78.1052	366.211	78.3182	366.211	78.1969	366.211	78.2908	366.211	78.3056	366.211	78.3571	366.211	78.4187	366.211	78.4666	366.211	78.5239	366.211	78.5709	366.211	78.6057	366.211	78.636	366.211	78.6472
379.395	81.7774	379.395	81.5454	379.395	81.9135	379.395	81.2293	379.395	81.9462	379.395	80.8443	379.395	81.8727	379.395	80.4101	379.395	81.6953	379.395	79.9515	379.395	81.4212	379.395	79.5001	379.395	81.0619	379.395	79.0924	379.395	80.6324	379.395	78.7636	379.395	80.1525	379.395	78.5372	379.395	79.6505	379.395	78.4171	379.395	79.1709	379.395	78.389	379.395	78.7777	379.395	78.4308	379.395	78.5389	379.395	78.5234	379.395	78.49	379.395	78.6531	379.395	78.6031	379.395	78.8054	379.395	78.7984	379.395	78.9581	379.395	78.988	379.395	79.0805	379.395	79.1102	379.395	79.1394
392.578	81.4687	392.578	81.2534	392.578	81.5883	392.578	80.9538	392.578	81.6052	392.578	80.5857	392.578	81.5174	392.578	80.1699	392.578	81.3291	392.578	79.7327	392.578	81.0514	392.578	79.3065	392.578	80.7026	392.578	78.9274	392.578	80.3062	392.578	78.629	392.578	79.8865	392.578	78.4342	392.578	79.4657	392.578	78.3478	392.578	79.0651	392.578	78.3567	392.578	78.7131	392.578	78.4367	392.578	78.4509	392.578	78.5613	392.578	78.3238	392.578	78.7061	392.578	78.3512	392.578	78.8481	392.578	78.5029	392.578	78.9621	392.578	78.7077	392.578	79.0207	392.578	78.8902	392.578	79.0001
405.762	81.187	405.762	80.9583	405.762	81.3205	405.762	80.6472	405.762	81.3518	405.762	80.2738	405.762	81.2777	405.762	79.8669	405.762	81.099	405.762	79.4626	405.762	80.821	405.762	79.0988	405.762	80.4555	405.762	78.8058	405.762	80.0232	405.762	78.5974	405.762	79.5539	405.762	78.4671	405.762	79.0857	405.762	78.3952	405.762	78.6612	405.762	78.3613	405.762	78.322	405.762	78.3558	405.762	78.1008	405.762	78.3812	405.762	78.0148	405.762	78.4413	405.762	78.0577	405.762	78.5279	405.762	78.1965	405.762	78.614	405.762	78.3771	405.762	78.6623	405.762	78.5403	405.762	78.6413
420.41	81.4057	420.41	81.1855	420.41	81.5013	420.41	80.8449	420.41	81.4741	420.41	80.3947	420.41	81.3316	420.41	79.8573	420.41	81.0876	420.41	79.2748	420.41	80.7611	420.41	78.7151	420.41	80.3712	420.41	78.2652	420.41	79.9323	420.41	77.9992	420.41	79.4524	420.41	77.9345	420.41	78.9413	420.41	78.018	420.41	78.4263	420.41	78.1602	420.41	77.9656	420.41	78.2848	420.41	77.6385	420.41	78.3554	420.41	77.5026	420.41	78.3741	420.41	77.5523	420.41	78.3632	420.41	77.7216	420.41	78.3406	420.41	77.9277	420.41	78.3037	420.41	78.1079	420.41	78.2328
435.059	81.2513	435.059	81.0609	435.059	81.3234	435.059	80.7549	435.059	81.2771	435.059	80.3399	435.059	81.1165	435.059	79.83	435.059	80.8526	435.059	79.2532	435.059	80.5066	435.059	78.6615	435.059	80.1106	435.059	78.1378	435.059	79.7028	435.059	77.7851	435.059	79.3162	435.059	77.68	435.059	78.9675	435.059	77.8168	435.059	78.6568	435.059	78.104	435.059	78.3816	435.059	78.423	435.059	78.1553	435.059	78.6867	435.059	78.0123	435.059	78.857	435.059	77.9888	435.059	78.9323	435.059	78.0916	435.059	78.9259	435.059	78.2846	435.059	78.8484	435.059	78.5071	435.059	78.7052
451.172	81.4429	451.172	81.2377	451.172	81.5169	451.172	80.9029	451.172	81.4588	451.172	80.4423	451.172	81.2694	451.172	79.864	451.172	80.9538	451.172	79.1852	451.172	80.525	451.172	78.4412	451.172	80.0073	451.172	77.6974	451.172	79.4378	451.172	77.0609	451.172	78.8633	451.172	76.6659	451.172	78.3323	451.172	76.609	451.172	77.886	451.172	76.8714	451.172	77.5549	451.172	77.3249	451.172	77.3622	451.172	77.8186	451.172	77.3264	451.172	78.2451	451.172	77.4511	451.172	78.5495	451.172	77.7085	451.172	78.7111	451.172	78.0362	451.172	78.726	451.172	78.3561	451.172	78.6006
465.82	81.4255	465.82	81.2169	465.82	81.5032	465.82	80.8807	465.82	81.4505	465.82	80.4243	465.82	81.2707	465.82	79.8618	465.82	80.9712	465.82	79.2158	465.82	80.5659	465.82	78.5202	465.82	80.0755	465.82	77.8253	465.82	79.528	465.82	77.2048	465.82	78.9563	465.82	76.7516	465.82	78.3955	465.82	76.5465	465.82	77.8823	465.82	76.6035	465.82	77.4548	465.82	76.8497	465.82	77.1485	465.82	77.1701	465.82	76.9872	465.82	77.4673	465.82	76.9738	465.82	77.684	465.82	77.0868	465.82	77.7952	465.82	77.2828	465.82	77.7944	465.82	77.5032	465.82	77.6888
483.398	81.1864	483.398	80.922	483.398	81.3214	483.398	80.5327	483.398	81.3255	483.398	80.0289	483.398	81.1992	483.398	79.4298	483.398	80.9451	483.398	78.7661	483.398	80.5694	483.398	78.0823	483.398	80.0859	483.398	77.4355	483.398	79.5206	483.398	76.8908	483.398	78.9143	483.398	76.5114	483.398	78.3208	483.398	76.3416	483.398	77.7985	483.398	76.3868	483.398	77.3961	483.398	76.6059	483.398	77.1399	483.398	76.9265	483.398	77.0331	483.398	77.2705	483.398	77.0646	483.398	77.5716	483.398	77.2111	483.398	77.7799	483.398	77.4288	483.398	77.8639	483.398	77.6529	483.398	77.8148
499.512	81.1826	499.512	80.9966	499.512	81.2383	499.512	80.6775	499.512	81.1661	499.512	80.2242	499.512	80.9695	499.512	79.6417	499.512	80.6571	499.512	78.9486	499.512	80.2471	499.512	78.1865	499.512	79.7697	499.512	77.4286	499.512	79.2624	499.512	76.7799	499.512	78.7601	499.512	76.3499	499.512	78.2876	499.512	76.1957	499.512	77.8606	499.512	76.2806	499.512	77.4936	499.512	76.5006	499.512	77.2035	499.512	76.7518	499.512	77.0055	499.512	76.9711	499.512	76.9074	499.512	77.1336	499.512	76.9065	499.512	77.2304	499.512	76.9842	499.512	77.2545	499.512	77.1008	499.512	77.205
517.09	81.4393	517.09	81.2882	517.09	81.4165	517.09	80.9562	517.09	81.2271	517.09	80.4373	517.09	80.8814	517.09	79.7291	517.09	80.3968	517.09	78.8395	517.09	79.8	517.09	77.7978	517.09	79.1298	517.09	76.6737	517.09	78.4379	517.09	75.6057	517.09	77.7901	517.09	74.8123	517.09	77.2614	517.09	74.5034	517.09	76.9159	517.09	74.6991	517.09	76.7709	517.09	75.1971	517.09	76.7764	517.09	75.7555	517.09	76.8412	517.09	76.2276	517.09	76.8885	517.09	76.5629	517.09	76.894	517.09	76.7645	517.09	76.8799	517.09	76.8576	517.09	76.8755	517.09	76.8796
536.133	80.4539	536.133	80.4369	536.133	80.3504	536.133	80.2767	536.133	80.1469	536.133	79.9511	536.133	79.8571	536.133	79.4417	536.133	79.485	536.133	78.7368	536.133	79.029	536.133	77.8376	536.133	78.491	536.133	76.77	536.133	77.8847	536.133	75.613	536.133	77.2394	536.133	74.5441	536.133	76.6072	536.133	73.8394	536.133	76.0805	536.133	73.6983	536.133	75.7894	536.133	74.0275	536.133	75.8227	536.133	74.555	536.133	76.122	536.133	75.0811	536.133	76.5047	536.133	75.5395	536.133	76.7947	536.133	75.9373	536.133	76.9022	536.133	76.2924	536.133	76.8221	536.133	76.5999
555.176	80.3379	555.176	80.2046	555.176	80.4111	555.176	80.0214	555.176	80.3977	555.176	79.7773	555.176	80.2641	555.176	79.4416	555.176	79.9821	555.176	78.9718	555.176	79.5421	555.176	78.3258	555.176	78.9587	555.176	77.4786	555.176	78.2613	555.176	76.4483	555.176	77.4711	555.176	75.344	555.176	76.5887	555.176	74.4092	555.176	75.6308	555.176	73.9363	555.176	74.7348	555.176	74.0034	555.176	74.2361	555.176	74.409	555.176	74.4271	555.176	74.9255	555.176	75.1383	555.176	75.4458	555.176	75.9241	555.176	75.9366	555.176	76.4825	555.176	76.3615	555.176	76.7173	555.176	76.6515
574.219	80.6128	574.219	80.3282	574.219	80.7768	574.219	79.9549	574.219	80.7981	574.219	79.5323	574.219	80.6632	574.219	79.0965	574.219	80.3672	574.219	78.6599	574.219	79.9182	574.219	78.1979	574.219	79.3411	574.219	77.6579	574.219	78.6768	574.219	76.9948	574.219	77.9691	574.219	76.2276	574.219	77.2444	574.219	75.5016	574.219	76.5023	574.219	75.0823	574.219	75.7447	574.219	75.1566	574.219	75.053	574.219	75.619	574.219	74.6478	574.219	76.2022	574.219	74.7619	574.219	76.7101	574.219	75.3505	574.219	77.0552	574.219	76.1008	574.219	77.197	574.219	76.7268	574.219	77.0978
594.727	80.5016	594.727	80.3232	594.727	80.5407	594.727	80.0068	594.727	80.4419	594.727	79.5576	594.727	80.2087	594.727	78.9865	594.727	79.8481	594.727	78.3121	594.727	79.3752	594.727	77.5602	594.727	78.8169	594.727	76.7587	594.727	78.2076	594.727	75.9358	594.727	77.575	594.727	75.1412	594.727	76.929	594.727	74.493	594.727	76.2698	594.727	74.1795	594.727	75.6168	594.727	74.3164	594.727	75.0418	594.727	74.7903	594.727	74.6719	594.727	75.3557	594.727	74.6223	594.727	75.8241	594.727	74.8897	594.727	76.1119	594.727	75.3324	594.727	76.1967	594.727	75.7704	594.727	76.0775
615.234	81.3571	615.234	81.254	615.234	81.314	615.234	80.9924	615.234	81.1299	615.234	80.5598	615.234	80.8051	615.234	79.9562	615.234	80.3442	615.234	79.205	615.234	79.7657	615.234	78.3517	615.234	79.1007	615.234	77.4445	615.234	78.3784	615.234	76.5101	615.234	77.6111	615.234	75.5588	615.234	76.8007	615.234	74.65	615.234	75.9734	615.234	73.9793	615.234	75.2169	615.234	73.8119	615.234	74.6654	615.234	74.186	615.234	74.4173	615.234	74.8291	615.234	74.4773	615.234	75.4415	615.234	74.7788	615.234	75.8613	615.234	75.2145	615.234	76.0317	615.234	75.6476	615.234	75.9485
637.207	81.6298	637.207	81.479	637.207	81.6669	637.207	81.2106	637.207	81.5887	637.207	80.821	637.207	81.3874	637.207	80.3143	637.207	81.0549	637.207	79.7083	637.207	80.5909	637.207	79.0297	637.207	80.0094	637.207	78.2965	637.207	79.3353	637.207	77.4995	637.207	78.5918	637.207	76.6133	637.207	77.7932	637.207	75.6669	637.207	76.9655	637.207	74.8493	637.207	76.1904	637.207	74.4889	637.207	75.6177	637.207	74.7279	637.207	75.3791	637.207	75.3203	637.207	75.4691	637.207	75.9327	637.207	75.7634	637.207	76.3821	637.207	76.1233	637.207	76.6113	637.207	76.4375	637.207	76.6198
659.18	81.1387	659.18	80.9811	659.18	81.1573	659.18	80.6907	659.18	81.0272	659.18	80.2748	659.18	80.7408	659.18	79.7507	659.18	80.309	659.18	79.1489	659.18	79.7776	659.18	78.5033	659.18	79.2237	659.18	77.8339	659.18	78.7195	659.18	77.1378	659.18	78.278	659.18	76.4077	659.18	77.8312	659.18	75.6806	659.18	77.2818	659.18	75.0809	659.18	76.6055	659.18	74.7895	659.18	75.9404	659.18	74.9083	659.18	75.56	659.18	75.359	659.18	75.6345	659.18	75.9481	659.18	76.0399	659.18	76.4894	659.18	76.5138	659.18	76.8571	659.18	76.8613	659.18	76.9862
682.617	81.1406	682.617	80.929	682.617	81.1606	682.617	80.5407	682.617	80.9844	682.617	79.9976	682.617	80.621	682.617	79.3235	682.617	80.0981	682.617	78.5434	682.617	79.4677	682.617	77.6957	682.617	78.8042	682.617	76.8494	682.617	78.1841	682.617	76.0912	682.617	77.6398	682.617	75.4696	682.617	77.1308	682.617	74.9701	682.617	76.5887	682.617	74.6022	682.617	76.01	682.617	74.4998	682.617	75.5038	682.617	74.8153	682.617	75.2367	682.617	75.4784	682.617	75.3208	682.617	76.2292	682.617	75.7364	682.617	76.8365	682.617	76.3269	682.617	77.1719	682.617	76.8692	682.617	77.1806
707.52	81.1263	707.52	80.8491	707.52	81.207	707.52	80.3727	707.52	81.0945	707.52	79.7185	707.52	80.7801	707.52	78.9483	707.52	80.2558	707.52	78.1502	707.52	79.546	707.52	77.3879	707.52	78.732	707.52	76.6447	707.52	77.9291	707.52	75.8207	707.52	77.2131	707.52	74.8258	707.52	76.5592	707.52	73.7706	707.52	75.8756	707.52	73.1145	707.52	75.1291	707.52	73.2941	707.52	74.4797	707.52	74.1088	707.52	74.2692	707.52	75.088	707.52	74.6926	707.52	75.9742	707.52	75.522	707.52	76.6671	707.52	76.3664	707.52	77.1008	707.52	76.9655	707.52	77.2138
732.422	81.0801	732.422	80.8443	732.422	81.13	732.422	80.4286	732.422	80.9822	732.422	79.842	732.422	80.6246	732.422	79.1159	732.422	80.0638	732.422	78.3199	732.422	79.3436	732.422	77.5517	732.422	78.5473	732.422	76.881	732.422	77.7783	732.422	76.2728	732.422	77.1126	732.422	75.5819	732.422	76.5291	732.422	74.688	732.422	75.9087	732.422	73.7176	732.422	75.1579	732.422	73.1369	732.422	74.3557	732.422	73.3468	732.422	73.8218	732.422	74.1868	732.422	73.9637	732.422	75.2378	732.422	74.8045	732.422	76.1901	732.422	75.8758	732.422	76.838	732.422	76.6982	732.422	77.0331
757.324	81.3011	757.324	80.9835	757.324	81.3891	757.324	80.4521	757.324	81.2494	757.324	79.7597	757.324	80.8878	757.324	78.995	757.324	80.3162	757.324	78.2499	757.324	79.5671	757.324	77.5673	757.324	78.7006	757.324	76.9133	757.324	77.8022	757.324	76.1952	757.324	76.9704	757.324	75.3039	757.324	76.2589	757.324	74.195	757.324	75.6043	757.324	73.0554	757.324	74.8787	757.324	72.4457	757.324	74.0694	757.324	72.8547	757.324	73.4429	757.324	73.9713	757.324	73.4681	757.324	75.1686	757.324	74.2536	757.324	76.0944	757.324	75.3302	757.324	76.6106	757.324	76.2086	757.324	76.6553
785.156	81.3215	785.156	81.017	785.156	81.4492	785.156	80.5805	785.156	81.3629	785.156	80.0734	785.156	81.0384	785.156	79.5669	785.156	80.4865	785.156	79.1037	785.156	79.7604	785.156	78.6576	785.156	78.9339	785.156	78.1356	785.156	78.0731	785.156	77.4033	785.156	77.2261	785.156	76.2902	785.156	76.4115	785.156	74.6179	785.156	75.6158	785.156	72.3869	785.156	74.8116	785.156	70.3978	785.156	73.9517	785.156	70.3476	785.156	72.9906	785.156	71.8659	785.156	72.1437	785.156	73.4571	785.156	72.1747	785.156	74.6441	785.156	73.3358	785.156	75.317	785.156	74.6424	785.156	75.3501
811.523	80.2423	811.523	80.1623	811.523	80.2457	811.523	80.0192	811.523	80.1538	811.523	79.8208	811.523	79.9408	811.523	79.5594	811.523	79.5737	811.523	79.202	811.523	79.0176	811.523	78.7085	811.523	78.253	811.523	78.08	811.523	77.3214	811.523	77.3638	811.523	76.3839	811.523	76.5471	811.523	75.6687	811.523	75.4646	811.523	75.2318	811.523	73.9461	811.523	74.8859	811.523	72.1954	811.523	74.4612	811.523	71.1692	811.523	73.9813	811.523	71.6459	811.523	73.6247	811.523	72.8427	811.523	73.5815	811.523	73.8685	811.523	73.8764	811.523	74.4462	811.523	74.3011	811.523	74.5605
840.82	80.332	840.82	80.0965	840.82	80.4532	840.82	79.8087	840.82	80.439	840.82	79.5523	840.82	80.2957	840.82	79.3741	840.82	80.033	840.82	79.2327	840.82	79.6429	840.82	79.0177	840.82	79.0869	840.82	78.6317	840.82	78.3072	840.82	78.0529	840.82	77.2825	840.82	77.2945	840.82	76.1187	840.82	76.2956	840.82	75.0558	840.82	74.9531	840.82	74.2444	840.82	73.3754	840.82	73.5723	840.82	72.1476	840.82	72.9987	840.82	72.0341	840.82	72.9671	840.82	72.9341	840.82	73.7926	840.82	74.1151	840.82	74.8792	840.82	75.0906	840.82	75.5626	840.82	75.6211
870.117	80.1481	870.117	79.8008	870.117	80.3773	870.117	79.391	870.117	80.4575	870.117	79.0228	870.117	80.3622	870.117	78.8102	870.117	80.078	870.117	78.7605	870.117	79.617	870.117	78.7086	870.117	79.0037	870.117	78.4256	870.117	78.2695	870.117	77.787	870.117	77.4769	870.117	76.8285	870.117	76.6949	870.117	75.6552	870.117	75.9193	870.117	74.3562	870.117	75.0805	870.117	73.1286	870.117	74.1459	870.117	72.5309	870.117	73.2399	870.117	73.0771	870.117	72.7847	870.117	74.2761	870.117	73.2325	870.117	75.3287	870.117	74.3082	870.117	75.8901	870.117	75.3235	870.117	75.8868
900.879	80.6815	900.879	80.4753	900.879	80.7143	900.879	80.0976	900.879	80.587	900.879	79.5716	900.879	80.3282	900.879	78.9711	900.879	79.9659	900.879	78.4104	900.879	79.5043	900.879	77.9149	900.879	78.9252	900.879	77.347	900.879	78.2208	900.879	76.5881	900.879	77.4259	900.879	75.7258	900.879	76.6266	900.879	74.9387	900.879	75.9275	900.879	74.2011	900.879	75.3457	900.879	73.3326	900.879	74.7264	900.879	72.4752	900.879	73.8984	900.879	72.4363	900.879	73.1326	900.879	73.6442	900.879	73.3486	900.879	75.1924	900.879	74.6427	900.879	76.2437	900.879	75.9195	900.879	76.504
933.105	80.6874	933.105	80.4177	933.105	80.7353	933.105	79.9584	933.105	80.5756	933.105	79.3819	933.105	80.2556	933.105	78.7892	933.105	79.8199	933.105	78.2768	933.105	79.2808	933.105	77.8568	933.105	78.6233	933.105	77.4073	933.105	77.8578	933.105	76.7594	933.105	77.0976	933.105	75.831	933.105	76.5304	933.105	74.6628	933.105	76.2096	933.105	73.3779	933.105	75.9199	933.105	72.225	933.105	75.3149	933.105	71.7777	933.105	74.1736	933.105	72.539	933.105	72.8456	933.105	73.9764	933.105	72.6564	933.105	75.2506	933.105	73.9451	933.105	75.9758	933.105	75.313	933.105	76.0191
965.332	80.8751	965.332	80.6638	965.332	80.8066	965.332	80.1163	965.332	80.5587	965.332	79.2565	965.332	80.2039	965.332	78.2086	965.332	79.7358	965.332	77.2186	965.332	79.0952	965.332	76.5354	965.332	78.2376	965.332	76.0955	965.332	77.1744	965.332	75.5454	965.332	75.9889	965.332	74.6268	965.332	74.8582	965.332	73.42	965.332	74.0907	965.332	72.367	965.332	73.9325	965.332	71.82	965.332	74.0676	965.332	71.6909	965.332	73.8346	965.332	72.0517	965.332	73.0586	965.332	73.2117	965.332	72.6838	965.332	74.7298	965.332	73.7111	965.332	75.7747	965.332	75.1495	965.332	75.9334
1,000.49	81.202	1,000.49	80.8695	1,000.49	81.102	1,000.49	80.1027	1,000.49	80.6465	1,000.49	78.9966	1,000.49	79.9763	1,000.49	77.7905	1,000.49	79.2532	1,000.49	76.8397	1,000.49	78.5512	1,000.49	76.3104	1,000.49	77.764	1,000.49	75.9874	1,000.49	76.7293	1,000.49	75.597	1,000.49	75.4886	1,000.49	75.0282	1,000.49	74.3889	1,000.49	74.2276	1,000.49	73.8377	1,000.49	73.0952	1,000.49	73.7872	1,000.49	71.5298	1,000.49	73.6514	1,000.49	69.7855	1,000.49	72.7844	1,000.49	69.5797	1,000.49	71.0231	1,000.49	71.6562	1,000.49	70.0941	1,000.49	73.8013	1,000.49	71.9948	1,000.49	75.0208	1,000.49	74.1471	1,000.49	75.1668
1,035.64	81.3998	1,035.64	81.2777	1,035.64	81.0858	1,035.64	80.6799	1,035.64	80.4394	1,035.64	79.5908	1,035.64	79.6623	1,035.64	78.0472	1,035.64	78.9748	1,035.64	76.2568	1,035.64	78.4152	1,035.64	74.6738	1,035.64	77.7544	1,035.64	73.7215	1,035.64	76.6946	1,035.64	73.4241	1,035.64	75.1334	1,035.64	73.5149	1,035.64	73.3766	1,035.64	73.6288	1,035.64	72.2609	1,035.64	73.485	1,035.64	72.3435	1,035.64	72.8131	1,035.64	72.837	1,035.64	71.3854	1,035.64	72.597	1,035.64	69.8163	1,035.64	71.0038	1,035.64	69.914	1,035.64	68.7917	1,035.64	71.3962	1,035.64	69.3946	1,035.64	72.5612	1,035.64	71.6039	1,035.64	72.7244
1,072.27	81.1077	1,072.27	81.2055	1,072.27	80.6322	1,072.27	80.8954	1,072.27	79.8761	1,072.27	80.1086	1,072.27	79.0377	1,072.27	78.7154	1,072.27	78.27	1,072.27	76.6975	1,072.27	77.522	1,072.27	74.5426	1,072.27	76.6555	1,072.27	73.1653	1,072.27	75.6455	1,072.27	72.5202	1,072.27	74.5388	1,072.27	71.7668	1,072.27	73.3046	1,072.27	70.6328	1,072.27	72.0991	1,072.27	70.0001	1,072.27	71.8072	1,072.27	70.4018	1,072.27	72.6439	1,072.27	70.4929	1,072.27	73.112	1,072.27	69.7363	1,072.27	72.2061	1,072.27	69.3688	1,072.27	70.1923	1,072.27	70.2918	1,072.27	69.3549	1,072.27	71.3034	1,072.27	70.5611	1,072.27	71.4672
1,108.89	80.677	1,108.89	80.841	1,108.89	80.1476	1,108.89	80.6366	1,108.89	79.3536	1,108.89	80.0537	1,108.89	78.5229	1,108.89	78.9826	1,108.89	77.8731	1,108.89	77.2624	1,108.89	77.3781	1,108.89	74.986	1,108.89	76.7638	1,108.89	72.9351	1,108.89	75.7672	1,108.89	72.0972	1,108.89	74.3286	1,108.89	72.147	1,108.89	72.6002	1,108.89	72.1729	1,108.89	71.0524	1,108.89	72.0543	1,108.89	70.7436	1,108.89	72.0668	1,108.89	71.7949	1,108.89	71.8942	1,108.89	72.629	1,108.89	71.1636	1,108.89	72.3213	1,108.89	70.4492	1,108.89	70.9625	1,108.89	70.6576	1,108.89	69.8156	1,108.89	71.2656	1,108.89	70.3261	1,108.89	71.2217
1,148.44	80.5999	1,148.44	80.756	1,148.44	80.1351	1,148.44	80.6315	1,148.44	79.4155	1,148.44	80.2267	1,148.44	78.6476	1,148.44	79.4504	1,148.44	78.0542	1,148.44	78.17	1,148.44	77.5685	1,148.44	76.3886	1,148.44	76.8597	1,148.44	74.5062	1,148.44	75.7126	1,148.44	73.5141	1,148.44	74.1925	1,148.44	73.7082	1,148.44	72.4853	1,148.44	73.6684	1,148.44	70.7931	1,148.44	72.6218	1,148.44	69.799	1,148.44	71.2247	1,148.44	70.5064	1,148.44	70.721	1,148.44	71.8931	1,148.44	70.8457	1,148.44	72.4579	1,148.44	70.9465	1,148.44	71.9195	1,148.44	71.3553	1,148.44	71.2789	1,148.44	72.0843	1,148.44	71.76	1,148.44	72.3473
1,189.45	80.4372	1,189.45	80.5848	1,189.45	80.0606	1,189.45	80.4431	1,189.45	79.4554	1,189.45	79.8809	1,189.45	78.6972	1,189.45	78.8531	1,189.45	77.9487	1,189.45	77.5277	1,189.45	77.2582	1,189.45	76.1913	1,189.45	76.4908	1,189.45	74.9051	1,189.45	75.5251	1,189.45	73.5814	1,189.45	74.3145	1,189.45	72.7351	1,189.45	72.7728	1,189.45	72.4884	1,189.45	70.8977	1,189.45	71.8902	1,189.45	69.2849	1,189.45	70.4888	1,189.45	69.1014	1,189.45	68.8518	1,189.45	70.0033	1,189.45	68.9985	1,189.45	70.7328	1,189.45	70.8446	1,189.45	70.9702	1,189.45	72.3713	1,189.45	71.1822	1,189.45	72.9924	1,189.45	71.9009	1,189.45	72.7372
1,230.47	80.833	1,230.47	80.8188	1,230.47	80.4419	1,230.47	80.4186	1,230.47	79.6943	1,230.47	79.6516	1,230.47	78.8269	1,230.47	78.6365	1,230.47	78.092	1,230.47	77.6728	1,230.47	77.4158	1,230.47	76.9538	1,230.47	76.5464	1,230.47	76.1229	1,230.47	75.439	1,230.47	74.7577	1,230.47	74.2317	1,230.47	73.5608	1,230.47	72.9797	1,230.47	73.3448	1,230.47	71.449	1,230.47	73.1329	1,230.47	69.4188	1,230.47	72.1488	1,230.47	68.1475	1,230.47	70.3825	1,230.47	68.9851	1,230.47	68.944	1,230.47	69.9712	1,230.47	69.5738	1,230.47	70.168	1,230.47	71.3661	1,230.47	70.5291	1,230.47	72.6131	1,230.47	71.7265	1,230.47	72.7048
1,274.41	80.6109	1,274.41	80.6683	1,274.41	80.2036	1,274.41	80.3821	1,274.41	79.5067	1,274.41	79.7482	1,274.41	78.7246	1,274.41	78.7822	1,274.41	78.0343	1,274.41	77.6131	1,274.41	77.3233	1,274.41	76.4785	1,274.41	76.3504	1,274.41	75.3847	1,274.41	75.1091	1,274.41	73.7445	1,274.41	73.9465	1,274.41	71.2634	1,274.41	73.1405	1,274.41	70.091	1,274.41	72.1615	1,274.41	71.3461	1,274.41	70.6638	1,274.41	72.1517	1,274.41	70.1849	1,274.41	70.87	1,274.41	70.963	1,274.41	67.6864	1,274.41	70.8382	1,274.41	67.3223	1,274.41	70.1292	1,274.41	70.3356	1,274.41	70.5732	1,274.41	72.1706	1,274.41	71.7402	1,274.41	72.4842
1,319.82	80.6671	1,319.82	80.609	1,319.82	80.3407	1,319.82	80.2183	1,319.82	79.6231	1,319.82	79.5192	1,319.82	78.6961	1,319.82	78.6407	1,319.82	77.7614	1,319.82	77.7942	1,319.82	76.8703	1,319.82	77.0089	1,319.82	76.0676	1,319.82	76.0424	1,319.82	75.3454	1,319.82	74.6031	1,319.82	74.4921	1,319.82	72.5343	1,319.82	73.2899	1,319.82	70.293	1,319.82	71.7329	1,319.82	69.7085	1,319.82	70.1146	1,319.82	70.7922	1,319.82	69.2744	1,319.82	70.8518	1,319.82	69.6735	1,319.82	69.133	1,319.82	70.318	1,319.82	67.4146	1,319.82	70.6585	1,319.82	69.6765	1,319.82	71.2804	1,319.82	72.271	1,319.82	72.3832	1,319.82	73.0345
1,366.7	80.452	1,366.7	80.783	1,366.7	79.9361	1,366.7	80.7176	1,366.7	79.2565	1,366.7	79.9405	1,366.7	78.455	1,366.7	78.4362	1,366.7	77.5637	1,366.7	76.8188	1,366.7	76.6464	1,366.7	75.9691	1,366.7	75.8825	1,366.7	75.7375	1,366.7	75.1519	1,366.7	74.9908	1,366.7	74.0974	1,366.7	73.183	1,366.7	72.7819	1,366.7	70.7957	1,366.7	71.3996	1,366.7	69.0162	1,366.7	69.5982	1,366.7	68.8446	1,366.7	68.6132	1,366.7	69.4018	1,366.7	70.0981	1,366.7	69.0561	1,366.7	70.8243	1,366.7	67.5515	1,366.7	69.8795	1,366.7	68.1578	1,366.7	70.2249	1,366.7	71.143	1,366.7	72.1249	1,366.7	72.6621
1,413.57	80.4921	1,413.57	80.8242	1,413.57	79.948	1,413.57	80.7073	1,413.57	79.3009	1,413.57	79.9472	1,413.57	78.6092	1,413.57	78.6468	1,413.57	77.8784	1,413.57	77.1284	1,413.57	77.0618	1,413.57	75.5787	1,413.57	76.1403	1,413.57	74.2254	1,413.57	75.0659	1,413.57	72.2382	1,413.57	73.8911	1,413.57	68.637	1,413.57	72.7807	1,413.57	65.8412	1,413.57	71.425	1,413.57	66.5722	1,413.57	69.3422	1,413.57	68.5914	1,413.57	68.5569	1,413.57	69.4657	1,413.57	70.2984	1,413.57	69.3633	1,413.57	71.1446	1,413.57	68.7639	1,413.57	70.6539	1,413.57	68.9911	1,413.57	70.403	1,413.57	70.7861	1,413.57	71.4194	1,413.57	71.9124
1,463.38	80.4782	1,463.38	80.8574	1,463.38	79.8359	1,463.38	80.5998	1,463.38	79.2244	1,463.38	79.6951	1,463.38	78.6141	1,463.38	78.5919	1,463.38	77.8082	1,463.38	77.4217	1,463.38	76.7235	1,463.38	75.3526	1,463.38	75.6006	1,463.38	71.7685	1,463.38	74.5371	1,463.38	68.2527	1,463.38	73.2257	1,463.38	67.0936	1,463.38	71.9222	1,463.38	67.9009	1,463.38	71.1963	1,463.38	67.6627	1,463.38	70.1355	1,463.38	67.242	1,463.38	68.1509	1,463.38	68.3055	1,463.38	68.1612	1,463.38	69.1414	1,463.38	69.2304	1,463.38	68.9458	1,463.38	69.1645	1,463.38	68.7452	1,463.38	69.4737	1,463.38	69.9158	1,463.38	70.4783	1,463.38	70.842
1,516.11	80.3791	1,516.11	80.4894	1,516.11	79.7291	1,516.11	79.9608	1,516.11	78.8826	1,516.11	78.9523	1,516.11	78.0365	1,516.11	77.7836	1,516.11	76.9742	1,516.11	76.283	1,516.11	75.6452	1,516.11	73.6613	1,516.11	74.4831	1,516.11	69.7043	1,516.11	73.6288	1,516.11	67.0749	1,516.11	72.7146	1,516.11	68.5435	1,516.11	71.7132	1,516.11	69.8325	1,516.11	70.8574	1,516.11	68.4289	1,516.11	69.3394	1,516.11	65.5795	1,516.11	66.4762	1,516.11	64.1967	1,516.11	66.9592	1,516.11	64.5986	1,516.11	68.9683	1,516.11	65.4777	1,516.11	68.2773	1,516.11	66.3613	1,516.11	67.3647	1,516.11	67.2956	1,516.11	68.1595	1,516.11	68.1651
1,568.85	80.6669	1,568.85	80.2783	1,568.85	80.023	1,568.85	78.9974	1,568.85	78.7899	1,568.85	77.5956	1,568.85	77.4841	1,568.85	76.5983	1,568.85	76.1016	1,568.85	75.2799	1,568.85	74.4087	1,568.85	72.6891	1,568.85	72.5598	1,568.85	69.3237	1,568.85	70.7549	1,568.85	67.8804	1,568.85	69.1869	1,568.85	69.0507	1,568.85	68.325	1,568.85	69.5415	1,568.85	68.0269	1,568.85	67.6218	1,568.85	67.1517	1,568.85	64.6338	1,568.85	65.5036	1,568.85	62.8975	1,568.85	66.5027	1,568.85	62.367	1,568.85	68.3466	1,568.85	63.299	1,568.85	68.0553	1,568.85	65.2768	1,568.85	66.7384	1,568.85	66.5585	1,568.85	66.5384	1,568.85	66.8529
1,624.51	80.7663	1,624.51	80.2089	1,624.51	80.2124	1,624.51	78.8993	1,624.51	78.7799	1,624.51	77.5103	1,624.51	77.0534	1,624.51	76.0966	1,624.51	75.3546	1,624.51	73.984	1,624.51	73.3804	1,624.51	70.8447	1,624.51	71.05	1,624.51	67.4306	1,624.51	68.844	1,624.51	64.235	1,624.51	66.4228	1,624.51	62.9698	1,624.51	64.4768	1,624.51	65.3867	1,624.51	64.0087	1,624.51	66.455	1,624.51	63.0523	1,624.51	66.0542	1,624.51	60.7452	1,624.51	64.8411	1,624.51	62.136	1,624.51	62.7052	1,624.51	65.2431	1,624.51	60.2405	1,624.51	66.7234	1,624.51	60.5898	1,624.51	66.8489	1,624.51	63.3416	1,624.51	66.364	1,624.51	65.3963
1,681.64	80.6234	1,681.64	80.02	1,681.64	80.3141	1,681.64	78.7743	1,681.64	79.0522	1,681.64	77.1145	1,681.64	76.9791	1,681.64	74.8311	1,681.64	74.2607	1,681.64	71.6265	1,681.64	71.0925	1,681.64	67.7124	1,681.64	67.9344	1,681.64	64.2662	1,681.64	65.1573	1,681.64	61.5508	1,681.64	62.2288	1,681.64	60.4636	1,681.64	58.9619	1,681.64	62.5082	1,681.64	57.3682	1,681.64	63.3789	1,681.64	56.5497	1,681.64	62.3539	1,681.64	53.8163	1,681.64	61.7791	1,681.64	52.2791	1,681.64	61.4013	1,681.64	58.9695	1,681.64	59.0647	1,681.64	63.9363	1,681.64	57.8998	1,681.64	66.4337	1,681.64	61.772	1,681.64	66.9227	1,681.64	65.3651
1,741.7	80.0973	1,741.7	79.5163	1,741.7	79.9705	1,741.7	78.4775	1,741.7	78.8772	1,741.7	76.5913	1,741.7	76.7644	1,741.7	73.0479	1,741.7	73.4951	1,741.7	67.8056	1,741.7	69.131	1,741.7	62.3023	1,741.7	64.4107	1,741.7	55.994	1,741.7	59.3226	1,741.7	54.7128	1,741.7	56.9138	1,741.7	58.8197	1,741.7	55.6989	1,741.7	61.2228	1,741.7	52.1608	1,741.7	61.5554	1,741.7	50.8892	1,741.7	60.5115	1,741.7	47.8012	1,741.7	58.9167	1,741.7	39.6163	1,741.7	55.8046	1,741.7	52.7581	1,741.7	53.3898	1,741.7	61.2018	1,741.7	56.459	1,741.7	65.6964	1,741.7	60.4104	1,741.7	67.0152	1,741.7	65.137
1,803.22	80.1412	1,803.22	79.5062	1,803.22	79.7998	1,803.22	78.1625	1,803.22	78.4585	1,803.22	75.9903	1,803.22	76.2956	1,803.22	72.4649	1,803.22	73.0729	1,803.22	67.5133	1,803.22	68.0518	1,803.22	60.9767	1,803.22	60.5387	1,803.22	55.1511	1,803.22	50.516	1,803.22	58.7188	1,803.22	54.9971	1,803.22	59.3923	1,803.22	58.8987	1,803.22	59.879	1,803.22	58.1803	1,803.22	61.5239	1,803.22	55.5251	1,803.22	61.3589	1,803.22	54.2931	1,803.22	58.6036	1,803.22	53.3605	1,803.22	53.3595	1,803.22	54.1581	1,803.22	42.9089	1,803.22	60.0503	1,803.22	56.7111	1,803.22	65.2102	1,803.22	62.785	1,803.22	67.0868	1,803.22	66.0663
1,866.21	80.6263	1,866.21	79.8783	1,866.21	80.059	1,866.21	78.1313	1,866.21	78.3172	1,866.21	75.6841	1,866.21	75.9726	1,866.21	72.5781	1,866.21	73.0367	1,866.21	68.9378	1,866.21	68.3276	1,866.21	65.1883	1,866.21	62.2406	1,866.21	62.0167	1,866.21	61.6547	1,866.21	59.1858	1,866.21	63.0482	1,866.21	58.4448	1,866.21	63.2829	1,866.21	60.7684	1,866.21	62.0153	1,866.21	62.3971	1,866.21	60.1673	1,866.21	62.5477	1,866.21	58.8506	1,866.21	60.6392	1,866.21	56.5273	1,866.21	55.4222	1,866.21	55.8305	1,866.21	54.3356	1,866.21	59.7187	1,866.21	58.3428	1,866.21	64.41	1,866.21	63.7596	1,866.21	66.8128	1,866.21	66.6921
1,932.13	80.6204	1,932.13	79.8582	1,932.13	80.3656	1,932.13	78.5708	1,932.13	78.4994	1,932.13	76.2635	1,932.13	75.6051	1,932.13	72.363	1,932.13	73.0737	1,932.13	67.3027	1,932.13	69.879	1,932.13	64.1381	1,932.13	65.9568	1,932.13	62.7813	1,932.13	66.206	1,932.13	63.1948	1,932.13	66.5553	1,932.13	63.7283	1,932.13	65.1173	1,932.13	63.8571	1,932.13	63.8417	1,932.13	65.9399	1,932.13	63.3539	1,932.13	65.2135	1,932.13	62.0787	1,932.13	62.4472	1,932.13	58.464	1,932.13	57.8004	1,932.13	59.2691	1,932.13	55.3539	1,932.13	62.2429	1,932.13	58.2547	1,932.13	64.4724	1,932.13	62.9219	1,932.13	66.838	1,932.13	66.4791
1,999.51	80.0247	1,999.51	79.8076	1,999.51	79.8251	1,999.51	78.6155	1,999.51	78.6505	1,999.51	75.9344	1,999.51	76.179	1,999.51	72.1738	1,999.51	73.8229	1,999.51	69.7459	1,999.51	71.4778	1,999.51	68.7985	1,999.51	67.909	1,999.51	67.4197	1,999.51	68.6339	1,999.51	69.1429	1,999.51	69.4443	1,999.51	69.7242	1,999.51	67.106	1,999.51	66.1823	1,999.51	65.6373	1,999.51	64.8837	1,999.51	65.5621	1,999.51	66.7048	1,999.51	64.3406	1,999.51	65.0694	1,999.51	63.1617	1,999.51	61.8728	1,999.51	62.0399	1,999.51	58.9173	1,999.51	61.3554	1,999.51	54.5814	1,999.51	62.6123	1,999.51	62.456	1,999.51	66.3489	1,999.51	66.3456
2,069.82	79.4913	2,069.82	79.4627	2,069.82	78.8794	2,069.82	78.376	2,069.82	77.8318	2,069.82	75.9254	2,069.82	76.3636	2,069.82	73.1932	2,069.82	74.845	2,069.82	72.131	2,069.82	72.7625	2,069.82	70.3939	2,069.82	70.1564	2,069.82	69.8021	2,069.82	70.6188	2,069.82	71.5491	2,069.82	71.7096	2,069.82	70.765	2,069.82	70.3399	2,069.82	66.5254	2,069.82	68.1073	2,069.82	62.7683	2,069.82	66.3576	2,069.82	65.2431	2,069.82	65.1378	2,069.82	65.8646	2,069.82	64.6449	2,069.82	62.3669	2,069.82	63.2956	2,069.82	56.8801	2,069.82	61.567	2,069.82	55.3352	2,069.82	59.6933	2,069.82	62.0965	2,069.82	63.8836	2,069.82	64.9812
2,143.07	80.307	2,143.07	79.8777	2,143.07	79.6305	2,143.07	78.257	2,143.07	78.0837	2,143.07	75.8459	2,143.07	76.083	2,143.07	73.8468	2,143.07	74.7886	2,143.07	72.6152	2,143.07	73.5432	2,143.07	71.0562	2,143.07	71.375	2,143.07	70.9192	2,143.07	71.5747	2,143.07	71.1678	2,143.07	73.103	2,143.07	70.0388	2,143.07	71.728	2,143.07	67.3979	2,143.07	68.5011	2,143.07	65.0872	2,143.07	67.3293	2,143.07	64.9076	2,143.07	65.7867	2,143.07	64.0581	2,143.07	63.8204	2,143.07	61.6855	2,143.07	65.1411	2,143.07	60.9317	2,143.07	63.7779	2,143.07	57.2752	2,143.07	58.6638	2,143.07	64.0295	2,143.07	65.4553	2,143.07	67.6285
2,219.24	80.4004	2,219.24	80.02	2,219.24	80.2042	2,219.24	78.6965	2,219.24	78.8799	2,219.24	76.5604	2,219.24	76.3384	2,219.24	75.0278	2,219.24	74.7731	2,219.24	72.6108	2,219.24	74.1044	2,219.24	70.332	2,219.24	71.7092	2,219.24	70.598	2,219.24	70.843	2,219.24	65.5247	2,219.24	73.1963	2,219.24	62.0628	2,219.24	72.2124	2,219.24	69.4972	2,219.24	68.7776	2,219.24	69.2565	2,219.24	67.9778	2,219.24	63.3079	2,219.24	66.8876	2,219.24	63.3424	2,219.24	62.88	2,219.24	63.0322	2,219.24	64.0262	2,219.24	63.4037	2,219.24	62.5051	2,219.24	62.2713	2,219.24	56.5343	2,219.24	60.6843	2,219.24	67.7118	2,219.24	68.6855
2,296.88	79.4733	2,296.88	79.9569	2,296.88	78.7705	2,296.88	78.9477	2,296.88	78.6234	2,296.88	77.3005	2,296.88	77.4744	2,296.88	75.047	2,296.88	75.7461	2,296.88	71.3332	2,296.88	75.4084	2,296.88	71.0393	2,296.88	74.2514	2,296.88	70.5356	2,296.88	70.894	2,296.88	67.9253	2,296.88	72.1019	2,296.88	66.8195	2,296.88	73.1426	2,296.88	65.5765	2,296.88	70.7386	2,296.88	68.7763	2,296.88	68.7324	2,296.88	68.2069	2,296.88	69.39	2,296.88	65.6352	2,296.88	66.7181	2,296.88	62.5519	2,296.88	60.6456	2,296.88	60.9488	2,296.88	58.1932	2,296.88	62.5251	2,296.88	62.1655	2,296.88	59.7889	2,296.88	67.9975	2,296.88	66.3332
2,378.91	80.1632	2,378.91	80.1128	2,378.91	78.5404	2,378.91	78.4626	2,378.91	78.1607	2,378.91	76.6001	2,378.91	77.996	2,378.91	73.6425	2,378.91	76.2466	2,378.91	72.1235	2,378.91	75.731	2,378.91	72.8964	2,378.91	75.7067	2,378.91	71.5787	2,378.91	72.7598	2,378.91	71.7515	2,378.91	70.462	2,378.91	71.8273	2,378.91	71.6473	2,378.91	68.2173	2,378.91	70.3371	2,378.91	67.892	2,378.91	68.6167	2,378.91	68.9811	2,378.91	68.6631	2,378.91	67.5311	2,378.91	67.8244	2,378.91	64.6336	2,378.91	62.5055	2,378.91	60.5472	2,378.91	59.5563	2,378.91	61.3964	2,378.91	63.2575	2,378.91	59.5174	2,378.91	67.301	2,378.91	65.3362
2,462.4	81.2175	2,462.4	80.7035	2,462.4	79.6053	2,462.4	79.0528	2,462.4	77.1918	2,462.4	75.5614	2,462.4	77.7008	2,462.4	75.0162	2,462.4	77.4336	2,462.4	75.1025	2,462.4	76.3639	2,462.4	71.2483	2,462.4	75.2992	2,462.4	72.1778	2,462.4	73.1727	2,462.4	73.1515	2,462.4	70.5127	2,462.4	70.88	2,462.4	67.6314	2,462.4	68.8558	2,462.4	66.7711	2,462.4	68.8917	2,462.4	68.6141	2,462.4	67.3846	2,462.4	67.7665	2,462.4	65.7397	2,462.4	65.1162	2,462.4	65.7201	2,462.4	63.9245	2,462.4	62.3517	2,462.4	64.5479	2,462.4	62.1758	2,462.4	62.0919	2,462.4	60.6287	2,462.4	66.4313	2,462.4	65.1921
2,548.83	80.8657	2,548.83	80.6737	2,548.83	80.3784	2,548.83	78.576	2,548.83	78.1353	2,548.83	76.4635	2,548.83	76.6431	2,548.83	76.4695	2,548.83	77.4954	2,548.83	73.1551	2,548.83	76.6954	2,548.83	73.4407	2,548.83	74.5553	2,548.83	73.1414	2,548.83	72.7482	2,548.83	69.7405	2,548.83	72.3293	2,548.83	70.8009	2,548.83	70.7391	2,548.83	68.4386	2,548.83	62.78	2,548.83	66.6105	2,548.83	62.1588	2,548.83	68.3944	2,548.83	67.7712	2,548.83	65.3356	2,548.83	67.3533	2,548.83	64.7949	2,548.83	61.8101	2,548.83	64.6068	2,548.83	62.3905	2,548.83	61.5008	2,548.83	58.3313	2,548.83	62.9425	2,548.83	67.036	2,548.83	65.2878
2,639.65	80.1724	2,639.65	79.5631	2,639.65	79.1694	2,639.65	77.5826	2,639.65	78.4629	2,639.65	77.4709	2,639.65	77.0075	2,639.65	75.1836	2,639.65	76.536	2,639.65	74.0231	2,639.65	76.5912	2,639.65	74.7026	2,639.65	75.1835	2,639.65	73.8077	2,639.65	74.1695	2,639.65	72.527	2,639.65	73.3791	2,639.65	69.7927	2,639.65	71.3662	2,639.65	67.6303	2,639.65	67.6758	2,639.65	66.3088	2,639.65	64.3972	2,639.65	66.5705	2,639.65	66.289	2,639.65	67.3337	2,639.65	67.4282	2,639.65	63.8613	2,639.65	63.8358	2,639.65	63.7977	2,639.65	60.257	2,639.65	63.2795	2,639.65	59.7199	2,639.65	62.1635	2,639.65	67.0318	2,639.65	65.7944
2,731.93	81.1875	2,731.93	79.8543	2,731.93	80.0488	2,731.93	78.4303	2,731.93	78.2612	2,731.93	77.0847	2,731.93	77.5535	2,731.93	75.8376	2,731.93	76.9649	2,731.93	76.3122	2,731.93	76.813	2,731.93	74.3181	2,731.93	75.8722	2,731.93	71.789	2,731.93	74.0851	2,731.93	70.0844	2,731.93	70.8559	2,731.93	68.9168	2,731.93	65.5029	2,731.93	68.8084	2,731.93	65.7338	2,731.93	67.9605	2,731.93	66.9031	2,731.93	66.901	2,731.93	68.2693	2,731.93	66.4824	2,731.93	68.3331	2,731.93	65.2281	2,731.93	64.9445	2,731.93	62.4462	2,731.93	63.7054	2,731.93	62.4909	2,731.93	55.4189	2,731.93	61.6876	2,731.93	65.4853	2,731.93	63.5925
2,828.61	81.0889	2,828.61	80.0609	2,828.61	80.4311	2,828.61	78.9213	2,828.61	78.6065	2,828.61	77.3943	2,828.61	77.4121	2,828.61	76.9862	2,828.61	76.4661	2,828.61	76.5128	2,828.61	75.9009	2,828.61	74.2455	2,828.61	75.2258	2,828.61	72.6119	2,828.61	74.1157	2,828.61	71.4368	2,828.61	70.799	2,828.61	70.6284	2,828.61	67.3564	2,828.61	69.6062	2,828.61	69.796	2,828.61	66.9544	2,828.61	67.8114	2,828.61	64.9566	2,828.61	67.8433	2,828.61	65.8354	2,828.61	69.132	2,828.61	64.8998	2,828.61	63.4507	2,828.61	61.8601	2,828.61	61.0284	2,828.61	61.5597	2,828.61	58.3792	2,828.61	62.7271	2,828.61	68.5816	2,828.61	65.8674
2,928.22	80.3035	2,928.22	79.5279	2,928.22	80.0366	2,928.22	78.8071	2,928.22	78.615	2,928.22	78.0815	2,928.22	77.099	2,928.22	77.5507	2,928.22	75.7271	2,928.22	76.327	2,928.22	75.2672	2,928.22	74.6352	2,928.22	75.4396	2,928.22	73.1017	2,928.22	74.423	2,928.22	71.9305	2,928.22	68.7816	2,928.22	69.449	2,928.22	64.2434	2,928.22	64.1748	2,928.22	70.9998	2,928.22	63.2998	2,928.22	71.1061	2,928.22	64.345	2,928.22	67.158	2,928.22	63.2774	2,928.22	69.4597	2,928.22	63.7985	2,928.22	62.9578	2,928.22	64.6817	2,928.22	48.8717	2,928.22	60.6135	2,928.22	64.4017	2,928.22	61.8781	2,928.22	65.8448	2,928.22	56.2318
3,030.76	80.9444	3,030.76	79.8572	3,030.76	80.43	3,030.76	79.3433	3,030.76	77.9541	3,030.76	78.2245	3,030.76	77.2054	3,030.76	77.6764	3,030.76	76.4514	3,030.76	76.5194	3,030.76	74.9804	3,030.76	74.5434	3,030.76	74.9715	3,030.76	72.8279	3,030.76	73.2705	3,030.76	68.3996	3,030.76	67.7256	3,030.76	63.9414	3,030.76	68.6322	3,030.76	65.3565	3,030.76	70.2053	3,030.76	65.0299	3,030.76	70.8417	3,030.76	63.6026	3,030.76	68.2407	3,030.76	63.1483	3,030.76	69.6982	3,030.76	61.7405	3,030.76	63.2536	3,030.76	60.6612	3,030.76	50.3179	3,030.76	61.8186	3,030.76	63.6597	3,030.76	61.4742	3,030.76	64.9446	3,030.76	63.5305
3,137.7	80.6964	3,137.7	80.6244	3,137.7	81.0779	3,137.7	79.8022	3,137.7	78.5936	3,137.7	78.1261	3,137.7	76.1554	3,137.7	77.8028	3,137.7	76.687	3,137.7	76.1754	3,137.7	75.6716	3,137.7	74.5083	3,137.7	74.6884	3,137.7	69.4847	3,137.7	72.0466	3,137.7	64.4761	3,137.7	69.3285	3,137.7	68.4929	3,137.7	71.2684	3,137.7	65.6386	3,137.7	69.8149	3,137.7	62.7798	3,137.7	70.1427	3,137.7	62.2241	3,137.7	67.2746	3,137.7	60.6731	3,137.7	68.7484	3,137.7	60.3416	3,137.7	61.6363	3,137.7	57.9859	3,137.7	49.0908	3,137.7	60.5015	3,137.7	63.4955	3,137.7	62.5268	3,137.7	65.5414	3,137.7	62.9014
3,249.02	80.6533	3,249.02	80.806	3,249.02	80.6318	3,249.02	79.3169	3,249.02	79.7766	3,249.02	78.9635	3,249.02	76.6549	3,249.02	77.8325	3,249.02	76.101	3,249.02	75.6452	3,249.02	76.3588	3,249.02	70.388	3,249.02	75.8248	3,249.02	66.8501	3,249.02	72.3966	3,249.02	68.6442	3,249.02	70.5546	3,249.02	67.0442	3,249.02	73.0998	3,249.02	63.8644	3,249.02	69.2443	3,249.02	61.75	3,249.02	69.3815	3,249.02	63.4695	3,249.02	65.8089	3,249.02	62.2432	3,249.02	67.7489	3,249.02	60.4196	3,249.02	62.1341	3,249.02	59.8557	3,249.02	50.5552	3,249.02	54.873	3,249.02	60.5898	3,249.02	60.6346	3,249.02	64.7014	3,249.02	62.6596
3,363.28	81.7427	3,363.28	81.0419	3,363.28	80.8131	3,363.28	79.5792	3,363.28	79.712	3,363.28	79.0384	3,363.28	77.8806	3,363.28	77.495	3,363.28	76.142	3,363.28	73.8131	3,363.28	75.5892	3,363.28	69.9199	3,363.28	76.0222	3,363.28	70.8191	3,363.28	74.0941	3,363.28	65.7403	3,363.28	72.1558	3,363.28	63.8902	3,363.28	74.0093	3,363.28	66.8112	3,363.28	71.3595	3,363.28	65.2588	3,363.28	66.9029	3,363.28	63.574	3,363.28	64.1793	3,363.28	64.7455	3,363.28	64.4573	3,363.28	62.3393	3,363.28	61.6787	3,363.28	58.8034	3,363.28	51.1188	3,363.28	56.6166	3,363.28	62.3037	3,363.28	60.1482	3,363.28	64.6772	3,363.28	60.4938
3,481.93	81.8671	3,481.93	80.6312	3,481.93	81.623	3,481.93	79.5095	3,481.93	79.9752	3,481.93	78.8192	3,481.93	77.907	3,481.93	76.1893	3,481.93	76.4491	3,481.93	73.4198	3,481.93	75.4361	3,481.93	72.4883	3,481.93	75.3774	3,481.93	71.0078	3,481.93	73.7712	3,481.93	69.1091	3,481.93	72.7736	3,481.93	69.9988	3,481.93	72.6626	3,481.93	68.0288	3,481.93	70.4714	3,481.93	64.9969	3,481.93	66.4159	3,481.93	64.2863	3,481.93	61.9114	3,481.93	64.339	3,481.93	64.301	3,481.93	64.2675	3,481.93	59.5293	3,481.93	61.2196	3,481.93	52.526	3,481.93	57.182	3,481.93	62.7728	3,481.93	58.1937	3,481.93	63.5619	3,481.93	60.5901
3,604.98	81.4896	3,604.98	80.5766	3,604.98	81.4518	3,604.98	80.2831	3,604.98	80.3806	3,604.98	78.8367	3,604.98	77.8116	3,604.98	75.9349	3,604.98	76.3766	3,604.98	73.7873	3,604.98	75.9307	3,604.98	72.8141	3,604.98	74.367	3,604.98	71.7158	3,604.98	72.2038	3,604.98	71.1784	3,604.98	71.9379	3,604.98	69.6682	3,604.98	71.8801	3,604.98	67.19	3,604.98	64.5927	3,604.98	66.4465	3,604.98	64.4116	3,604.98	64.2945	3,604.98	64.185	3,604.98	64.7755	3,604.98	63.1632	3,604.98	64.5892	3,604.98	57.3468	3,604.98	62.051	3,604.98	49.3007	3,604.98	58.0202	3,604.98	63.3709	3,604.98	59.4981	3,604.98	64.2192	3,604.98	61.2535
3,732.42	81.7458	3,732.42	80.8092	3,732.42	81.3212	3,732.42	80.1959	3,732.42	80.2411	3,732.42	78.3732	3,732.42	78.3433	3,732.42	76.1298	3,732.42	75.6331	3,732.42	74.9827	3,732.42	75.2826	3,732.42	74.0014	3,732.42	74.6138	3,732.42	73.0194	3,732.42	71.519	3,732.42	70.1951	3,732.42	69.1797	3,732.42	67.0235	3,732.42	69.4749	3,732.42	66.6891	3,732.42	59.2378	3,732.42	65.2279	3,732.42	57.9562	3,732.42	63.4141	3,732.42	64.6009	3,732.42	63.702	3,732.42	64.0329	3,732.42	63.9454	3,732.42	57.8428	3,732.42	62.3858	3,732.42	47.5686	3,732.42	59.0948	3,732.42	62.9373	3,732.42	59.4323	3,732.42	64.2544	3,732.42	60.9002
3,864.26	80.839	3,864.26	80.2823	3,864.26	80.9699	3,864.26	79.9632	3,864.26	79.9403	3,864.26	77.5719	3,864.26	77.9756	3,864.26	76.1977	3,864.26	75.5411	3,864.26	75.6398	3,864.26	73.9158	3,864.26	74.1627	3,864.26	73.0476	3,864.26	72.2558	3,864.26	71.2169	3,864.26	68.0498	3,864.26	67.6261	3,864.26	67.2427	3,864.26	64.8966	3,864.26	65.5781	3,864.26	61.1388	3,864.26	63.5838	3,864.26	61.1335	3,864.26	62.9298	3,864.26	65.4376	3,864.26	63.0229	3,864.26	61.9531	3,864.26	63.0277	3,864.26	57.6731	3,864.26	60.825	3,864.26	37.7582	3,864.26	58.1456	3,864.26	62.5111	3,864.26	60.95	3,864.26	63.9587	3,864.26	62.5917
4,000.49	80.8468	4,000.49	80.0786	4,000.49	80.8913	4,000.49	79.3426	4,000.49	79.4793	4,000.49	77.0296	4,000.49	77.3944	4,000.49	76.7457	4,000.49	75.2915	4,000.49	75.4863	4,000.49	74.0052	4,000.49	73.8111	4,000.49	71.4285	4,000.49	69.0637	4,000.49	69.5551	4,000.49	68.7872	4,000.49	67.2775	4,000.49	66.8098	4,000.49	64.687	4,000.49	64.2737	4,000.49	65.8982	4,000.49	62.8684	4,000.49	66.014	4,000.49	60.101	4,000.49	66.4194	4,000.49	60.6902	4,000.49	62.2471	4,000.49	62.4625	4,000.49	54.308	4,000.49	59.2559	4,000.49	44.5894	4,000.49	56.7468	4,000.49	62.7681	4,000.49	56.1506	4,000.49	62.9024	4,000.49	62.2614
4,141.11	80.4366	4,141.11	80.3968	4,141.11	80.8761	4,141.11	79.2597	4,141.11	79.4095	4,141.11	77.2527	4,141.11	77.7532	4,141.11	76.975	4,141.11	74.9184	4,141.11	75.3335	4,141.11	73.3316	4,141.11	71.9466	4,141.11	70.8323	4,141.11	69.575	4,141.11	68.8485	4,141.11	68.3055	4,141.11	63.8313	4,141.11	62.5531	4,141.11	53.0566	4,141.11	64.2123	4,141.11	66.4304	4,141.11	61.9347	4,141.11	67.492	4,141.11	60.1848	4,141.11	67.9855	4,141.11	58.7881	4,141.11	62.3328	4,141.11	60.9605	4,141.11	59.4061	4,141.11	59.9406	4,141.11	52.0369	4,141.11	57.7582	4,141.11	62.4429	4,141.11	49.3921	4,141.11	61.4505	4,141.11	60.5154
4,287.6	80.5093	4,287.6	80.5744	4,287.6	80.7146	4,287.6	78.8754	4,287.6	79.3293	4,287.6	77.5225	4,287.6	76.8348	4,287.6	76.785	4,287.6	75.5132	4,287.6	73.8944	4,287.6	73.519	4,287.6	71.3614	4,287.6	71.8886	4,287.6	68.077	4,287.6	69.1995	4,287.6	65.6493	4,287.6	59.9588	4,287.6	67.3552	4,287.6	59.2531	4,287.6	64.2933	4,287.6	63.7191	4,287.6	63.3077	4,287.6	64.3335	4,287.6	59.667	4,287.6	66.984	4,287.6	59.978	4,287.6	64.4479	4,287.6	57.6524	4,287.6	60.1546	4,287.6	57.8146	4,287.6	53.3101	4,287.6	55.5005	4,287.6	61.5416	4,287.6	53.169	4,287.6	61.3045	4,287.6	59.3341
4,438.48	80.2108	4,438.48	80.1533	4,438.48	80.6262	4,438.48	78.4534	4,438.48	79.6207	4,438.48	77.9681	4,438.48	76.8237	4,438.48	75.9715	4,438.48	74.5665	4,438.48	73.7445	4,438.48	73.6616	4,438.48	70.6763	4,438.48	73.142	4,438.48	67.5247	4,438.48	67.5943	4,438.48	66.6826	4,438.48	59.9006	4,438.48	62.778	4,438.48	63.6442	4,438.48	62.8149	4,438.48	60.3012	4,438.48	62.9569	4,438.48	58.7325	4,438.48	60.5528	4,438.48	66.4662	4,438.48	59.7271	4,438.48	65.2591	4,438.48	58.8871	4,438.48	58.6328	4,438.48	56.6656	4,438.48	52.868	4,438.48	56.0274	4,438.48	61.3896	4,438.48	54.911	4,438.48	61.9996	4,438.48	60.9725
4,595.21	80.73	4,595.21	80.6701	4,595.21	80.5051	4,595.21	79.4371	4,595.21	79.914	4,595.21	78.4277	4,595.21	76.7988	4,595.21	75.8513	4,595.21	74.0163	4,595.21	73.2312	4,595.21	72.9655	4,595.21	70.3261	4,595.21	72.1737	4,595.21	69.272	4,595.21	65.834	4,595.21	65.5819	4,595.21	65.1688	4,595.21	65.801	4,595.21	61.3644	4,595.21	63.3802	4,595.21	53.3349	4,595.21	63.1596	4,595.21	52.4363	4,595.21	61.2855	4,595.21	64.0219	4,595.21	59.7411	4,595.21	63.5759	4,595.21	60.0678	4,595.21	57.1555	4,595.21	57.8987	4,595.21	53.6254	4,595.21	54.6169	4,595.21	59.8154	4,595.21	53.7939	4,595.21	62.3485	4,595.21	60.4915
4,756.35	80.4041	4,756.35	80.4377	4,756.35	79.7155	4,756.35	79.257	4,756.35	79.4685	4,756.35	77.644	4,756.35	76.6653	4,756.35	74.886	4,756.35	72.9725	4,756.35	73.1264	4,756.35	71.8436	4,756.35	70.7511	4,756.35	70.7464	4,756.35	67.7384	4,756.35	65.8417	4,756.35	67.8785	4,756.35	68.6332	4,756.35	65.7573	4,756.35	64.7213	4,756.35	63.4311	4,756.35	59.7181	4,756.35	62.7269	4,756.35	59.4404	4,756.35	59.6035	4,756.35	62.1332	4,756.35	60.5118	4,756.35	60.3882	4,756.35	59.8751	4,756.35	54.4218	4,756.35	57.5125	4,756.35	52.5985	4,756.35	53.464	4,756.35	59.9057	4,756.35	51.6416	4,756.35	62.074	4,756.35	57.978
4,924.8	80.8414	4,924.8	80.1326	4,924.8	79.5263	4,924.8	78.866	4,924.8	78.8615	4,924.8	76.7142	4,924.8	77.0751	4,924.8	75.5329	4,924.8	72.9086	4,924.8	72.9427	4,924.8	71.3627	4,924.8	70.347	4,924.8	67.8196	4,924.8	69.6239	4,924.8	67.812	4,924.8	66.983	4,924.8	66.4318	4,924.8	64.3484	4,924.8	61.6685	4,924.8	62.759	4,924.8	61.7742	4,924.8	62.2385	4,924.8	60.8598	4,924.8	59.8914	4,924.8	58.9499	4,924.8	58.4659	4,924.8	60.92	4,924.8	60.6275	4,924.8	50.6379	4,924.8	58.8712	4,924.8	53.2905	4,924.8	50.2121	4,924.8	59.0507	4,924.8	55.7393	4,924.8	62.1316	4,924.8	58.9223
5,097.66	80.8286	5,097.66	79.9237	5,097.66	79.4437	5,097.66	78.835	5,097.66	78.4938	5,097.66	76.646	5,097.66	76.3641	5,097.66	75.2022	5,097.66	72.9115	5,097.66	72.0433	5,097.66	70.7185	5,097.66	71.1224	5,097.66	66.2278	5,097.66	66.9328	5,097.66	70.4208	5,097.66	66.0127	5,097.66	66.5178	5,097.66	63.8172	5,097.66	60.7397	5,097.66	61.6163	5,097.66	63.2669	5,097.66	59.4825	5,097.66	63.25	5,097.66	58.8066	5,097.66	53.8462	5,097.66	54.0534	5,097.66	60.6305	5,097.66	57.9166	5,097.66	53.6422	5,097.66	58.262	5,097.66	52.6436	5,097.66	45.78	5,097.66	58.3426	5,097.66	52.6395	5,097.66	61.6762	5,097.66	57.5919
5,277.83	80.501	5,277.83	79.7267	5,277.83	79.9112	5,277.83	78.3495	5,277.83	78.0798	5,277.83	75.5925	5,277.83	76.0717	5,277.83	74.5738	5,277.83	72.5129	5,277.83	71.5374	5,277.83	68.0485	5,277.83	69.5149	5,277.83	67.1514	5,277.83	66.8811	5,277.83	70.0741	5,277.83	64.6692	5,277.83	67.1405	5,277.83	60.1109	5,277.83	60.1946	5,277.83	60.4945	5,277.83	60.3905	5,277.83	59.1835	5,277.83	58.219	5,277.83	58.9134	5,277.83	54.972	5,277.83	55.3588	5,277.83	59.4003	5,277.83	54.729	5,277.83	54.3067	5,277.83	56.7085	5,277.83	51.3059	5,277.83	49.2781	5,277.83	57.224	5,277.83	49.7505	5,277.83	60.5301	5,277.83	58.6389
5,463.87	80.3686	5,463.87	79.7317	5,463.87	79.7162	5,463.87	77.7453	5,463.87	77.6064	5,463.87	76.659	5,463.87	75.8883	5,463.87	74.1243	5,463.87	71.4187	5,463.87	70.8871	5,463.87	66.519	5,463.87	68.7115	5,463.87	67.0039	5,463.87	63.9564	5,463.87	69.045	5,463.87	63.1835	5,463.87	66.4524	5,463.87	62.6216	5,463.87	61.504	5,463.87	61.1708	5,463.87	56.4539	5,463.87	60.0558	5,463.87	55.777	5,463.87	59.2579	5,463.87	53.3235	5,463.87	56.5969	5,463.87	59.2349	5,463.87	56.376	5,463.87	55.4467	5,463.87	54.6755	5,463.87	56.2858	5,463.87	50.4584	5,463.87	57.0878	5,463.87	42.3402	5,463.87	59.2931	5,463.87	55.9687
5,657.23	80.4536	5,657.23	79.6066	5,657.23	79.4696	5,657.23	78.3255	5,657.23	77.6015	5,657.23	76.4926	5,657.23	75.1049	5,657.23	72.3672	5,657.23	70.3469	5,657.23	71.1073	5,657.23	66.9472	5,657.23	66.7534	5,657.23	69.2566	5,657.23	65.8838	5,657.23	68.2296	5,657.23	63.8456	5,657.23	64.8302	5,657.23	62.428	5,657.23	61.6314	5,657.23	62.33	5,657.23	55.8188	5,657.23	60.1391	5,657.23	52.6231	5,657.23	59.9907	5,657.23	53.7832	5,657.23	57.6684	5,657.23	57.9195	5,657.23	56.9683	5,657.23	55.4737	5,657.23	57.1937	5,657.23	55.5461	5,657.23	49.8491	5,657.23	55.357	5,657.23	47.6653	5,657.23	61.0619	5,657.23	56.2365
5,856.45	80.9474	5,856.45	80.2035	5,856.45	80.1664	5,856.45	78.6542	5,856.45	77.5165	5,856.45	75.2714	5,856.45	74.8225	5,856.45	73.1071	5,856.45	70.3753	5,856.45	71.0599	5,856.45	65.6581	5,856.45	67.5355	5,856.45	67.6585	5,856.45	65.5164	5,856.45	67.3507	5,856.45	65.3905	5,856.45	65.4918	5,856.45	63.0728	5,856.45	61.8341	5,856.45	61.0307	5,856.45	53.5589	5,856.45	59.4266	5,856.45	54.5945	5,856.45	58.6483	5,856.45	58.4865	5,856.45	55.6972	5,856.45	56.9903	5,856.45	57.6184	5,856.45	53.478	5,856.45	56.9578	5,856.45	53.6027	5,856.45	51.8589	5,856.45	57.959	5,856.45	47.1244	5,856.45	60.2499	5,856.45	56.4582
6,062.99	81.0111	6,062.99	80.0864	6,062.99	80.5363	6,062.99	78.3187	6,062.99	77.8038	6,062.99	74.8904	6,062.99	74.1168	6,062.99	73.8154	6,062.99	70.17	6,062.99	70.2472	6,062.99	63.5172	6,062.99	68.16	6,062.99	66.3645	6,062.99	65.3495	6,062.99	64.1202	6,062.99	63.1875	6,062.99	63.5631	6,062.99	58.8714	6,062.99	60.8483	6,062.99	59.8403	6,062.99	53.7557	6,062.99	57.5022	6,062.99	51.5816	6,062.99	57.417	6,062.99	59.5425	6,062.99	53.6894	6,062.99	55.0546	6,062.99	55.4996	6,062.99	55.8932	6,062.99	57.8573	6,062.99	51.9093	6,062.99	51.6262	6,062.99	56.9216	6,062.99	42.3241	6,062.99	59.5352	6,062.99	55.9009
6,276.86	81.3869	6,276.86	80.7686	6,276.86	80.8151	6,276.86	78.477	6,276.86	78.2704	6,276.86	75.8708	6,276.86	73.9929	6,276.86	74.3276	6,276.86	69.3183	6,276.86	70.5233	6,276.86	61.8727	6,276.86	67.6339	6,276.86	65.6648	6,276.86	63.3229	6,276.86	62.8245	6,276.86	63.5795	6,276.86	63.64	6,276.86	60.4156	6,276.86	57.4635	6,276.86	60.6836	6,276.86	59.0413	6,276.86	59.5407	6,276.86	59.4565	6,276.86	59.0283	6,276.86	56.3414	6,276.86	56.6776	6,276.86	51.5946	6,276.86	56.6813	6,276.86	54.5834	6,276.86	59.2283	6,276.86	53.4468	6,276.86	55.5868	6,276.86	56.8031	6,276.86	42.21	6,276.86	58.9528	6,276.86	54.5598
6,498.05	81.6209	6,498.05	80.9907	6,498.05	81.1925	6,498.05	78.642	6,498.05	78.6422	6,498.05	76.778	6,498.05	74.8757	6,498.05	74.2977	6,498.05	69.8378	6,498.05	70.6107	6,498.05	64.6818	6,498.05	67.6081	6,498.05	61.9053	6,498.05	65.811	6,498.05	62.704	6,498.05	64.0301	6,498.05	64.6217	6,498.05	62.5077	6,498.05	58.9524	6,498.05	62.1772	6,498.05	53.1224	6,498.05	59.863	6,498.05	55.4333	6,498.05	60.1877	6,498.05	56.0363	6,498.05	58.1697	6,498.05	54.4287	6,498.05	58.9613	6,498.05	51.8055	6,498.05	60.0943	6,498.05	54.1601	6,498.05	57.6315	6,498.05	56.1641	6,498.05	45.7842	6,498.05	59.0679	6,498.05	53.7313
6,726.56	81.4379	6,726.56	80.5007	6,726.56	81.272	6,726.56	78.3936	6,726.56	78.7818	6,726.56	76.9768	6,726.56	75.5872	6,726.56	73.7086	6,726.56	70.2938	6,726.56	71.6006	6,726.56	65.3317	6,726.56	68.7068	6,726.56	63.34	6,726.56	67.2768	6,726.56	59.6674	6,726.56	65.8446	6,726.56	61.8028	6,726.56	63.1049	6,726.56	61.6485	6,726.56	61.7553	6,726.56	57.029	6,726.56	58.5791	6,726.56	58.5949	6,726.56	58.912	6,726.56	54.924	6,726.56	58.4069	6,726.56	55.7959	6,726.56	58.8204	6,726.56	45.0523	6,726.56	60.3035	6,726.56	55.3893	6,726.56	56.9654	6,726.56	56.8733	6,726.56	49.5068	6,726.56	58.2105	6,726.56	53.6574
6,963.87	81.2118	6,963.87	80.3296	6,963.87	80.9816	6,963.87	78.4593	6,963.87	78.908	6,963.87	76.2284	6,963.87	75.7648	6,963.87	73.8004	6,963.87	71.9185	6,963.87	72.0214	6,963.87	68.2413	6,963.87	69.5172	6,963.87	62.5235	6,963.87	67.758	6,963.87	63.3097	6,963.87	64.0992	6,963.87	59.0872	6,963.87	61.7911	6,963.87	59.5342	6,963.87	61.1973	6,963.87	54.7892	6,963.87	59.1564	6,963.87	57.8988	6,963.87	57.788	6,963.87	54.1779	6,963.87	56.2855	6,963.87	56.1574	6,963.87	58.8823	6,963.87	46.193	6,963.87	59.5731	6,963.87	55.5654	6,963.87	56.2662	6,963.87	55.6794	6,963.87	46.6243	6,963.87	56.5906	6,963.87	54.2724
7,209.96	80.9474	7,209.96	80.2468	7,209.96	80.6383	7,209.96	78.0594	7,209.96	79.1562	7,209.96	76.0422	7,209.96	75.2862	7,209.96	74.5963	7,209.96	73.0941	7,209.96	71.7964	7,209.96	70.0629	7,209.96	69.4228	7,209.96	62.841	7,209.96	67.2039	7,209.96	62.6747	7,209.96	63.1346	7,209.96	56.7869	7,209.96	62.1445	7,209.96	61.6816	7,209.96	60.4389	7,209.96	55.2058	7,209.96	60.1075	7,209.96	54.2046	7,209.96	58.6395	7,209.96	52.5816	7,209.96	56.0941	7,209.96	54.5085	7,209.96	57.4704	7,209.96	51.9978	7,209.96	59.7934	7,209.96	54.602	7,209.96	58.408	7,209.96	52.3575	7,209.96	50.6205	7,209.96	56.0056	7,209.96	51.2707
7,464.84	80.913	7,464.84	79.7752	7,464.84	80.093	7,464.84	78.3646	7,464.84	78.7705	7,464.84	75.8825	7,464.84	76.2089	7,464.84	74.2803	7,464.84	73.3956	7,464.84	71.4469	7,464.84	71.2888	7,464.84	69.8451	7,464.84	64.6724	7,464.84	67.2597	7,464.84	59.207	7,464.84	64.4507	7,464.84	59.417	7,464.84	63.1335	7,464.84	58.9802	7,464.84	59.3143	7,464.84	52.8838	7,464.84	58.8486	7,464.84	40.267	7,464.84	57.874	7,464.84	50.1695	7,464.84	56.2246	7,464.84	55.8302	7,464.84	55.6454	7,464.84	50.8567	7,464.84	59.3901	7,464.84	54.6659	7,464.84	57.1764	7,464.84	53.0026	7,464.84	50.537	7,464.84	55.8071	7,464.84	47.1236
7,727.05	80.6213	7,727.05	79.8014	7,727.05	79.7917	7,727.05	78.4012	7,727.05	78.3301	7,727.05	76.0809	7,727.05	76.2015	7,727.05	74.2512	7,727.05	74.1123	7,727.05	72.0807	7,727.05	71.5721	7,727.05	69.8271	7,727.05	64.4979	7,727.05	67.4591	7,727.05	62.8518	7,727.05	63.232	7,727.05	64.0242	7,727.05	61.6941	7,727.05	57.7478	7,727.05	58.6221	7,727.05	55.4871	7,727.05	57.8233	7,727.05	47.0732	7,727.05	55.6483	7,727.05	50.9657	7,727.05	56.1739	7,727.05	53.445	7,727.05	55.7846	7,727.05	49.5336	7,727.05	57.5404	7,727.05	52.5868	7,727.05	56.4892	7,727.05	53.1686	7,727.05	49.7052	7,727.05	53.8642	7,727.05	49.4803
7,999.51	81.0424	7,999.51	80.4597	7,999.51	80.151	7,999.51	78.9348	7,999.51	77.8481	7,999.51	76.363	7,999.51	76.0679	7,999.51	74.3077	7,999.51	74.6825	7,999.51	72.7927	7,999.51	71.4578	7,999.51	68.7738	7,999.51	62.9368	7,999.51	66.6084	7,999.51	64.9648	7,999.51	61.8672	7,999.51	62.9019	7,999.51	59.2326	7,999.51	54.8176	7,999.51	57.5841	7,999.51	49.541	7,999.51	58.5647	7,999.51	51.2503	7,999.51	55.4443	7,999.51	49.1854	7,999.51	54.6718	7,999.51	53.4364	7,999.51	55.6941	7,999.51	48.6632	7,999.51	57.5572	7,999.51	52.4002	7,999.51	56.7282	7,999.51	50.8011	7,999.51	50.4052	7,999.51	51.9749	7,999.51	48.7304
8,282.23	80.802	8,282.23	80.483	8,282.23	79.9194	8,282.23	78.6346	8,282.23	77.417	8,282.23	76.6363	8,282.23	76.1596	8,282.23	74.6549	8,282.23	74.7415	8,282.23	72.5827	8,282.23	70.8031	8,282.23	67.9248	8,282.23	64.9606	8,282.23	65.9689	8,282.23	65.409	8,282.23	61.6766	8,282.23	61.4258	8,282.23	58.9765	8,282.23	50.3438	8,282.23	56.545	8,282.23	48.0865	8,282.23	56.8765	8,282.23	47.0101	8,282.23	56.4021	8,282.23	46.1823	8,282.23	53.8961	8,282.23	52.5885	8,282.23	54.1796	8,282.23	48.4597	8,282.23	57.9091	8,282.23	53.1233	8,282.23	56.2335	8,282.23	49.7144	8,282.23	51.8237	8,282.23	51.2663	8,282.23	47.5066
8,573.73	81.1181	8,573.73	80.6858	8,573.73	79.7618	8,573.73	78.905	8,573.73	77.5672	8,573.73	76.7998	8,573.73	75.5819	8,573.73	75.1149	8,573.73	74.5252	8,573.73	71.9771	8,573.73	69.9995	8,573.73	67.9226	8,573.73	67.4534	8,573.73	65.3088	8,573.73	64.0412	8,573.73	60.5918	8,573.73	57.2443	8,573.73	60.0849	8,573.73	53.7388	8,573.73	56.2933	8,573.73	53.6315	8,573.73	55.2869	8,573.73	50.7191	8,573.73	54.4711	8,573.73	39.0875	8,573.73	54.556	8,573.73	53.9333	8,573.73	54.6597	8,573.73	50.0145	8,573.73	56.9737	8,573.73	52.1355	8,573.73	56.7601	8,573.73	47.6483	8,573.73	52.081	8,573.73	50.2214	8,573.73	47.3491
8,876.95	81.0039	8,876.95	80.6414	8,876.95	79.8608	8,876.95	78.7753	8,876.95	77.2671	8,876.95	77.036	8,876.95	75.7075	8,876.95	74.994	8,876.95	74.1831	8,876.95	71.843	8,876.95	70.2265	8,876.95	67.8462	8,876.95	69.5723	8,876.95	63.8934	8,876.95	59.1105	8,876.95	58.034	8,876.95	48.3931	8,876.95	57.4201	8,876.95	51.9487	8,876.95	56.0717	8,876.95	52.2833	8,876.95	54.6733	8,876.95	50.4766	8,876.95	52.8658	8,876.95	35.0489	8,876.95	53.1299	8,876.95	53.6782	8,876.95	54.5498	8,876.95	43.1405	8,876.95	56.7044	8,876.95	51.1233	8,876.95	55.4832	8,876.95	45.4005	8,876.95	52.5237	8,876.95	49.0122	8,876.95	43.491
9,188.96	81.2159	9,188.96	80.7858	9,188.96	79.9424	9,188.96	78.8958	9,188.96	78.0457	9,188.96	77.0604	9,188.96	76.1045	9,188.96	75.0908	9,188.96	73.6446	9,188.96	71.8732	9,188.96	70.8965	9,188.96	66.1411	9,188.96	69.8916	9,188.96	63.1889	9,188.96	39.1755	9,188.96	59.8003	9,188.96	52.9875	9,188.96	57.5133	9,188.96	49.2688	9,188.96	56.3872	9,188.96	46.2025	9,188.96	54.583	9,188.96	45.7057	9,188.96	53.4233	9,188.96	39.229	9,188.96	53.3355	9,188.96	51.6636	9,188.96	54.278	9,188.96	41.5535	9,188.96	56.2579	9,188.96	50.6868	9,188.96	55.9703	9,188.96	46.9816	9,188.96	53.6095	9,188.96	47.7019	9,188.96	46.288
9,514.16	81.5023	9,514.16	80.9902	9,514.16	80.3765	9,514.16	79.1804	9,514.16	78.313	9,514.16	77.2087	9,514.16	76.3015	9,514.16	75.3167	9,514.16	73.3767	9,514.16	71.0781	9,514.16	71.986	9,514.16	65.7317	9,514.16	68.0115	9,514.16	64.1769	9,514.16	59.6288	9,514.16	58.1977	9,514.16	53.8092	9,514.16	57.8012	9,514.16	51.0928	9,514.16	55.1159	9,514.16	42.1444	9,514.16	53.1407	9,514.16	36.582	9,514.16	53.7223	9,514.16	45.4573	9,514.16	52.4275	9,514.16	48.7611	9,514.16	53.9893	9,514.16	47.983	9,514.16	56.6334	9,514.16	48.8828	9,514.16	55.9537	9,514.16	44.3118	9,514.16	54.3749	9,514.16	47.7439	9,514.16	46.153
9,849.61	81.66	9,849.61	81.0742	9,849.61	80.7481	9,849.61	79.09	9,849.61	78.7647	9,849.61	77.4623	9,849.61	76.7738	9,849.61	75.1317	9,849.61	74.8368	9,849.61	70.5899	9,849.61	72.3021	9,849.61	66.0961	9,849.61	62.951	9,849.61	62.3421	9,849.61	62.4137	9,849.61	58.1336	9,849.61	51.7827	9,849.61	57.7247	9,849.61	55.1968	9,849.61	56.4204	9,849.61	44.1777	9,849.61	53.6868	9,849.61	38.9419	9,849.61	53.9168	9,849.61	47.4176	9,849.61	52.093	9,849.61	47.9531	9,849.61	53.1483	9,849.61	41.7295	9,849.61	56.0296	9,849.61	45.3696	9,849.61	56.4631	9,849.61	44.9867	9,849.61	54.4658	9,849.61	44.7155	9,849.61	47.2835
10,196.8	81.3428	10,196.8	80.4611	10,196.8	80.8988	10,196.8	78.8584	10,196.8	79.3321	10,196.8	77.396	10,196.8	77.1361	10,196.8	74.8659	10,196.8	75.0335	10,196.8	70.8187	10,196.8	72.5314	10,196.8	65.4628	10,196.8	61.5518	10,196.8	63.0073	10,196.8	60.7452	10,196.8	60.3009	10,196.8	46.446	10,196.8	57.899	10,196.8	53.6894	10,196.8	56.1876	10,196.8	49.2587	10,196.8	54.9187	10,196.8	37.0069	10,196.8	54.087	10,196.8	48.5534	10,196.8	52.9249	10,196.8	47.851	10,196.8	53.7828	10,196.8	43.9658	10,196.8	56.0952	10,196.8	45.3151	10,196.8	56.3716	10,196.8	44.9702	10,196.8	54.0257	10,196.8	44.0552	10,196.8	44.9321
10,555.7	80.8662	10,555.7	80.1154	10,555.7	80.3243	10,555.7	78.7081	10,555.7	79.2722	10,555.7	77.2254	10,555.7	76.9748	10,555.7	74.5962	10,555.7	74.0222	10,555.7	70.6739	10,555.7	71.6636	10,555.7	65.0851	10,555.7	65.3341	10,555.7	63.7266	10,555.7	60.4249	10,555.7	59.7573	10,555.7	53.1217	10,555.7	57.5923	10,555.7	39.7731	10,555.7	54.7031	10,555.7	46.8499	10,555.7	54.3669	10,555.7	37.377	10,555.7	52.8801	10,555.7	48.2054	10,555.7	52.4498	10,555.7	46.9254	10,555.7	53.3797	10,555.7	45.0805	10,555.7	54.7159	10,555.7	47.8298	10,555.7	56.146	10,555.7	38.8242	10,555.7	52.627	10,555.7	44.3605	10,555.7	44.7394
10,927.7	80.5697	10,927.7	80.1722	10,927.7	80.0079	10,927.7	78.8343	10,927.7	79.1809	10,927.7	77.0271	10,927.7	77.338	10,927.7	74.2876	10,927.7	74.518	10,927.7	69.7373	10,927.7	69.1513	10,927.7	65.2564	10,927.7	66.3308	10,927.7	62.832	10,927.7	62.363	10,927.7	60.0003	10,927.7	56.2432	10,927.7	57.8771	10,927.7	47.2084	10,927.7	54.9581	10,927.7	46.6038	10,927.7	54.0136	10,927.7	45.5677	10,927.7	53.0292	10,927.7	42.805	10,927.7	52.4456	10,927.7	48.9035	10,927.7	52.7226	10,927.7	47.8423	10,927.7	52.9955	10,927.7	44.9691	10,927.7	55.7904	10,927.7	41.789	10,927.7	52.5357	10,927.7	43.8028	10,927.7	40.5987
11,313	80.9285	11,313	80.466	11,313	79.8881	11,313	79.4673	11,313	79.0087	11,313	77.0633	11,313	77.2812	11,313	74.2935	11,313	73.7763	11,313	69.2338	11,313	67.5402	11,313	64.8527	11,313	64.2147	11,313	63.9838	11,313	63.9281	11,313	59.6265	11,313	56.7455	11,313	56.4344	11,313	48.0871	11,313	53.5825	11,313	47.2701	11,313	51.4347	11,313	51.7542	11,313	51.4423	11,313	28.4926	11,313	51.3639	11,313	47.3833	11,313	51.6217	11,313	45.652	11,313	53.1794	11,313	44.0447	11,313	55.6672	11,313	46.1728	11,313	52.6136	11,313	42.6507	11,313	39.1491
11,712.9	81.2547	11,712.9	80.816	11,712.9	80.2308	11,712.9	79.9079	11,712.9	78.8013	11,712.9	77.2166	11,712.9	76.4376	11,712.9	74.0114	11,712.9	72.6211	11,712.9	68.5342	11,712.9	68.5476	11,712.9	64.5718	11,712.9	67.0027	11,712.9	62.1378	11,712.9	63.9031	11,712.9	58.4242	11,712.9	57.6622	11,712.9	54.0699	11,712.9	49.7549	11,712.9	53.5047	11,712.9	36.9386	11,712.9	50.7712	11,712.9	50.0171	11,712.9	49.8128	11,712.9	46.5951	11,712.9	50.3499	11,712.9	47.0947	11,712.9	49.0866	11,712.9	41.5542	11,712.9	52.3845	11,712.9	41.2768	11,712.9	54.3327	11,712.9	41.3801	11,712.9	49.8097	11,712.9	36.0346	11,712.9	36.1964
12,126	81.5226	12,126	81.2388	12,126	80.5771	12,126	79.8332	12,126	78.7612	12,126	77.6233	12,126	76.2301	12,126	73.1984	12,126	72.0406	12,126	68.6683	12,126	68.7592	12,126	64.9143	12,126	68.7969	12,126	61.7418	12,126	60.9893	12,126	57.979	12,126	58.2547	12,126	53.4074	12,126	42.2616	12,126	51.4353	12,126	44.4255	12,126	50.4065	12,126	42.6281	12,126	49.2082	12,126	46.8537	12,126	50.2113	12,126	40.0637	12,126	49.1904	12,126	43.9294	12,126	51.1221	12,126	45.4446	12,126	53.7641	12,126	37.4235	12,126	49.3213	12,126	43.7936	12,126	39.4473
12,553.7	81.6015	12,553.7	81.506	12,553.7	80.8447	12,553.7	79.7921	12,553.7	79.2733	12,553.7	77.4791	12,553.7	76.502	12,553.7	72.8233	12,553.7	72.185	12,553.7	68.0373	12,553.7	69.6831	12,553.7	65.6035	12,553.7	67.5192	12,553.7	60.5373	12,553.7	61.2163	12,553.7	55.2677	12,553.7	58.2095	12,553.7	53.0849	12,553.7	51.099	12,553.7	51.3793	12,553.7	46.7454	12,553.7	48.8566	12,553.7	38.4869	12,553.7	48.8383	12,553.7	41.0762	12,553.7	49.7694	12,553.7	24.2715	12,553.7	48.3549	12,553.7	47.7164	12,553.7	50.4225	12,553.7	42.5842	12,553.7	53.4924	12,553.7	42.1471	12,553.7	49.5862	12,553.7	43.2197	12,553.7	40.4847
12,996.1	81.6049	12,996.1	81.3661	12,996.1	81.0145	12,996.1	79.8713	12,996.1	79.9912	12,996.1	77.1736	12,996.1	76.6062	12,996.1	72.6896	12,996.1	72.0206	12,996.1	69.0056	12,996.1	70.2015	12,996.1	64.7268	12,996.1	64.4747	12,996.1	59.4934	12,996.1	63.8035	12,996.1	58.3079	12,996.1	60.2535	12,996.1	54.0086	12,996.1	53.1053	12,996.1	51.0579	12,996.1	49.6863	12,996.1	50.5241	12,996.1	39.4145	12,996.1	48.1456	12,996.1	25.9799	12,996.1	50.5346	12,996.1	33.5251	12,996.1	49.1934	12,996.1	48.0789	12,996.1	50.7283	12,996.1	44.1454	12,996.1	52.9239	12,996.1	45.3069	12,996.1	49.8679	12,996.1	45.179	12,996.1	40.7355
13,454.6	81.3027	13,454.6	81.2086	13,454.6	80.9319	13,454.6	79.7669	13,454.6	80.526	13,454.6	77.218	13,454.6	77.723	13,454.6	72.5085	13,454.6	71.8487	13,454.6	69.6348	13,454.6	68.9909	13,454.6	64.7885	13,454.6	65.4964	13,454.6	59.9952	13,454.6	65.0501	13,454.6	56.0742	13,454.6	54.5494	13,454.6	52.3373	13,454.6	53.1227	13,454.6	52.0655	13,454.6	51.4804	13,454.6	49.8525	13,454.6	49.1463	13,454.6	48.0911	13,454.6	42.3576	13,454.6	49.1469	13,454.6	29.305	13,454.6	49.6597	13,454.6	47.4214	13,454.6	50.4109	13,454.6	43.8476	13,454.6	53.4478	13,454.6	44.241	13,454.6	49.2794	13,454.6	45.2724	13,454.6	41.1719
13,929.2	81.042	13,929.2	81.0733	13,929.2	80.9515	13,929.2	79.9208	13,929.2	80.7937	13,929.2	76.648	13,929.2	77.1708	13,929.2	73.0772	13,929.2	71.8172	13,929.2	69.5657	13,929.2	68.9286	13,929.2	65.0447	13,929.2	65.7578	13,929.2	57.902	13,929.2	63.4922	13,929.2	58.7119	13,929.2	59.3125	13,929.2	55.1378	13,929.2	52.3455	13,929.2	52.2051	13,929.2	49.8156	13,929.2	50.9979	13,929.2	50.1681	13,929.2	48.7907	13,929.2	43.8022	13,929.2	49.5563	13,929.2	30.0501	13,929.2	50.5825	13,929.2	46.0737	13,929.2	50.4439	13,929.2	41.6093	13,929.2	52.8428	13,929.2	43.1287	13,929.2	49.7774	13,929.2	45.4723	13,929.2	41.751
14,419.9	81.1834	14,419.9	81.3477	14,419.9	80.6707	14,419.9	80.4904	14,419.9	80.9159	14,419.9	76.588	14,419.9	77.9019	14,419.9	72.9046	14,419.9	73.5037	14,419.9	69.9601	14,419.9	69.6239	14,419.9	63.3778	14,419.9	66.8348	14,419.9	59.3548	14,419.9	60.7674	14,419.9	57.3953	14,419.9	58.0712	14,419.9	54.4768	14,419.9	52.0272	14,419.9	50.4229	14,419.9	48.1007	14,419.9	49.8327	14,419.9	51.2984	14,419.9	48.3194	14,419.9	41.0394	14,419.9	50.1602	14,419.9	21.0326	14,419.9	48.8969	14,419.9	44.8621	14,419.9	47.0036	14,419.9	44.1103	14,419.9	51.9716	14,419.9	37.1257	14,419.9	49.2533	14,419.9	45.99	14,419.9	42.6256
14,928.2	81.4952	14,928.2	81.8216	14,928.2	80.5687	14,928.2	80.8011	14,928.2	80.2822	14,928.2	77.0907	14,928.2	77.1823	14,928.2	72.9265	14,928.2	74.4712	14,928.2	68.5802	14,928.2	69.3384	14,928.2	63.3841	14,928.2	66.4637	14,928.2	57.582	14,928.2	61.4313	14,928.2	58.4045	14,928.2	54.2256	14,928.2	54.1692	14,928.2	54.2289	14,928.2	50.652	14,928.2	47.2159	14,928.2	48.5799	14,928.2	47.2806	14,928.2	46.9089	14,928.2	39.9648	14,928.2	51.0446	14,928.2	39.986	14,928.2	48.2113	14,928.2	45.0242	14,928.2	48.0171	14,928.2	42.1524	14,928.2	52.5976	14,928.2	39.5086	14,928.2	51.141	14,928.2	47.2158	14,928.2	36.7111
15,455.6	81.5981	15,455.6	82.0294	15,455.6	81.2412	15,455.6	80.8315	15,455.6	80.4518	15,455.6	76.9898	15,455.6	77.3394	15,455.6	73.3679	15,455.6	72.9693	15,455.6	67.8625	15,455.6	70.434	15,455.6	63.4391	15,455.6	63.9701	15,455.6	60.0776	15,455.6	61.9782	15,455.6	56.776	15,455.6	56.7561	15,455.6	52.2027	15,455.6	53.5846	15,455.6	48.8006	15,455.6	48.9931	15,455.6	46.6756	15,455.6	49.3757	15,455.6	46.0889	15,455.6	40.3376	15,455.6	48.7207	15,455.6	45.0132	15,455.6	48.1213	15,455.6	47.1943	15,455.6	49.3028	15,455.6	40.2947	15,455.6	51.6704	15,455.6	42.9268	15,455.6	47.3826	15,455.6	46.3674	15,455.6	40.7888
16,000.5	81.8569	16,000.5	82.3222	16,000.5	81.9887	16,000.5	80.6086	16,000.5	81.2117	16,000.5	76.8321	16,000.5	77.2858	16,000.5	73.6483	16,000.5	74.2495	16,000.5	66.5039	16,000.5	70.1087	16,000.5	65.0565	16,000.5	63.7747	16,000.5	58.6001	16,000.5	59.8133	16,000.5	55.5969	16,000.5	57.7137	16,000.5	51.1449	16,000.5	53.4857	16,000.5	49.0051	16,000.5	53.473	16,000.5	46.6811	16,000.5	50.8147	16,000.5	45.4981	16,000.5	38.2788	16,000.5	47.2779	16,000.5	39.9829	16,000.5	49.3767	16,000.5	42.6691	16,000.5	48.8701	16,000.5	45.9733	16,000.5	45.9917	16,000.5	37.5693	16,000.5	46.3141	16,000.5	43.7036	16,000.5	45.4163
16,564.5	81.3827	16,564.5	82.2916	16,564.5	82.1847	16,564.5	80.5206	16,564.5	81.7647	16,564.5	76.5374	16,564.5	78.2103	16,564.5	73.2047	16,564.5	73.6026	16,564.5	66.0403	16,564.5	69.4969	16,564.5	64.9969	16,564.5	62.7845	16,564.5	58.5658	16,564.5	58.5993	16,564.5	53.2312	16,564.5	57.9662	16,564.5	50.4792	16,564.5	52.1714	16,564.5	49.6613	16,564.5	54.4824	16,564.5	46.6472	16,564.5	51.4316	16,564.5	46.1429	16,564.5	41.4487	16,564.5	48.6898	16,564.5	40.012	16,564.5	49.8116	16,564.5	44.8651	16,564.5	46.6741	16,564.5	45.5794	16,564.5	45.9463	16,564.5	38.8771	16,564.5	47.3253	16,564.5	41.8388	16,564.5	44.8201
17,148.9	80.932	17,148.9	81.6919	17,148.9	81.8056	17,148.9	79.9676	17,148.9	81.4647	17,148.9	76.545	17,148.9	77.9914	17,148.9	72.8283	17,148.9	73.9389	17,148.9	66.4682	17,148.9	68.0808	17,148.9	65.6042	17,148.9	62.9124	17,148.9	56.5125	17,148.9	62.1224	17,148.9	54.8016	17,148.9	54.5971	17,148.9	51.4519	17,148.9	50.8865	17,148.9	50.7329	17,148.9	55.3209	17,148.9	46.7831	17,148.9	52.4906	17,148.9	46.0744	17,148.9	42.6412	17,148.9	50.8791	17,148.9	42.5653	17,148.9	49.0599	17,148.9	44.6052	17,148.9	48.709	17,148.9	43.1361	17,148.9	49.2727	17,148.9	36.3	17,148.9	49.0818	17,148.9	39.882	17,148.9	45.0059
17,752.4	80.8931	17,752.4	81.6006	17,752.4	81.3852	17,752.4	79.9105	17,752.4	80.7794	17,752.4	77.0701	17,752.4	77.5478	17,752.4	72.2481	17,752.4	73.5881	17,752.4	66.744	17,752.4	68.0675	17,752.4	64.5934	17,752.4	64.3399	17,752.4	58.2179	17,752.4	58.9927	17,752.4	54.9309	17,752.4	55.9329	17,752.4	50.1928	17,752.4	48.616	17,752.4	50.5603	17,752.4	57.0385	17,752.4	46.3985	17,752.4	52.5126	17,752.4	45.8592	17,752.4	45.6501	17,752.4	50.3929	17,752.4	43.0108	17,752.4	48.0844	17,752.4	42.5513	17,752.4	49.2972	17,752.4	39.5453	17,752.4	49.0429	17,752.4	36.5783	17,752.4	48.7112	17,752.4	39.1327	17,752.4	43.153
18,379.4	80.4074	18,379.4	81.3809	18,379.4	80.8367	18,379.4	79.6325	18,379.4	79.6835	18,379.4	77.1931	18,379.4	76.8322	18,379.4	71.7164	18,379.4	72.8936	18,379.4	65.889	18,379.4	67.933	18,379.4	62.8608	18,379.4	63.7911	18,379.4	58.1362	18,379.4	59.2815	18,379.4	56.155	18,379.4	55.8296	18,379.4	48.7471	18,379.4	47.048	18,379.4	50.4111	18,379.4	55.3958	18,379.4	43.4513	18,379.4	51.5658	18,379.4	43.303	18,379.4	44.6238	18,379.4	50.4302	18,379.4	36.1141	18,379.4	47.3226	18,379.4	42.3742	18,379.4	48.0424	18,379.4	45.6704	18,379.4	49.1148	18,379.4	36.1524	18,379.4	48.6207	18,379.4	41.1917	18,379.4	44.3216
19,026.9	79.5497	19,026.9	80.3874	19,026.9	79.9954	19,026.9	78.5472	19,026.9	78.6773	19,026.9	76.0713	19,026.9	76.147	19,026.9	69.6531	19,026.9	71.6779	19,026.9	64.8534	19,026.9	67.3895	19,026.9	61.0266	19,026.9	63.3956	19,026.9	58.3984	19,026.9	56.3695	19,026.9	53.1242	19,026.9	54.1729	19,026.9	46.2948	19,026.9	38.8842	19,026.9	48.258	19,026.9	55.2504	19,026.9	42.3009	19,026.9	49.9172	19,026.9	39.7924	19,026.9	41.381	19,026.9	49.1994	19,026.9	36.522	19,026.9	45.2124	19,026.9	42.4911	19,026.9	46.1122	19,026.9	42.8363	19,026.9	50.208	19,026.9	29.4423	19,026.9	47.3824	19,026.9	40.6527	19,026.9	42.2803
19,697.8	77.726	19,697.8	78.7005	19,697.8	78.6277	19,697.8	76.8385	19,697.8	77.581	19,697.8	73.6659	19,697.8	75.0907	19,697.8	66.9581	19,697.8	69.8343	19,697.8	62.6261	19,697.8	65.7611	19,697.8	61.0818	19,697.8	60.216	19,697.8	56.2793	19,697.8	55.6259	19,697.8	50.9449	19,697.8	47.4535	19,697.8	42.2455	19,697.8	35.4946	19,697.8	45.6382	19,697.8	55.6222	19,697.8	42.0132	19,697.8	51.0277	19,697.8	37.6957	19,697.8	41.5243	19,697.8	47.5711	19,697.8	37.5363	19,697.8	43.3022	19,697.8	42.9349	19,697.8	43.0463	19,697.8	36.5988	19,697.8	49.3232	19,697.8	29.5477	19,697.8	46.6158	19,697.8	40.713	19,697.8	40.22
19,999.5	76.8861	19,999.5	77.7219	19,999.5	77.8367	19,999.5	75.7462	19,999.5	77.2073	19,999.5	72.4823	19,999.5	74.5028	19,999.5	65.8355	19,999.5	69.2118	19,999.5	60.4857	19,999.5	63.914	19,999.5	61.233	19,999.5	56.2456	19,999.5	55.8295	19,999.5	53.9742	19,999.5	46.7701	19,999.5	49.3506	19,999.5	45.3128	19,999.5	29.1329	19,999.5	45.2504	19,999.5	53.8754	19,999.5	41.6676	19,999.5	49.2247	19,999.5	37.6597	19,999.5	38.2576	19,999.5	46.3174	19,999.5	42.3611	19,999.5	40.707	19,999.5	42.0696	19,999.5	33.8568	19,999.5	34.4928	19,999.5	48.1436	19,999.5	34.4028	19,999.5	40.3413	19,999.5	40.1229	19,999.5	45.93
