"SPL Vertical"																																																																							
"On-Axis"		"10°"		"-10°"		"20°"		"-20°"		"30°"		"-30°"		"40°"		"-40°"		"50°"		"-50°"		"60°"		"-60°"		"70°"		"-70°"		"80°"		"-80°"		"90°"		"-90°"		"100°"		"-100°"		"110°"		"-110°"		"120°"		"-120°"		"130°"		"-130°"		"140°"		"-140°"		"150°"		"-150°"		"160°"		"-160°"		"170°"		"-170°"		"180°"	
"Frequency [Hz]"	"Sound Pessure Level [dB]  / [2.83V 1m] "	"Frequency [Hz]"	"Sound Pessure Level [dB]  / [2.83V 1m] "	"Frequency [Hz]"	"Sound Pessure Level [dB]  / [2.83V 1m] "	"Frequency [Hz]"	"Sound Pessure Level [dB]  / [2.83V 1m] "	"Frequency [Hz]"	"Sound Pessure Level [dB]  / [2.83V 1m] "	"Frequency [Hz]"	"Sound Pessure Level [dB]  / [2.83V 1m] "	"Frequency [Hz]"	"Sound Pessure Level [dB]  / [2.83V 1m] "	"Frequency [Hz]"	"Sound Pessure Level [dB]  / [2.83V 1m] "	"Frequency [Hz]"	"Sound Pessure Level [dB]  / [2.83V 1m] "	"Frequency [Hz]"	"Sound Pessure Level [dB]  / [2.83V 1m] "	"Frequency [Hz]"	"Sound Pessure Level [dB]  / [2.83V 1m] "	"Frequency [Hz]"	"Sound Pessure Level [dB]  / [2.83V 1m] "	"Frequency [Hz]"	"Sound Pessure Level [dB]  / [2.83V 1m] "	"Frequency [Hz]"	"Sound Pessure Level [dB]  / [2.83V 1m] "	"Frequency [Hz]"	"Sound Pessure Level [dB]  / [2.83V 1m] "	"Frequency [Hz]"	"Sound Pessure Level [dB]  / [2.83V 1m] "	"Frequency [Hz]"	"Sound Pessure Level [dB]  / [2.83V 1m] "	"Frequency [Hz]"	"Sound Pessure Level [dB]  / [2.83V 1m] "	"Frequency [Hz]"	"Sound Pessure Level [dB]  / [2.83V 1m] "	"Frequency [Hz]"	"Sound Pessure Level [dB]  / [2.83V 1m] "	"Frequency [Hz]"	"Sound Pessure Level [dB]  / [2.83V 1m] "	"Frequency [Hz]"	"Sound Pessure Level [dB]  / [2.83V 1m] "	"Frequency [Hz]"	"Sound Pessure Level [dB]  / [2.83V 1m] "	"Frequency [Hz]"	"Sound Pessure Level [dB]  / [2.83V 1m] "	"Frequency [Hz]"	"Sound Pessure Level [dB]  / [2.83V 1m] "	"Frequency [Hz]"	"Sound Pessure Level [dB]  / [2.83V 1m] "	"Frequency [Hz]"	"Sound Pessure Level [dB]  / [2.83V 1m] "	"Frequency [Hz]"	"Sound Pessure Level [dB]  / [2.83V 1m] "	"Frequency [Hz]"	"Sound Pessure Level [dB]  / [2.83V 1m] "	"Frequency [Hz]"	"Sound Pessure Level [dB]  / [2.83V 1m] "	"Frequency [Hz]"	"Sound Pessure Level [dB]  / [2.83V 1m] "	"Frequency [Hz]"	"Sound Pessure Level [dB]  / [2.83V 1m] "	"Frequency [Hz]"	"Sound Pessure Level [dB]  / [2.83V 1m] "	"Frequency [Hz]"	"Sound Pessure Level [dB]  / [2.83V 1m] "	"Frequency [Hz]"	"Sound Pessure Level [dB]  / [2.83V 1m] "	"Frequency [Hz]"	"Sound Pessure Level [dB]  / [2.83V 1m] "
20.5078	63.0788	20.5078	62.4721	20.5078	63.575	20.5078	61.7802	20.5078	63.9474	20.5078	61.054	20.5078	64.1877	20.5078	60.3875	20.5078	64.2888	20.5078	59.9273	20.5078	64.2444	20.5078	59.8362	20.5078	64.0491	20.5078	60.1967	20.5078	63.7032	20.5078	60.9417	20.5078	63.2204	20.5078	61.9067	20.5078	62.645	20.5078	62.9316	20.5078	62.0765	20.5078	63.9062	20.5078	61.6878	20.5078	64.7656	20.5078	61.6779	20.5078	65.4725	20.5078	62.1334	20.5078	66.0032	20.5078	62.9409	20.5078	66.3403	20.5078	63.8848	20.5078	66.4698	20.5078	64.7825	20.5078	66.3803	20.5078	65.5263	20.5078	66.0652
21.9727	62.7162	21.9727	61.8877	21.9727	63.3624	21.9727	60.9217	21.9727	63.8108	21.9727	59.9388	21.9727	64.0532	21.9727	59.2026	21.9727	64.0797	21.9727	59.09	21.9727	63.8761	21.9727	59.7913	21.9727	63.4239	21.9727	61.0819	21.9727	62.7075	21.9727	62.5884	21.9727	61.7383	21.9727	64.0646	21.9727	60.6307	21.9727	65.4013	21.9727	59.7638	21.9727	66.5594	21.9727	59.8014	21.9727	67.5262	21.9727	60.9914	21.9727	68.2958	21.9727	62.7686	21.9727	68.8621	21.9727	64.5499	21.9727	69.2163	21.9727	66.0875	21.9727	69.3466	21.9727	67.3187	21.9727	69.239	21.9727	68.2432	21.9727	68.8771
23.4375	63.4822	23.4375	62.8365	23.4375	64.0406	23.4375	62.2257	23.4375	64.4504	23.4375	61.8543	23.4375	64.6816	23.4375	61.9557	23.4375	64.7186	23.4375	62.6273	23.4375	64.5536	23.4375	63.7376	23.4375	64.1912	23.4375	65.0538	23.4375	63.6667	23.4375	66.3919	23.4375	63.0886	23.4375	67.6493	23.4375	62.6975	23.4375	68.7787	23.4375	62.8386	23.4375	69.7591	23.4375	63.695	23.4375	70.5805	23.4375	65.0699	23.4375	71.2356	23.4375	66.6099	23.4375	71.7168	23.4375	68.069	23.4375	72.0147	23.4375	69.3333	23.4375	72.1188	23.4375	70.3629	23.4375	72.0171	23.4375	71.1496	23.4375	71.6979
24.9023	66.2922	24.9023	65.6583	24.9023	66.801	24.9023	64.964	24.9023	67.1531	24.9023	64.3353	24.9023	67.3316	24.9023	63.9737	24.9023	67.3246	24.9023	64.0905	24.9023	67.1228	24.9023	64.7514	24.9023	66.7225	24.9023	65.8138	24.9023	66.1389	24.9023	67.056	24.9023	65.4383	24.9023	68.3074	24.9023	64.7985	24.9023	69.4718	24.9023	64.549	24.9023	70.5024	24.9023	65.0065	24.9023	71.3765	24.9023	66.1346	24.9023	72.0812	24.9023	67.5823	24.9023	72.6063	24.9023	69.028	24.9023	72.9412	24.9023	70.3043	24.9023	73.0745	24.9023	71.3475	24.9023	72.9938	24.9023	72.1408	24.9023	72.6865
26.3672	67.4941	26.3672	66.9869	26.3672	67.9332	26.3672	66.5066	26.3672	68.251	26.3672	66.1999	26.3672	68.4181	26.3672	66.2348	26.3672	68.4189	26.3672	66.7085	26.3672	68.2473	26.3672	67.5717	26.3672	67.9117	26.3672	68.671	26.3672	67.4522	26.3672	69.8497	26.3672	66.9729	26.3672	70.9993	26.3672	66.6789	26.3672	72.058	26.3672	66.8388	26.3672	72.993	26.3672	67.5913	26.3672	73.786	26.3672	68.7964	26.3672	74.4246	26.3672	70.1761	26.3672	74.8979	26.3672	71.5122	26.3672	75.1952	26.3672	72.6885	26.3672	75.305	26.3672	73.6561	26.3672	75.216	26.3672	74.3992	26.3672	74.9172
27.832	69.1159	27.832	68.6189	27.832	69.5429	27.832	68.1408	27.832	69.85	27.832	67.8201	27.832	70.0102	27.832	67.8206	27.832	70.0092	27.832	68.247	27.832	69.8428	27.832	69.066	27.832	69.5218	27.832	70.1345	27.832	69.0884	27.832	71.2966	27.832	68.6467	27.832	72.4398	27.832	68.3918	27.832	73.4983	27.832	68.5693	27.832	74.4365	27.832	69.3018	27.832	75.2345	27.832	70.4609	27.832	75.8789	27.832	71.7915	27.832	76.3586	27.832	73.087	27.832	76.6627	27.832	74.233	27.832	76.78	27.832	75.1784	27.832	76.6994	27.832	75.9051	27.832	76.4105
29.2969	71.1513	29.2969	70.7303	29.2969	71.5224	29.2969	70.3386	29.2969	71.7955	29.2969	70.0903	29.2969	71.9432	29.2969	70.1125	29.2969	71.9508	29.2969	70.4865	29.2969	71.8152	29.2969	71.1945	29.2969	71.5484	29.2969	72.1328	29.2969	71.1911	29.2969	73.176	29.2969	70.8347	29.2969	74.2232	29.2969	70.639	29.2969	75.2085	29.2969	70.7984	29.2969	76.0924	29.2969	71.4202	29.2969	76.8505	29.2969	72.4252	29.2969	77.4661	29.2969	73.615	29.2969	77.9257	29.2969	74.8052	29.2969	78.2169	29.2969	75.8795	29.2969	78.3276	29.2969	76.7784	29.2969	78.2469	29.2969	77.4763	29.2969	77.9654
30.7617	72.5066	30.7617	72.1193	30.7617	72.8522	30.7617	71.7692	30.7617	73.107	30.7617	71.5663	30.7617	73.2425	30.7617	71.6285	30.7617	73.2441	30.7617	72.0263	30.7617	73.1094	30.7617	72.738	30.7617	72.8528	30.7617	73.6651	30.7617	72.5189	30.7617	74.69	30.7617	72.2029	30.7617	75.7179	30.7617	72.0637	30.7617	76.6856	30.7617	72.2821	30.7617	77.5547	30.7617	72.9436	30.7617	78.301	30.7617	73.9591	30.7617	78.9076	30.7617	75.1381	30.7617	79.361	30.7617	76.3087	30.7617	79.6488	30.7617	77.3625	30.7617	79.7592	30.7617	78.2436	30.7617	79.6815	30.7617	78.9275	30.7617	79.4063
32.2266	74.5198	32.2266	74.1832	32.2266	74.8263	32.2266	73.8847	32.2266	75.058	32.2266	73.7156	32.2266	75.1883	32.2266	73.7711	32.2266	75.2037	32.2266	74.1111	32.2266	75.1025	32.2266	74.7262	32.2266	74.8991	32.2266	75.544	32.2266	74.6337	32.2266	76.4678	32.2266	74.3861	32.2266	77.4121	32.2266	74.2823	32.2266	78.3148	32.2266	74.4645	32.2266	79.1345	32.2266	75.0111	32.2266	79.844	32.2266	75.873	32.2266	80.4236	32.2266	76.9081	32.2266	80.8576	32.2266	77.9673	32.2266	81.1324	32.2266	78.9435	32.2266	81.2358	32.2266	79.774	32.2266	81.1573	32.2266	80.427	32.2266	80.889
33.6914	76.4144	33.6914	76.1576	33.6914	76.6569	33.6914	75.944	33.6914	76.8447	33.6914	75.8452	33.6914	76.9527	33.6914	75.9321	33.6914	76.9683	33.6914	76.2488	33.6914	76.8912	33.6914	76.7909	33.6914	76.7371	33.6914	77.5083	33.6914	76.545	33.6914	78.328	33.6914	76.3855	33.6914	79.1795	33.6914	76.3611	33.6914	80.0063	33.6914	76.5787	33.6914	80.7673	33.6914	77.0935	33.6914	81.4333	33.6914	77.8679	33.6914	81.9822	33.6914	78.7935	33.6914	82.3964	33.6914	79.7493	33.6914	82.6612	33.6914	80.6408	33.6914	82.7637	33.6914	81.4069	33.6914	82.6937	33.6914	82.0136	33.6914	82.4443
35.1563	77.9782	35.1563	77.7496	35.1563	78.1986	35.1563	77.5649	35.1563	78.3736	35.1563	77.4873	35.1563	78.4795	35.1563	77.578	35.1563	78.5049	35.1563	77.8755	35.1563	78.4502	35.1563	78.3775	35.1563	78.3309	35.1563	79.0425	35.1563	78.1835	35.1563	79.8074	35.1563	78.0709	35.1563	80.6085	35.1563	78.0804	35.1563	81.3922	35.1563	78.3006	35.1563	82.1184	35.1563	78.7776	35.1563	82.7573	35.1563	79.4836	35.1563	83.2861	35.1563	80.3302	35.1563	83.6868	35.1563	81.2126	35.1563	83.9442	35.1563	82.0435	35.1563	84.0456	35.1563	82.7636	35.1563	83.9814	35.1563	83.3371	35.1563	83.7454
36.6211	79.6798	36.6211	79.4622	36.6211	79.8888	36.6211	79.2808	36.6211	80.0562	36.6211	79.1904	36.6211	80.1611	36.6211	79.2451	36.6211	80.1926	36.6211	79.4823	36.6211	80.1505	36.6211	79.907	36.6211	80.0476	36.6211	80.4894	36.6211	79.914	36.6211	81.1771	36.6211	79.8017	36.6211	81.9118	36.6211	79.7839	36.6211	82.6418	36.6211	79.9391	36.6211	83.3256	36.6211	80.3177	36.6211	83.9315	36.6211	80.9111	36.6211	84.4351	36.6211	81.6535	36.6211	84.8168	36.6211	82.4531	36.6211	85.0605	36.6211	83.2249	36.6211	85.1533	36.6211	83.9062	36.6211	85.0858	36.6211	84.4565	36.6211	84.8531
38.0859	81.0388	38.0859	80.8566	38.0859	81.2185	38.0859	80.7126	38.0859	81.3655	38.0859	80.6542	38.0859	81.4596	38.0859	80.7274	38.0859	81.4906	38.0859	80.963	38.0859	81.4586	38.0859	81.365	38.0859	81.3762	38.0859	81.909	38.0859	81.2718	38.0859	82.5505	38.0859	81.1931	38.0859	83.2386	38.0859	81.2051	38.0859	83.9263	38.0859	81.3749	38.0859	84.5744	38.0859	81.7446	38.0859	85.1518	38.0859	82.3065	38.0859	85.6337	38.0859	83.0036	38.0859	86.0001	38.0859	83.7555	38.0859	86.2346	38.0859	84.4846	38.0859	86.3243	38.0859	85.1317	38.0859	86.2597	38.0859	85.6567	38.0859	86.0364
39.5508	82.5287	39.5508	82.3889	39.5508	82.675	39.5508	82.2897	39.5508	82.8011	39.5508	82.2696	39.5508	82.8892	39.5508	82.3643	39.5508	82.9301	39.5508	82.5972	39.5508	82.924	39.5508	82.9711	39.5508	82.8823	39.5508	83.4668	39.5508	82.8295	39.5508	84.0493	39.5508	82.8048	39.5508	84.6766	39.5508	82.8596	39.5508	85.3079	39.5508	83.045	39.5508	85.9074	39.5508	83.3932	39.5508	86.4453	39.5508	83.8998	39.5508	86.8971	39.5508	84.5223	39.5508	87.2425	39.5508	85.1967	39.5508	87.4649	39.5508	85.857	39.5508	87.5511	39.5508	86.4488	39.5508	87.4923	39.5508	86.933	39.5508	87.2851
41.0156	84.0253	41.0156	83.8882	41.0156	84.1658	41.0156	83.7841	41.0156	84.2864	41.0156	83.7466	41.0156	84.3715	41.0156	83.808	41.0156	84.4125	41.0156	83.9913	41.0156	84.4095	41.0156	84.3032	41.0156	84.3718	41.0156	84.7315	41.0156	84.3204	41.0156	85.248	41.0156	84.2892	41.0156	85.8159	41.0156	84.3224	41.0156	86.397	41.0156	84.4664	41.0156	86.9561	41.0156	84.7534	41.0156	87.4628	41.0156	85.1859	41.0156	87.8918	41.0156	85.7321	41.0156	88.2217	41.0156	86.3372	41.0156	88.4353	41.0156	86.9402	41.0156	88.5195	41.0156	87.4879	41.0156	88.4656	41.0156	87.9402	41.0156	88.2709
42.4805	85.3845	42.4805	85.2608	42.4805	85.5115	42.4805	85.1662	42.4805	85.6215	42.4805	85.1294	42.4805	85.7004	42.4805	85.1786	42.4805	85.7408	42.4805	85.3347	42.4805	85.7421	42.4805	85.6056	42.4805	85.7127	42.4805	85.9834	42.4805	85.6704	42.4805	86.446	42.4805	85.6446	42.4805	86.962	42.4805	85.6735	42.4805	87.4968	42.4805	85.7978	42.4805	88.0171	42.4805	86.0475	42.4805	88.4929	42.4805	86.4283	42.4805	88.8985	42.4805	86.9164	42.4805	89.2123	42.4805	87.465	42.4805	89.4164	42.4805	88.0193	42.4805	89.4976	42.4805	88.5282	42.4805	89.4473	42.4805	88.952	42.4805	89.2636
43.9453	86.3334	43.9453	86.2249	43.9453	86.4476	43.9453	86.1458	43.9453	86.5489	43.9453	86.1224	43.9453	86.624	43.9453	86.1799	43.9453	86.666	43.9453	86.3368	43.9453	86.6749	43.9453	86.6003	43.9453	86.6587	43.9453	86.9634	43.9453	86.6343	43.9453	87.406	43.9453	86.6285	43.9453	87.8996	43.9453	86.6761	43.9453	88.4122	43.9453	86.8125	43.9453	88.9123	43.9453	87.0635	43.9453	89.3711	43.9453	87.4333	43.9453	89.7635	43.9453	87.9001	43.9453	90.0683	43.9453	88.4218	43.9453	90.2679	43.9453	88.9481	43.9453	90.3491	43.9453	89.4316	43.9453	90.3039	43.9453	89.8345	43.9453	90.1304
45.4102	87.5091	45.4102	87.4121	45.4102	87.613	45.4102	87.3424	45.4102	87.7073	45.4102	87.3224	45.4102	87.7805	45.4102	87.3739	45.4102	87.8265	45.4102	87.5133	45.4102	87.8451	45.4102	87.7474	45.4102	87.843	45.4102	88.0718	45.4102	87.835	45.4102	88.4704	45.4102	87.8436	45.4102	88.919	45.4102	87.8975	45.4102	89.3892	45.4102	88.0266	45.4102	89.852	45.4102	88.2528	45.4102	90.28	45.4102	88.581	45.4102	90.6486	45.4102	88.9949	45.4102	90.9367	45.4102	89.46	45.4102	91.127	45.4102	89.9331	45.4102	91.2066	45.4102	90.3713	45.4102	91.1678	45.4102	90.7388	45.4102	91.0096
46.875	88.5622	46.875	88.4783	46.875	88.6548	46.875	88.4211	46.875	88.7416	46.875	88.41	46.875	88.8122	46.875	88.4635	46.875	88.8607	46.875	88.5956	46.875	88.8869	46.875	88.8127	46.875	88.8964	46.875	89.1112	46.875	88.9018	46.875	89.4777	46.875	88.9224	46.875	89.8916	46.875	88.9827	46.875	90.3274	46.875	89.1081	46.875	90.7586	46.875	89.3179	46.875	91.1593	46.875	89.6173	46.875	91.506	46.875	89.9935	46.875	91.7779	46.875	90.4178	46.875	91.9581	46.875	90.8518	46.875	92.034	46.875	91.2565	46.875	91.9984	46.875	91.5979	46.875	91.8506
48.3398	89.4504	48.3398	89.3706	48.3398	89.5389	48.3398	89.3158	48.3398	89.6229	48.3398	89.3039	48.3398	89.6927	48.3398	89.3519	48.3398	89.7432	48.3398	89.473	48.3398	89.774	48.3398	89.6737	48.3398	89.7903	48.3398	89.9515	48.3398	89.8033	48.3398	90.2952	48.3398	89.8304	48.3398	90.6857	48.3398	89.8935	48.3398	91.0998	48.3398	90.0152	48.3398	91.5119	48.3398	90.213	48.3398	91.8971	48.3398	90.4922	48.3398	92.2321	48.3398	90.8422	48.3398	92.4965	48.3398	91.2375	48.3398	92.6733	48.3398	91.6434	48.3398	92.75	48.3398	92.0233	48.3398	92.7197	48.3398	92.3445	48.3398	92.5821
51.2695	91.1091	51.2695	91.051	51.2695	91.1796	51.2695	91.0179	51.2695	91.2522	51.2695	91.0231	51.2695	91.3189	51.2695	91.079	51.2695	91.3753	51.2695	91.195	51.2695	91.4207	51.2695	91.3757	51.2695	91.4586	51.2695	91.6195	51.2695	91.497	51.2695	91.9178	51.2695	91.5484	51.2695	92.2564	51.2695	91.6284	51.2695	92.6166	51.2695	91.7531	51.2695	92.9775	51.2695	91.9351	51.2695	93.3176	51.2695	92.1787	51.2695	93.6159	51.2695	92.4766	51.2695	93.8536	51.2695	92.8105	51.2695	94.015	51.2695	93.1535	51.2695	94.0883	51.2695	93.4759	51.2695	94.0671	51.2695	93.7495	51.2695	93.9517
52.7344	91.8759	52.7344	91.826	52.7344	91.9385	52.7344	91.7997	52.7344	92.0047	52.7344	91.8085	52.7344	92.0675	52.7344	91.8629	52.7344	92.123	52.7344	91.9714	52.7344	92.1704	52.7344	92.1382	52.7344	92.2127	52.7344	92.3622	52.7344	92.2566	52.7344	92.6364	52.7344	92.3129	52.7344	92.9486	52.7344	92.3948	52.7344	93.2824	52.7344	92.5162	52.7344	93.6186	52.7344	92.6879	52.7344	93.9371	52.7344	92.9139	52.7344	94.2182	52.7344	93.1885	52.7344	94.4436	52.7344	93.4955	52.7344	94.5979	52.7344	93.8112	52.7344	94.6697	52.7344	94.1085	52.7344	94.6529	52.7344	94.3611	52.7344	94.5475
54.1992	92.5507	54.1992	92.5069	54.1992	92.6078	54.1992	92.4861	54.1992	92.6702	54.1992	92.4979	54.1992	92.7317	54.1992	92.5518	54.1992	92.7887	54.1992	92.6549	54.1992	92.8402	54.1992	92.8109	54.1992	92.8885	54.1992	93.0191	54.1992	92.9393	54.1992	93.2734	54.1992	93.0014	54.1992	93.5633	54.1992	93.0861	54.1992	93.8741	54.1992	93.205	54.1992	94.1882	54.1992	93.3675	54.1992	94.4872	54.1992	93.5773	54.1992	94.7522	54.1992	93.8296	54.1992	94.9659	54.1992	94.1108	54.1992	95.1134	54.1992	94.4001	54.1992	95.1838	54.1992	94.6728	54.1992	95.1711	54.1992	94.9048	54.1992	95.0757
55.6641	93.1604	55.6641	93.1223	55.6641	93.2122	55.6641	93.1064	55.6641	93.2707	55.6641	93.1213	55.6641	93.3304	55.6641	93.1751	55.6641	93.3878	55.6641	93.2743	55.6641	93.4423	55.6641	93.4223	55.6641	93.4956	55.6641	93.6183	55.6641	93.5525	55.6641	93.8574	55.6641	93.6207	55.6641	94.13	55.6641	93.7096	55.6641	94.4228	55.6641	93.8293	55.6641	94.7198	55.6641	93.9876	55.6641	95.0036	55.6641	94.1875	55.6641	95.2563	55.6641	94.4248	55.6641	95.4615	55.6641	94.6873	55.6641	95.6046	55.6641	94.9563	55.6641	95.6751	55.6641	95.2093	55.6641	95.6671	55.6641	95.4239	55.6641	95.5811
58.5938	94.3495	58.5938	94.3207	58.5938	94.3928	58.5938	94.3126	58.5938	94.4453	58.5938	94.3312	58.5938	94.5027	58.5938	94.3826	58.5938	94.5624	58.5938	94.4711	58.5938	94.6232	58.5938	94.5995	58.5938	94.6859	58.5938	94.7673	58.5938	94.7533	58.5938	94.9709	58.5938	94.8303	58.5938	95.2034	58.5938	94.9229	58.5938	95.4544	58.5938	95.0379	58.5938	95.7111	58.5938	95.1806	58.5938	95.9585	58.5938	95.3531	58.5938	96.1815	58.5938	95.5525	58.5938	96.3652	58.5938	95.7701	58.5938	96.4963	58.5938	95.9916	58.5938	96.5653	58.5938	96.1992	58.5938	96.5667	58.5938	96.3745	58.5938	96.501
60.0586	94.8376	60.0586	94.8123	60.0586	94.8775	60.0586	94.807	60.0586	94.9274	60.0586	94.8271	60.0586	94.9837	60.0586	94.8775	60.0586	95.0436	60.0586	94.9621	60.0586	95.1061	60.0586	95.0832	60.0586	95.1716	60.0586	95.2406	60.0586	95.2421	60.0586	95.4312	60.0586	95.3216	60.0586	95.6487	60.0586	95.4151	60.0586	95.8839	60.0586	95.5279	60.0586	96.1251	60.0586	95.6646	60.0586	96.3585	60.0586	95.827	60.0586	96.5698	60.0586	96.0126	60.0586	96.7447	60.0586	96.2138	60.0586	96.8708	60.0586	96.4178	60.0586	96.9387	60.0586	96.6088	60.0586	96.9433	60.0586	96.7696	60.0586	96.8849
62.9883	95.7754	62.9883	95.7587	62.9883	95.8075	62.9883	95.761	62.9883	95.8517	62.9883	95.7859	62.9883	95.9053	62.9883	95.8368	62.9883	95.9662	62.9883	95.9163	62.9883	96.033	62.9883	96.0259	62.9883	96.1056	62.9883	96.1653	62.9883	96.1846	62.9883	96.3321	62.9883	96.2719	62.9883	96.5216	62.9883	96.3702	62.9883	96.7264	62.9883	96.4823	62.9883	96.9372	62.9883	96.6109	62.9883	97.1425	62.9883	96.7568	62.9883	97.33	62.9883	96.9178	62.9883	97.4873	62.9883	97.0883	62.9883	97.6033	62.9883	97.2586	62.9883	97.6695	62.9883	97.4161	62.9883	97.6813	62.9883	97.5471	62.9883	97.6387
64.4531	96.2051	64.4531	96.1921	64.4531	96.2338	64.4531	96.1976	64.4531	96.2754	64.4531	96.2245	64.4531	96.3277	64.4531	96.2754	64.4531	96.3888	64.4531	96.3524	64.4531	96.4573	64.4531	96.4564	64.4531	96.5325	64.4531	96.5872	64.4531	96.6147	64.4531	96.7428	64.4531	96.7048	64.4531	96.9189	64.4531	96.8044	64.4531	97.1092	64.4531	96.9155	64.4531	97.3053	64.4531	97.0398	64.4531	97.497	64.4531	97.1777	64.4531	97.6728	64.4531	97.3272	64.4531	97.8214	64.4531	97.4835	64.4531	97.9323	64.4531	97.6381	64.4531	97.9975	64.4531	97.78	64.4531	98.0125	64.4531	97.897	64.4531	97.9774
67.3828	96.9935	67.3828	96.9869	67.3828	97.0162	67.3828	96.9978	67.3828	97.0532	67.3828	97.0278	67.3828	97.1031	67.3828	97.0782	67.3828	97.1643	67.3828	97.1499	67.3828	97.2353	67.3828	97.2433	67.3828	97.3149	67.3828	97.358	67.3828	97.4021	67.3828	97.4923	67.3828	97.4963	67.3828	97.6433	67.3828	97.5975	67.3828	97.806	67.3828	97.7058	67.3828	97.9742	67.3828	97.8215	67.3828	98.1395	67.3828	97.9442	67.3828	98.2929	67.3828	98.0723	67.3828	98.4245	67.3828	98.2021	67.3828	98.5255	67.3828	98.3274	67.3828	98.5888	67.3828	98.44	67.3828	98.6101	67.3828	98.5304	67.3828	98.5894
68.8477	97.3655	68.8477	97.3608	68.8477	97.3862	68.8477	97.3732	68.8477	97.4218	68.8477	97.4035	68.8477	97.471	68.8477	97.4525	68.8477	97.5324	68.8477	97.5208	68.8477	97.6046	68.8477	97.6086	68.8477	97.686	68.8477	97.7153	68.8477	97.7753	68.8477	97.8397	68.8477	97.8712	68.8477	97.979	68.8477	97.9729	68.8477	98.1295	68.8477	98.0799	68.8477	98.2853	68.8477	98.1917	68.8477	98.4393	68.8477	98.3076	68.8477	98.5832	68.8477	98.426	68.8477	98.7081	68.8477	98.5437	68.8477	98.8055	68.8477	98.6556	68.8477	98.8689	68.8477	98.7545	68.8477	98.8941	68.8477	98.8322	68.8477	98.8808
71.7773	98.0588	71.7773	98.0596	71.7773	98.0739	71.7773	98.0762	71.7773	98.1046	71.7773	98.1088	71.7773	98.1504	71.7773	98.1569	71.7773	98.2103	71.7773	98.2205	71.7773	98.2827	71.7773	98.2993	71.7773	98.3659	71.7773	98.3926	71.7773	98.4577	71.7773	98.4995	71.7773	98.556	71.7773	98.6181	71.7773	98.6583	71.7773	98.7456	71.7773	98.7629	71.7773	98.8779	71.7773	98.8682	71.7773	99.0096	71.7773	98.9726	71.7773	99.134	71.7773	99.0744	71.7773	99.2439	71.7773	99.1713	71.7773	99.3322	71.7773	99.2598	71.7773	99.3932	71.7773	99.3348	71.7773	99.4233	71.7773	99.3907	71.7773	99.4217
74.707	98.6888	74.707	98.6912	74.707	98.7026	74.707	98.7088	74.707	98.7329	74.707	98.7409	74.707	98.7795	74.707	98.7866	74.707	98.8418	74.707	98.8449	74.707	98.9182	74.707	98.9151	74.707	99.0063	74.707	98.9966	74.707	99.1032	74.707	99.0884	74.707	99.2057	74.707	99.1895	74.707	99.3103	74.707	99.298	74.707	99.4137	74.707	99.4109	74.707	99.5132	74.707	99.5244	74.707	99.6067	74.707	99.6336	74.707	99.6925	74.707	99.7326	74.707	99.7688	74.707	99.8157	74.707	99.8337	74.707	99.8779	74.707	99.8843	74.707	99.9159	74.707	99.9171	74.707	99.9285
77.6367	99.1831	77.6367	99.186	77.6367	99.1966	77.6367	99.2041	77.6367	99.2275	77.6367	99.2358	77.6367	99.2758	77.6367	99.2794	77.6367	99.3407	77.6367	99.3335	77.6367	99.4204	77.6367	99.3968	77.6367	99.512	77.6367	99.4685	77.6367	99.6119	77.6367	99.5477	77.6367	99.7158	77.6367	99.6336	77.6367	99.8193	77.6367	99.7251	77.6367	99.9186	77.6367	99.8204	77.6367	100.01	77.6367	99.9168	77.6367	100.092	77.6367	100.011	77.6367	100.162	77.6367	100.098	77.6367	100.219	77.6367	100.174	77.6367	100.263	77.6367	100.235	77.6367	100.292	77.6367	100.278	77.6367	100.306	77.6367	100.302
79.1016	99.4215	79.1016	99.4265	79.1016	99.4329	79.1016	99.4463	79.1016	99.4618	79.1016	99.4791	79.1016	99.5083	79.1016	99.5229	79.1016	99.5717	79.1016	99.576	79.1016	99.6503	79.1016	99.6368	79.1016	99.741	79.1016	99.7043	79.1016	99.84	79.1016	99.7776	79.1016	99.943	79.1016	99.8559	79.1016	100.045	79.1016	99.9383	79.1016	100.142	79.1016	100.023	79.1016	100.23	79.1016	100.11	79.1016	100.307	79.1016	100.194	79.1016	100.371	79.1016	100.273	79.1016	100.42	79.1016	100.343	79.1016	100.455	79.1016	100.401	79.1016	100.476	79.1016	100.444	79.1016	100.481	79.1016	100.471
82.0313	99.9829	82.0313	99.9921	82.0313	99.9881	82.0313	100.013	82.0313	100.009	82.0313	100.044	82.0313	100.048	82.0313	100.082	82.0313	100.104	82.0313	100.125	82.0313	100.175	82.0313	100.171	82.0313	100.259	82.0313	100.218	82.0313	100.352	82.0313	100.267	82.0313	100.449	82.0313	100.317	82.0313	100.544	82.0313	100.369	82.0313	100.633	82.0313	100.422	82.0313	100.709	82.0313	100.478	82.0313	100.771	82.0313	100.535	82.0313	100.814	82.0313	100.592	82.0313	100.84	82.0313	100.649	82.0313	100.849	82.0313	100.702	82.0313	100.842	82.0313	100.75	82.0313	100.822	82.0313	100.791
84.9609	100.487	84.9609	100.497	84.9609	100.49	84.9609	100.515	84.9609	100.506	84.9609	100.539	84.9609	100.538	84.9609	100.566	84.9609	100.586	84.9609	100.592	84.9609	100.648	84.9609	100.617	84.9609	100.722	84.9609	100.638	84.9609	100.803	84.9609	100.656	84.9609	100.885	84.9609	100.672	84.9609	100.963	84.9609	100.688	84.9609	101.031	84.9609	100.705	84.9609	101.084	84.9609	100.726	84.9609	101.119	84.9609	100.754	84.9609	101.133	84.9609	100.787	84.9609	101.127	84.9609	100.828	84.9609	101.105	84.9609	100.873	84.9609	101.069	84.9609	100.923	84.9609	101.024	84.9609	100.974
87.8906	100.723	87.8906	100.726	87.8906	100.735	87.8906	100.74	87.8906	100.765	87.8906	100.764	87.8906	100.813	87.8906	100.793	87.8906	100.879	87.8906	100.825	87.8906	100.961	87.8906	100.857	87.8906	101.055	87.8906	100.889	87.8906	101.155	87.8906	100.921	87.8906	101.256	87.8906	100.953	87.8906	101.351	87.8906	100.987	87.8906	101.433	87.8906	101.024	87.8906	101.497	87.8906	101.066	87.8906	101.539	87.8906	101.112	87.8906	101.559	87.8906	101.165	87.8906	101.557	87.8906	101.221	87.8906	101.536	87.8906	101.28	87.8906	101.5	87.8906	101.34	87.8906	101.452	87.8906	101.398
90.8203	100.43	90.8203	100.438	90.8203	100.449	90.8203	100.467	90.8203	100.494	90.8203	100.515	90.8203	100.567	90.8203	100.578	90.8203	100.669	90.8203	100.652	90.8203	100.795	90.8203	100.736	90.8203	100.943	90.8203	100.827	90.8203	101.106	90.8203	100.922	90.8203	101.276	90.8203	101.022	90.8203	101.446	90.8203	101.124	90.8203	101.606	90.8203	101.23	90.8203	101.748	90.8203	101.338	90.8203	101.866	90.8203	101.448	90.8203	101.954	90.8203	101.557	90.8203	102.009	90.8203	101.664	90.8203	102.033	90.8203	101.765	90.8203	102.025	90.8203	101.856	90.8203	101.991	90.8203	101.933
95.2148	101.706	95.2148	101.724	95.2148	101.696	95.2148	101.746	95.2148	101.698	95.2148	101.766	95.2148	101.715	95.2148	101.781	95.2148	101.748	95.2148	101.786	95.2148	101.796	95.2148	101.777	95.2148	101.857	95.2148	101.754	95.2148	101.925	95.2148	101.716	95.2148	101.994	95.2148	101.665	95.2148	102.056	95.2148	101.605	95.2148	102.103	95.2148	101.541	95.2148	102.127	95.2148	101.482	95.2148	102.123	95.2148	101.435	95.2148	102.087	95.2148	101.407	95.2148	102.02	95.2148	101.407	95.2148	101.926	95.2148	101.438	95.2148	101.815	95.2148	101.5	95.2148	101.699	95.2148	101.59
98.1445	101.549	98.1445	101.554	98.1445	101.557	98.1445	101.569	98.1445	101.582	98.1445	101.59	98.1445	101.624	98.1445	101.613	98.1445	101.684	98.1445	101.635	98.1445	101.761	98.1445	101.651	98.1445	101.851	98.1445	101.66	98.1445	101.948	98.1445	101.661	98.1445	102.046	98.1445	101.655	98.1445	102.136	98.1445	101.643	98.1445	102.211	98.1445	101.63	98.1445	102.261	98.1445	101.62	98.1445	102.283	98.1445	101.619	98.1445	102.271	98.1445	101.632	98.1445	102.228	98.1445	101.663	98.1445	102.158	98.1445	101.714	98.1445	102.069	98.1445	101.785	98.1445	101.97	98.1445	101.873
101.074	101.661	101.074	101.671	101.074	101.663	101.074	101.69	101.074	101.681	101.074	101.713	101.074	101.717	101.074	101.735	101.074	101.773	101.074	101.753	101.074	101.847	101.074	101.764	101.074	101.936	101.074	101.766	101.074	102.035	101.074	101.757	101.074	102.137	101.074	101.741	101.074	102.233	101.074	101.718	101.074	102.315	101.074	101.695	101.074	102.373	101.074	101.676	101.074	102.399	101.074	101.669	101.074	102.391	101.074	101.679	101.074	102.347	101.074	101.712	101.074	102.271	101.074	101.77	101.074	102.173	101.074	101.851	101.074	102.062	101.074	101.951
105.469	101.763	105.469	101.771	105.469	101.768	105.469	101.788	105.469	101.789	105.469	101.809	105.469	101.828	105.469	101.831	105.469	101.885	105.469	101.848	105.469	101.96	105.469	101.857	105.469	102.049	105.469	101.857	105.469	102.148	105.469	101.846	105.469	102.249	105.469	101.826	105.469	102.344	105.469	101.798	105.469	102.424	105.469	101.769	105.469	102.48	105.469	101.744	105.469	102.504	105.469	101.731	105.469	102.492	105.469	101.737	105.469	102.443	105.469	101.768	105.469	102.361	105.469	101.826	105.469	102.255	105.469	101.911	105.469	102.136	105.469	102.018
108.398	101.841	108.398	101.845	108.398	101.849	108.398	101.858	108.398	101.871	108.398	101.875	108.398	101.91	108.398	101.891	108.398	101.966	108.398	101.903	108.398	102.039	108.398	101.907	108.398	102.125	108.398	101.901	108.398	102.221	108.398	101.885	108.398	102.318	108.398	101.86	108.398	102.41	108.398	101.829	108.398	102.487	108.398	101.796	108.398	102.539	108.398	101.769	108.398	102.56	108.398	101.755	108.398	102.545	108.398	101.761	108.398	102.493	108.398	101.793	108.398	102.407	108.398	101.854	108.398	102.298	108.398	101.942	108.398	102.175	108.398	102.052
112.793	102.075	112.793	102.079	112.793	102.081	112.793	102.089	112.793	102.1	112.793	102.102	112.793	102.134	112.793	102.112	112.793	102.183	112.793	102.116	112.793	102.247	112.793	102.109	112.793	102.322	112.793	102.09	112.793	102.404	112.793	102.057	112.793	102.486	112.793	102.012	112.793	102.561	112.793	101.959	112.793	102.618	112.793	101.902	112.793	102.65	112.793	101.849	112.793	102.65	112.793	101.811	112.793	102.615	112.793	101.795	112.793	102.543	112.793	101.81	112.793	102.441	112.793	101.859	112.793	102.316	112.793	101.942	112.793	102.182	112.793	102.053
117.188	101.93	117.188	101.93	117.188	101.938	117.188	101.936	117.188	101.958	117.188	101.943	117.188	101.993	117.188	101.948	117.188	102.043	117.188	101.947	117.188	102.108	117.188	101.936	117.188	102.185	117.188	101.915	117.188	102.272	117.188	101.882	117.188	102.361	117.188	101.839	117.188	102.443	117.188	101.789	117.188	102.51	117.188	101.737	117.188	102.551	117.188	101.691	117.188	102.559	117.188	101.658	117.188	102.528	117.188	101.65	117.188	102.457	117.188	101.672	117.188	102.353	117.188	101.729	117.188	102.223	117.188	101.821	117.188	102.081	117.188	101.942
120.117	102.115	120.117	102.13	120.117	102.105	120.117	102.146	120.117	102.107	120.117	102.16	120.117	102.122	120.117	102.165	120.117	102.154	120.117	102.157	120.117	102.204	120.117	102.135	120.117	102.269	120.117	102.096	120.117	102.345	120.117	102.04	120.117	102.427	120.117	101.969	120.117	102.505	120.117	101.888	120.117	102.569	120.117	101.805	120.117	102.607	120.117	101.729	120.117	102.611	120.117	101.67	120.117	102.575	120.117	101.641	120.117	102.497	120.117	101.651	120.117	102.381	120.117	101.704	120.117	102.238	120.117	101.8	120.117	102.082	120.117	101.931
124.512	101.906	124.512	101.918	124.512	101.898	124.512	101.929	124.512	101.899	124.512	101.934	124.512	101.913	124.512	101.927	124.512	101.942	124.512	101.903	124.512	101.987	124.512	101.858	124.512	102.047	124.512	101.79	124.512	102.116	124.512	101.698	124.512	102.19	124.512	101.587	124.512	102.257	124.512	101.463	124.512	102.307	124.512	101.334	124.512	102.329	124.512	101.216	124.512	102.313	124.512	101.122	124.512	102.25	124.512	101.069	124.512	102.14	124.512	101.069	124.512	101.987	124.512	101.128	124.512	101.802	124.512	101.246	124.512	101.602	124.512	101.41
128.906	101.499	128.906	101.499	128.906	101.504	128.906	101.499	128.906	101.516	128.906	101.496	128.906	101.538	128.906	101.482	128.906	101.57	128.906	101.455	128.906	101.613	128.906	101.409	128.906	101.663	128.906	101.341	128.906	101.719	128.906	101.252	128.906	101.773	128.906	101.143	128.906	101.818	128.906	101.021	128.906	101.845	128.906	100.893	128.906	101.845	128.906	100.773	128.906	101.808	128.906	100.674	128.906	101.729	128.906	100.612	128.906	101.608	128.906	100.599	128.906	101.449	128.906	100.643	128.906	101.264	128.906	100.743	128.906	101.072	128.906	100.891
133.301	101.243	133.301	101.248	133.301	101.248	133.301	101.26	133.301	101.267	133.301	101.273	133.301	101.302	133.301	101.282	133.301	101.356	133.301	101.281	133.301	101.426	133.301	101.266	133.301	101.512	133.301	101.233	133.301	101.609	133.301	101.183	133.301	101.708	133.301	101.116	133.301	101.801	133.301	101.037	133.301	101.874	133.301	100.954	133.301	101.916	133.301	100.878	133.301	101.918	133.301	100.821	133.301	101.872	133.301	100.795	133.301	101.78	133.301	100.81	133.301	101.645	133.301	100.873	133.301	101.48	133.301	100.982	133.301	101.302	133.301	101.13
139.16	100.993	139.16	100.993	139.16	101	139.16	100.999	139.16	101.02	139.16	101.005	139.16	101.054	139.16	101.008	139.16	101.105	139.16	101.002	139.16	101.174	139.16	100.984	139.16	101.261	139.16	100.951	139.16	101.363	139.16	100.902	139.16	101.472	139.16	100.839	139.16	101.58	139.16	100.768	139.16	101.674	139.16	100.695	139.16	101.739	139.16	100.632	139.16	101.763	139.16	100.59	139.16	101.738	139.16	100.582	139.16	101.66	139.16	100.618	139.16	101.534	139.16	100.702	139.16	101.369	139.16	100.832	139.16	101.184	139.16	100.998
143.555	100.819	143.555	100.815	143.555	100.826	143.555	100.811	143.555	100.84	143.555	100.803	143.555	100.862	143.555	100.787	143.555	100.897	143.555	100.757	143.555	100.946	143.555	100.711	143.555	101.009	143.555	100.647	143.555	101.084	143.555	100.563	143.555	101.168	143.555	100.464	143.555	101.251	143.555	100.356	143.555	101.321	143.555	100.248	143.555	101.366	143.555	100.153	143.555	101.372	143.555	100.086	143.555	101.33	143.555	100.061	143.555	101.235	143.555	100.09	143.555	101.091	143.555	100.176	143.555	100.907	143.555	100.316	143.555	100.702	143.555	100.498
147.949	100.605	147.949	100.596	147.949	100.616	147.949	100.585	147.949	100.631	147.949	100.568	147.949	100.652	147.949	100.543	147.949	100.683	147.949	100.505	147.949	100.725	147.949	100.451	147.949	100.78	147.949	100.378	147.949	100.847	147.949	100.286	147.949	100.923	147.949	100.179	147.949	101	147.949	100.064	147.949	101.066	147.949	99.9493	147.949	101.109	147.949	99.8497	147.949	101.114	147.949	99.78	147.949	101.072	147.949	99.7552	147.949	100.976	147.949	99.7864	147.949	100.829	147.949	99.8782	147.949	100.641	147.949	100.026	147.949	100.43	147.949	100.217
153.809	100.512	153.809	100.489	153.809	100.531	153.809	100.46	153.809	100.547	153.809	100.423	153.809	100.562	153.809	100.374	153.809	100.577	153.809	100.311	153.809	100.595	153.809	100.229	153.809	100.617	153.809	100.127	153.809	100.644	153.809	100.006	153.809	100.674	153.809	99.8681	153.809	100.703	153.809	99.7203	153.809	100.723	153.809	99.5731	153.809	100.723	153.809	99.4408	153.809	100.69	153.809	99.3397	153.809	100.615	153.809	99.2861	153.809	100.493	153.809	99.2927	153.809	100.326	153.809	99.3657	153.809	100.123	153.809	99.5017	153.809	99.9028	153.809	99.6876
159.668	100.303	159.668	100.282	159.668	100.32	159.668	100.255	159.668	100.336	159.668	100.219	159.668	100.353	159.668	100.17	159.668	100.372	159.668	100.104	159.668	100.395	159.668	100.018	159.668	100.423	159.668	99.9107	159.668	100.454	159.668	99.7815	159.668	100.486	159.668	99.6347	159.668	100.511	159.668	99.4775	159.668	100.521	159.668	99.3215	159.668	100.505	159.668	99.1814	159.668	100.454	159.668	99.0739	159.668	100.361	159.668	99.015	159.668	100.222	159.668	99.017	159.668	100.043	159.668	99.0855	159.668	99.8335	159.668	99.2168	159.668	99.6116	159.668	99.3986
165.527	100.064	165.527	100.055	165.527	100.07	165.527	100.04	165.527	100.075	165.527	100.017	165.527	100.083	165.527	99.9795	165.527	100.096	165.527	99.9251	165.527	100.117	165.527	99.8496	165.527	100.148	165.527	99.7507	165.527	100.189	165.527	99.6285	165.527	100.237	165.527	99.4865	165.527	100.284	165.527	99.3322	165.527	100.319	165.527	99.1773	165.527	100.329	165.527	99.0369	165.527	100.301	165.527	98.9287	165.527	100.225	165.527	98.8696	165.527	100.098	165.527	98.8729	165.527	99.9239	165.527	98.9444	165.527	99.7142	165.527	99.0808	165.527	99.488	165.527	99.2688
171.387	99.7221	171.387	99.7136	171.387	99.7276	171.387	99.6995	171.387	99.7327	171.387	99.6768	171.387	99.7401	171.387	99.6417	171.387	99.7534	171.387	99.5903	171.387	99.7765	171.387	99.519	171.387	99.8123	171.387	99.4258	171.387	99.8618	171.387	99.3109	171.387	99.9221	171.387	99.178	171.387	99.9852	171.387	99.0349	171.387	100.039	171.387	98.893	171.387	100.068	171.387	98.7675	171.387	100.057	171.387	98.675	171.387	99.9967	171.387	98.6312	171.387	99.8813	171.387	98.6479	171.387	99.7148	171.387	98.7298	171.387	99.5095	171.387	98.8732	171.387	99.285	171.387	99.0649
177.246	99.5365	177.246	99.5238	177.246	99.544	177.246	99.5039	177.246	99.5483	177.246	99.4741	177.246	99.5517	177.246	99.4309	177.246	99.5575	177.246	99.3705	177.246	99.5697	177.246	99.289	177.246	99.592	177.246	99.184	177.246	99.6264	177.246	99.0558	177.246	99.6708	177.246	98.9079	177.246	99.7187	177.246	98.7487	177.246	99.7586	177.246	98.5906	177.246	99.7759	177.246	98.4501	177.246	99.7561	177.246	98.3453	177.246	99.6882	177.246	98.2932	177.246	99.567	177.246	98.3061	177.246	99.3958	177.246	98.3885	177.246	99.1861	177.246	98.5351	177.246	98.9568	177.246	98.7316
183.105	99.1977	183.105	99.1744	183.105	99.2111	183.105	99.1399	183.105	99.2164	183.105	99.0924	183.105	99.2163	183.105	99.0297	183.105	99.2152	183.105	98.949	183.105	99.2188	183.105	98.8478	183.105	99.2328	183.105	98.7245	183.105	99.2611	183.105	98.5802	183.105	99.3036	183.105	98.4194	183.105	99.3538	183.105	98.2509	183.105	99.3998	183.105	98.0879	183.105	99.4253	183.105	97.9475	183.105	99.4134	183.105	97.8484	183.105	99.3503	183.105	97.8077	183.105	99.229	183.105	97.8374	183.105	99.0512	183.105	97.9409	183.105	98.8284	183.105	98.1114	183.105	98.5804	183.105	98.3324
188.965	99.0628	188.965	99.038	188.965	99.0739	188.965	98.9986	188.965	99.073	188.965	98.9426	188.965	99.0628	188.965	98.868	188.965	99.0476	188.965	98.772	188.965	99.0338	188.965	98.6524	188.965	99.0285	188.965	98.5086	188.965	99.0374	188.965	98.3426	188.965	99.0626	188.965	98.1606	188.965	99.0998	188.965	97.9732	188.965	99.138	188.965	97.796	188.965	99.1613	188.965	97.6476	188.965	99.152	188.965	97.5478	188.965	99.0951	188.965	97.5138	188.965	98.9816	188.965	97.5557	188.965	98.8112	188.965	97.6743	188.965	98.593	188.965	97.8593	188.965	98.3449	188.965	98.0913
196.289	99.0178	196.289	99.0003	196.289	99.0212	196.289	98.9675	196.289	99.0117	196.289	98.9179	196.289	98.992	196.289	98.8487	196.289	98.9665	196.289	98.7566	196.289	98.9416	196.289	98.6386	196.289	98.9244	196.289	98.493	196.289	98.9203	196.289	98.3209	196.289	98.931	196.289	98.1277	196.289	98.9516	196.289	97.9236	196.289	98.9706	196.289	97.724	196.289	98.9723	196.289	97.5481	196.289	98.9398	196.289	97.417	196.289	98.8597	196.289	97.3495	196.289	98.7254	196.289	97.3582	196.289	98.5389	196.289	97.4461	196.289	98.3118	196.289	97.6056	196.289	98.0637	196.289	97.8194
203.613	98.771	203.613	98.747	203.613	98.7744	203.613	98.7023	203.613	98.7575	203.613	98.6366	203.613	98.7221	203.613	98.5482	203.613	98.6732	203.613	98.4351	203.613	98.6184	203.613	98.2956	203.613	98.5678	203.613	98.1296	203.613	98.5312	203.613	97.9399	203.613	98.5148	203.613	97.7338	203.613	98.5177	203.613	97.5227	203.613	98.5308	203.613	97.3226	203.613	98.5378	203.613	97.1526	203.613	98.5194	203.613	97.0321	203.613	98.4584	203.613	96.9777	203.613	98.3443	203.613	96.9994	203.613	98.1759	203.613	97.0982	203.613	97.9626	203.613	97.2649	203.613	97.7229	203.613	97.4814
210.938	98.6423	210.938	98.6086	210.938	98.6551	210.938	98.5549	210.938	98.6461	210.938	98.4812	210.938	98.6164	210.938	98.3859	210.938	98.57	210.938	98.266	210.938	98.5144	210.938	98.1181	210.938	98.4595	210.938	97.9405	210.938	98.4151	210.938	97.735	210.938	98.3871	210.938	97.5083	210.938	98.3743	210.938	97.2729	210.938	98.3669	210.938	97.0472	210.938	98.3489	210.938	96.8532	210.938	98.302	210.938	96.7133	210.938	98.2109	210.938	96.6455	210.938	98.068	210.938	96.6599	210.938	97.8749	210.938	96.756	210.938	97.6429	210.938	96.9231	210.938	97.3909	210.938	97.1425
218.262	98.5237	218.262	98.494	218.262	98.531	218.262	98.4429	218.262	98.5153	218.262	98.3703	218.262	98.4776	218.262	98.2743	218.262	98.4219	218.262	98.1524	218.262	98.3561	218.262	98.0021	218.262	98.2908	218.262	97.8232	218.262	98.2369	218.262	97.6189	218.262	98.202	218.262	97.3976	218.262	98.186	218.262	97.1727	218.262	98.1802	218.262	96.9622	218.262	98.1682	218.262	96.7857	218.262	98.1309	218.262	96.662	218.262	98.0523	218.262	96.6053	218.262	97.9236	218.262	96.6226	218.262	97.7462	218.262	96.7127	218.262	97.5313	218.262	96.8665	218.262	97.2978	218.262	97.0684
225.586	98.361	225.586	98.3361	225.586	98.3624	225.586	98.2898	225.586	98.3388	225.586	98.2226	225.586	98.2912	225.586	98.1334	225.586	98.2243	225.586	98.019	225.586	98.1474	225.586	97.8758	225.586	98.0732	225.586	97.702	225.586	98.015	225.586	97.4996	225.586	97.9824	225.586	97.2768	225.586	97.9762	225.586	97.0482	225.586	97.9869	225.586	96.8346	225.586	97.9966	225.586	96.6593	225.586	97.9838	225.586	96.5437	225.586	97.9304	225.586	96.5022	225.586	97.826	225.586	96.5392	225.586	97.6703	225.586	96.6486	225.586	97.4728	225.586	96.8165	225.586	97.2504	225.586	97.0243
232.91	98.2909	232.91	98.2661	232.91	98.2891	232.91	98.2171	232.91	98.2584	232.91	98.1445	232.91	98.1984	232.91	98.047	232.91	98.1128	232.91	97.9211	232.91	98.0104	232.91	97.7633	232.91	97.9051	232.91	97.5714	232.91	97.8127	232.91	97.3473	232.91	97.7463	232.91	97.099	232.91	97.71	232.91	96.841	232.91	97.6955	232.91	96.5949	232.91	97.6838	232.91	96.3856	232.91	97.6515	232.91	96.2367	232.91	97.5786	232.91	96.1652	232.91	97.4548	232.91	96.1767	232.91	97.2816	232.91	96.2659	232.91	97.0712	232.91	96.4192	232.91	96.8428	232.91	96.6183
241.699	98.1103	241.699	98.0752	241.699	98.1222	241.699	98.0206	241.699	98.1065	241.699	97.9479	241.699	98.0607	241.699	97.8546	241.699	97.9871	241.699	97.7352	241.699	97.8935	241.699	97.5829	241.699	97.7931	241.699	97.3932	241.699	97.7019	241.699	97.1657	241.699	97.6335	241.699	96.9077	241.699	97.5938	241.699	96.6347	241.699	97.577	241.699	96.3701	241.699	97.5658	241.699	96.1422	241.699	97.5366	241.699	95.9789	241.699	97.4669	241.699	95.9003	241.699	97.3422	241.699	95.9148	241.699	97.1603	241.699	96.0175	241.699	96.9316	241.699	96.1936	241.699	96.6767	241.699	96.4217
250.488	98.0017	250.488	97.9341	250.488	98.0392	250.488	97.8443	250.488	98.0392	250.488	97.7378	250.488	97.9977	250.488	97.616	250.488	97.9169	250.488	97.4758	250.488	97.8062	250.488	97.3117	250.488	97.6821	250.488	97.1179	250.488	97.5643	250.488	96.8923	250.488	97.4707	250.488	96.6382	250.488	97.4103	250.488	96.367	250.488	97.3786	250.488	96.0984	250.488	97.3584	250.488	95.8586	250.488	97.3243	250.488	95.6763	250.488	97.2509	250.488	95.5769	250.488	97.1199	250.488	95.5758	250.488	96.9254	250.488	95.6746	250.488	96.6762	250.488	95.861	250.488	96.3945	250.488	96.1114
259.277	97.7925	259.277	97.7509	259.277	97.8059	259.277	97.6913	259.277	97.7819	259.277	97.6222	259.277	97.7169	259.277	97.547	259.277	97.6146	259.277	97.4637	259.277	97.488	259.277	97.3668	259.277	97.3581	259.277	97.2496	259.277	97.2494	259.277	97.1085	259.277	97.182	259.277	96.9452	259.277	97.1634	259.277	96.7684	259.277	97.1845	259.277	96.5927	259.277	97.2237	259.277	96.437	259.277	97.2546	259.277	96.3209	259.277	97.2547	259.277	96.2607	259.277	97.2099	259.277	96.266	259.277	97.1156	259.277	96.3369	259.277	96.9769	259.277	96.4639	259.277	96.8077	259.277	96.6286
268.066	97.4844	268.066	97.3549	268.066	97.5671	268.066	97.1958	268.066	97.5887	268.066	97.0232	268.066	97.5403	268.066	96.8493	268.066	97.4225	268.066	96.6801	268.066	97.2471	268.066	96.5161	268.066	97.0392	268.066	96.354	268.066	96.8346	268.066	96.1914	268.066	96.6708	268.066	96.0298	268.066	96.5735	268.066	95.877	268.066	96.5441	268.066	95.747	268.066	96.5601	268.066	95.6557	268.066	96.587	268.066	95.6165	268.066	96.5942	268.066	95.6348	268.066	96.5641	268.066	95.7065	268.066	96.4933	268.066	95.8199	268.066	96.3873	268.066	95.9594	268.066	96.2557	268.066	96.1092
276.855	97.7534	276.855	97.6381	276.855	97.8228	276.855	97.4839	276.855	97.8391	276.855	97.2964	276.855	97.7965	276.855	97.0788	276.855	97.6932	276.855	96.8329	276.855	97.5338	276.855	96.5608	276.855	97.3316	276.855	96.2683	276.855	97.1103	276.855	95.967	276.855	96.9008	276.855	95.6756	276.855	96.7323	276.855	95.4173	276.855	96.6182	276.855	95.2152	276.855	96.5483	276.855	95.0862	276.855	96.4934	276.855	95.0361	276.855	96.421	276.855	95.0601	276.855	96.3109	276.855	95.1448	276.855	96.1613	276.855	95.2739	276.855	95.9843	276.855	95.4324	276.855	95.7959	276.855	95.6091
287.109	98.1406	287.109	98.034	287.109	98.193	287.109	97.8819	287.109	98.1846	287.109	97.6924	287.109	98.1133	287.109	97.4703	287.109	97.9824	287.109	97.2156	287.109	97.8012	287.109	96.9252	287.109	97.584	287.109	96.5968	287.109	97.3504	287.109	96.2347	287.109	97.1231	287.109	95.8549	287.109	96.9246	287.109	95.4877	287.109	96.7718	287.109	95.1734	287.109	96.668	287.109	94.951	287.109	96.5985	287.109	94.8447	287.109	96.5343	287.109	94.8557	287.109	96.4438	287.109	94.9659	287.109	96.3053	287.109	95.1485	287.109	96.1143	287.109	95.3773	287.109	95.8822	287.109	95.6291
297.363	98.1	297.363	98.0163	297.363	98.1202	297.363	97.8778	297.363	98.0711	297.363	97.6935	297.363	97.9526	297.363	97.4707	297.363	97.7742	297.363	97.2132	297.363	97.5568	297.363	96.9212	297.363	97.332	297.363	96.5931	297.363	97.1353	297.363	96.2292	297.363	96.995	297.363	95.8392	297.363	96.9199	297.363	95.4487	297.363	96.8951	297.363	95.1021	297.363	96.8893	297.363	94.8545	297.363	96.8685	297.363	94.751	297.363	96.8082	297.363	94.804	297.363	96.6979	297.363	94.9868	297.363	96.539	297.363	95.25	297.363	96.3382	297.363	95.5443	297.363	96.1018	297.363	95.8345
307.617	98.103	307.617	97.962	307.617	98.198	307.617	97.7919	307.617	98.2278	307.617	97.6031	307.617	98.177	307.617	97.3973	307.617	98.0391	307.617	97.1697	307.617	97.8206	307.617	96.9137	307.617	97.544	307.617	96.6265	307.617	97.2462	307.617	96.3115	307.617	96.9729	307.617	95.98	307.617	96.7637	307.617	95.6503	307.617	96.6367	307.617	95.3481	307.617	96.5799	307.617	95.1052	307.617	96.5584	307.617	94.955	307.617	96.5306	307.617	94.9216	307.617	96.464	307.617	95.0076	307.617	96.3424	307.617	95.1901	307.617	96.1656	307.617	95.4309	307.617	95.9436	307.617	95.6919
319.336	97.8757	319.336	97.7391	319.336	97.9628	319.336	97.5707	319.336	97.9835	319.336	97.3835	319.336	97.9254	319.336	97.1816	319.336	97.7836	319.336	96.9591	319.336	97.5628	319.336	96.7044	319.336	97.2792	319.336	96.4088	319.336	96.9623	319.336	96.0751	319.336	96.6524	319.336	95.7232	319.336	96.3914	319.336	95.3885	319.336	96.2081	319.336	95.1124	319.336	96.1042	319.336	94.9282	319.336	96.0552	319.336	94.85	319.336	96.0238	319.336	94.8709	319.336	95.978	319.336	94.9698	319.336	95.9002	319.336	95.1199	319.336	95.7868	319.336	95.2953	319.336	95.6423	319.336	95.4747
329.59	98.0939	329.59	97.9265	329.59	98.2004	329.59	97.7191	329.59	98.2295	329.59	97.4926	329.59	98.1721	329.59	97.2609	329.59	98.0275	329.59	97.0261	329.59	97.8049	329.59	96.7776	329.59	97.5244	329.59	96.4985	329.59	97.2163	329.59	96.1753	329.59	96.917	329.59	95.8082	329.59	96.6588	329.59	95.4188	329.59	96.4587	329.59	95.0502	329.59	96.3112	329.59	94.7575	329.59	96.1942	329.59	94.5874	329.59	96.0815	329.59	94.5568	329.59	95.9546	329.59	94.647	329.59	95.8062	329.59	94.8175	329.59	95.6364	329.59	95.0259	329.59	95.4473	329.59	95.2415
341.309	97.7649	341.309	97.5605	341.309	97.9148	341.309	97.3265	341.309	97.9906	341.309	97.0872	341.309	97.982	341.309	96.8584	341.309	97.8888	341.309	96.642	341.309	97.7209	341.309	96.4268	341.309	97.4971	341.309	96.1957	341.309	97.2426	341.309	95.9358	341.309	96.9862	341.309	95.6472	341.309	96.7552	341.309	95.3465	341.309	96.568	341.309	95.0648	341.309	96.4268	341.309	94.84	341.309	96.3145	341.309	94.7046	341.309	96.2027	341.309	94.6747	341.309	96.067	341.309	94.7441	341.309	95.8984	341.309	94.8888	341.309	95.7041	341.309	95.0776	341.309	95.4966	341.309	95.2851
353.027	98.0719	353.027	97.8226	353.027	98.2168	353.027	97.4913	353.027	98.2439	353.027	97.107	353.027	98.1502	353.027	96.7019	353.027	97.9453	353.027	96.3054	353.027	97.6538	353.027	95.9379	353.027	97.316	353.027	95.6078	353.027	96.983	353.027	95.3138	353.027	96.7043	353.027	95.0521	353.027	96.5086	353.027	94.8249	353.027	96.3919	353.027	94.6437	353.027	96.324	353.027	94.5266	353.027	96.2664	353.027	94.4898	353.027	96.1888	353.027	94.5388	353.027	96.0746	353.027	94.664	353.027	95.9201	353.027	94.8452	353.027	95.7304	353.027	95.0596	353.027	95.5157	353.027	95.288
366.211	98.761	366.211	98.5304	366.211	98.8779	366.211	98.2016	366.211	98.8683	366.211	97.7918	366.211	98.7252	366.211	97.3193	366.211	98.4498	366.211	96.8048	366.211	98.0556	366.211	96.2725	366.211	97.5747	366.211	95.75	366.211	97.0633	366.211	95.2659	366.211	96.6012	366.211	94.8465	366.211	96.2723	366.211	94.5141	366.211	96.1239	366.211	94.2875	366.211	96.1342	366.211	94.1815	366.211	96.2243	366.211	94.2021	366.211	96.3043	366.211	94.3401	366.211	96.3114	366.211	94.5711	366.211	96.2214	366.211	94.8618	366.211	96.0407	366.211	95.1793	366.211	95.7909	366.211	95.4965
379.395	99.017	379.395	98.8615	379.395	99.09	379.395	98.6377	379.395	99.0671	379.395	98.3558	379.395	98.94	379.395	98.0176	379.395	98.7075	379.395	97.6167	379.395	98.3776	379.395	97.1456	379.395	97.9691	379.395	96.609	379.395	97.5143	379.395	96.0351	379.395	97.0598	379.395	95.4803	379.395	96.6625	379.395	95.0165	379.395	96.3758	379.395	94.7046	379.395	96.2263	379.395	94.5698	379.395	96.1964	379.395	94.5998	379.395	96.2327	379.395	94.7607	379.395	96.2738	379.395	95.0115	379.395	96.2751	379.395	95.3086	379.395	96.2132	379.395	95.6087	379.395	96.0793	379.395	95.874
392.578	98.712	392.578	98.4789	392.578	98.8531	392.578	98.1782	392.578	98.8837	392.578	97.8365	392.578	98.793	392.578	97.474	392.578	98.5796	392.578	97.0961	392.578	98.2534	392.578	96.6908	392.578	97.8381	392.578	96.2388	392.578	97.3721	392.578	95.7333	392.578	96.9054	392.578	95.1992	392.578	96.4927	392.578	94.7038	392.578	96.1814	392.578	94.3416	392.578	96	392.578	94.1904	392.578	95.9457	392.578	94.2645	392.578	95.9814	392.578	94.5107	392.578	96.0489	392.578	94.8478	392.578	96.0922	392.578	95.2039	392.578	96.0735	392.578	95.5288	392.578	95.9747	392.578	95.7913
405.762	98.5828	405.762	98.3568	405.762	98.701	405.762	98.0394	405.762	98.701	405.762	97.6519	405.762	98.579	405.762	97.2184	405.762	98.339	405.762	96.761	405.762	97.9936	405.762	96.2927	405.762	97.5653	405.762	95.8166	405.762	97.0865	405.762	95.3322	405.762	96.5986	405.762	94.8519	405.762	96.1501	405.762	94.4166	405.762	95.7936	405.762	94.0972	405.762	95.5768	405.762	93.9693	405.762	95.5221	405.762	94.0689	405.762	95.6053	405.762	94.3646	405.762	95.76	405.762	94.7732	405.762	95.9089	405.762	95.2002	405.762	95.9921	405.762	95.5694	405.762	95.9733	405.762	95.8334
420.41	99.0519	420.41	98.8592	420.41	99.1337	420.41	98.5706	420.41	99.0932	420.41	98.201	420.41	98.9249	420.41	97.7638	420.41	98.6323	420.41	97.2702	420.41	98.2302	420.41	96.7311	420.41	97.7473	420.41	96.1606	420.41	97.2263	420.41	95.5811	420.41	96.7173	420.41	95.0273	420.41	96.2626	420.41	94.5462	420.41	95.8833	420.41	94.191	420.41	95.5827	420.41	94.0077	420.41	95.3645	420.41	94.0163	420.41	95.2403	420.41	94.1964	420.41	95.2123	420.41	94.4876	420.41	95.2537	420.41	94.8077	420.41	95.3116	420.41	95.0806	420.41	95.3281	420.41	95.2581
435.059	98.7784	435.059	98.6428	435.059	98.8235	435.059	98.427	435.059	98.7698	435.059	98.1393	435.059	98.6118	435.059	97.7832	435.059	98.349	435.059	97.3567	435.059	97.9874	435.059	96.8571	435.059	97.5449	435.059	96.2907	435.059	97.0584	435.059	95.6858	435.059	96.5862	435.059	95.1034	435.059	96.1965	435.059	94.6337	435.059	95.9377	435.059	94.3651	435.059	95.8082	435.059	94.3337	435.059	95.7595	435.059	94.4988	435.059	95.7352	435.059	94.7731	435.059	95.7074	435.059	95.0708	435.059	95.6818	435.059	95.3309	435.059	95.6706	435.059	95.5188	435.059	95.663	435.059	95.6243
451.172	99.264	451.172	99.0599	451.172	99.3659	451.172	98.7749	451.172	99.343	451.172	98.4219	451.172	99.1766	451.172	97.9994	451.172	98.8579	451.172	97.4884	451.172	98.3925	451.172	96.8572	451.172	97.8058	451.172	96.0748	451.172	97.1478	451.172	95.1362	451.172	96.4933	451.172	94.0987	451.172	95.9282	451.172	93.1245	451.172	95.5169	451.172	92.4732	451.172	95.2703	451.172	92.346	451.172	95.1475	451.172	92.6921	451.172	95.0924	451.172	93.274	451.172	95.0686	451.172	93.8754	451.172	95.0633	451.172	94.3779	451.172	95.0652	451.172	94.7368	451.172	95.0436	451.172	94.9497
465.82	99.0289	465.82	98.8391	465.82	99.1042	465.82	98.5613	465.82	99.0476	465.82	98.2235	465.82	98.8543	465.82	97.8451	465.82	98.5313	465.82	97.4282	465.82	98.0949	465.82	96.9553	465.82	97.5695	465.82	96.3966	465.82	96.9906	465.82	95.7256	465.82	96.4075	465.82	94.9424	465.82	95.8789	465.82	94.1044	465.82	95.4577	465.82	93.3555	465.82	95.1722	465.82	92.9025	465.82	95.0188	465.82	92.8831	465.82	94.9686	465.82	93.2337	465.82	94.9831	465.82	93.7547	465.82	95.0244	465.82	94.2647	465.82	95.0553	465.82	94.6627	465.82	95.0341	465.82	94.9155
483.398	98.9936	483.398	98.7981	483.398	99.0879	483.398	98.5225	483.398	99.0674	483.398	98.1915	483.398	98.9255	483.398	97.824	483.398	98.6603	483.398	97.421	483.398	98.2739	483.398	96.9575	483.398	97.7779	483.398	96.3859	483.398	97.2016	483.398	95.6545	483.398	96.5974	483.398	94.739	483.398	96.032	483.398	93.6885	483.398	95.5627	483.398	92.6813	483.398	95.2135	483.398	92.0246	483.398	94.9734	483.398	91.9616	483.398	94.8197	483.398	92.4242	483.398	94.7384	483.398	93.1247	483.398	94.7238	483.398	93.8072	483.398	94.7514	483.398	94.329	483.398	94.7542	483.398	94.6383
499.512	98.741	499.512	98.5579	499.512	98.8438	499.512	98.3239	499.512	98.8436	499.512	98.0656	499.512	98.7259	499.512	97.7913	499.512	98.4821	499.512	97.4814	499.512	98.1109	499.512	97.0913	499.512	97.624	499.512	96.5666	499.512	97.0548	499.512	95.8613	499.512	96.4618	499.512	94.9615	499.512	95.9205	499.512	93.9186	499.512	95.4975	499.512	92.8977	499.512	95.2165	499.512	92.1895	499.512	95.0464	499.512	92.0508	499.512	94.9282	499.512	92.4429	499.512	94.8167	499.512	93.0765	499.512	94.705	499.512	93.6822	499.512	94.6088	499.512	94.1259	499.512	94.5218	499.512	94.3879
517.09	98.7372	517.09	98.536	517.09	98.8573	517.09	98.3005	517.09	98.8588	517.09	98.0706	517.09	98.7211	517.09	97.8587	517.09	98.4403	517.09	97.6386	517.09	98.0266	517.09	97.355	517.09	97.5037	517.09	96.9444	517.09	96.9148	517.09	96.3533	517.09	96.3288	517.09	95.552	517.09	95.8303	517.09	94.5544	517.09	95.479	517.09	93.4627	517.09	95.2647	517.09	92.5282	517.09	95.1199	517.09	92.098	517.09	94.9856	517.09	92.3073	517.09	94.8574	517.09	92.9106	517.09	94.7637	517.09	93.5723	517.09	94.705	517.09	94.1022	517.09	94.626	517.09	94.4462
536.133	98.2511	536.133	97.9284	536.133	98.437	536.133	97.5299	536.133	98.4606	536.133	97.144	536.133	98.3219	536.133	96.8495	536.133	98.0315	536.133	96.6661	536.133	97.6057	536.133	96.5355	536.133	97.0745	536.133	96.3515	536.133	96.4978	536.133	96.0085	536.133	95.9678	536.133	95.4373	536.133	95.5776	536.133	94.6335	536.133	95.3652	536.133	93.6974	536.133	95.2905	536.133	92.8719	536.133	95.2733	536.133	92.4661	536.133	95.2466	536.133	92.6028	536.133	95.183	536.133	93.1075	536.133	95.0929	536.133	93.7169	536.133	94.9929	536.133	94.2517	536.133	94.8609	536.133	94.6329
555.176	99.0819	555.176	98.6365	555.176	99.3391	555.176	98.0659	555.176	99.3803	555.176	97.4734	555.176	99.1994	555.176	96.9706	555.176	98.8029	555.176	96.6054	555.176	98.2082	555.176	96.3161	555.176	97.4496	555.176	95.9711	555.176	96.5926	555.176	95.4445	555.176	95.754	555.176	94.6639	555.176	95.1008	555.176	93.6343	555.176	94.7729	555.176	92.4824	555.176	94.7512	555.176	91.5179	555.176	94.8425	555.176	91.148	555.176	94.8316	555.176	91.4866	555.176	94.6246	555.176	92.206	555.176	94.2915	555.176	92.9202	555.176	93.9977	555.176	93.427	555.176	93.8307	555.176	93.697
574.219	99.6899	574.219	99.2247	574.219	99.974	574.219	98.6245	574.219	100.056	574.219	97.9773	574.219	99.9296	574.219	97.4093	574.219	99.5936	574.219	97.0234	574.219	99.0557	574.219	96.8062	574.219	98.3348	574.219	96.6161	574.219	97.475	574.219	96.2753	574.219	96.5698	574.219	95.6559	574.219	95.7746	574.219	94.7149	574.219	95.2575	574.219	93.5192	574.219	95.0817	574.219	92.3119	574.219	95.1415	574.219	91.5401	574.219	95.2427	574.219	91.5575	574.219	95.2272	574.219	92.1971	574.219	95.0486	574.219	93.0085	574.219	94.7731	574.219	93.6898	574.219	94.4837	574.219	94.159
594.727	99.2649	594.727	98.8378	594.727	99.4939	594.727	98.2462	594.727	99.5193	594.727	97.5792	594.727	99.3445	594.727	96.9868	594.727	98.9742	594.727	96.6098	594.727	98.4153	594.727	96.4569	594.727	97.688	594.727	96.3788	594.727	96.85	594.727	96.1753	594.727	96.0288	594.727	95.6897	594.727	95.4171	594.727	94.8354	594.727	95.1632	594.727	93.6219	594.727	95.2248	594.727	92.2583	594.727	95.4038	594.727	91.2996	594.727	95.5153	594.727	91.3287	594.727	95.478	594.727	92.1558	594.727	95.3076	594.727	93.1445	594.727	95.0687	594.727	93.9334	594.727	94.801	594.727	94.4588
615.234	100.338	615.234	99.7513	615.234	100.638	615.234	98.9086	615.234	100.659	615.234	97.9093	615.234	100.425	615.234	96.9548	615.234	99.9665	615.234	96.3157	615.234	99.3074	615.234	96.1459	615.234	98.4567	615.234	96.3183	615.234	97.4138	615.234	96.5403	615.234	96.1994	615.234	96.5492	615.234	94.9454	615.234	96.1673	615.234	94.0497	615.234	95.2918	615.234	94.0249	615.234	93.9309	615.234	94.7429	615.234	92.3553	615.234	95.498	615.234	91.2431	615.234	95.8047	615.234	91.1376	615.234	95.5536	615.234	91.7055	615.234	94.8739	615.234	92.4319	615.234	94.0139	615.234	93.185
637.207	100.603	637.207	100.131	637.207	100.813	637.207	99.3622	637.207	100.806	637.207	98.3078	637.207	100.613	637.207	97.0982	637.207	100.246	637.207	96.0486	637.207	99.6936	637.207	95.5444	637.207	98.919	637.207	95.6479	637.207	97.883	637.207	96.0017	637.207	96.5823	637.207	96.2039	637.207	95.1321	637.207	96.0169	637.207	93.9092	637.207	95.3575	637.207	93.5405	637.207	94.3004	637.207	94.2371	637.207	93.1667	637.207	95.4	637.207	92.5369	637.207	96.3726	637.207	92.7856	637.207	96.8554	637.207	93.6433	637.207	96.8128	637.207	94.6583	637.207	96.3458	637.207	95.5926
659.18	100.905	659.18	100.527	659.18	100.992	659.18	99.8409	659.18	100.838	659.18	98.8691	659.18	100.508	659.18	97.6942	659.18	100.056	659.18	96.4992	659.18	99.5059	659.18	95.5871	659.18	98.8413	659.18	95.2316	659.18	98.0169	659.18	95.3878	659.18	96.9755	659.18	95.7121	659.18	95.6823	659.18	95.8601	659.18	94.2337	659.18	95.633	659.18	93.1459	659.18	94.9878	659.18	93.332	659.18	94.0805	659.18	94.7254	659.18	93.3666	659.18	96.2699	659.18	93.4514	659.18	97.3333	659.18	94.4099	659.18	97.7574	659.18	95.7005	659.18	97.5635	659.18	96.8344
682.617	100.864	682.617	100.504	682.617	100.933	682.617	99.8343	682.617	100.747	682.617	98.8476	682.617	100.363	682.617	97.5703	682.617	99.8501	682.617	96.129	682.617	99.2666	682.617	94.8671	682.617	98.6406	682.617	94.2591	682.617	97.9658	682.617	94.377	682.617	97.1966	682.617	94.7835	682.617	96.2297	682.617	95.0999	682.617	94.9368	682.617	95.2104	682.617	93.4338	682.617	95.151	682.617	92.6937	682.617	95.0345	682.617	93.712	682.617	95.0405	682.617	95.4346	682.617	95.3526	682.617	96.7668	682.617	95.9924	682.617	97.4899	682.617	96.76	682.617	97.6665	682.617	97.3848
707.52	101.488	707.52	101.19	707.52	101.47	707.52	100.534	707.52	101.197	707.52	99.5128	707.52	100.738	707.52	98.1704	707.52	100.153	707.52	96.6122	707.52	99.4908	707.52	95.0399	707.52	98.7675	707.52	93.8257	707.52	97.9531	707.52	93.4091	707.52	96.969	707.52	93.775	707.52	95.7131	707.52	94.3703	707.52	94.1368	707.52	94.7092	707.52	92.4841	707.52	94.6602	707.52	91.7383	707.52	94.4326	707.52	92.8102	707.52	94.4387	707.52	94.7351	707.52	94.9314	707.52	96.3568	707.52	95.777	707.52	97.3149	707.52	96.6694	707.52	97.6083	707.52	97.344
732.422	101.785	732.422	101.696	732.422	101.631	732.422	101.343	732.422	101.257	732.422	100.705	732.422	100.714	732.422	99.7548	732.422	100.074	732.422	98.4833	732.422	99.4074	732.422	96.9148	732.422	98.758	732.422	95.1679	732.422	98.1175	732.422	93.5867	732.422	97.3856	732.422	92.7338	732.422	96.3162	732.422	92.7491	732.422	94.4775	732.422	93.0298	732.422	91.2121	732.422	93.0305	732.422	86.7424	732.422	92.7413	732.422	89.0376	732.422	92.6781	732.422	93.5437	732.422	93.425	732.422	96.1994	732.422	94.8561	732.422	97.5125	732.422	96.3467	732.422	97.8573	732.422	97.4236
757.324	101.204	757.324	101.135	757.324	101.118	757.324	100.915	757.324	100.892	757.324	100.548	757.324	100.556	757.324	100.018	757.324	100.143	757.324	99.2907	757.324	99.6838	757.324	98.3535	757.324	99.2133	757.324	97.28	757.324	98.7842	757.324	96.2322	757.324	98.4301	757.324	95.3237	757.324	98.0614	757.324	94.4957	757.324	97.384	757.324	93.6239	757.324	95.9177	757.324	92.6992	757.324	92.9388	757.324	91.8856	757.324	87.1638	757.324	91.5265	757.324	85.6373	757.324	92.028	757.324	91.7828	757.324	93.3547	757.324	94.8785	757.324	94.8723	757.324	96.0419	757.324	95.9148
785.156	100.012	785.156	99.6937	785.156	100.186	785.156	99.3173	785.156	100.152	785.156	98.9703	785.156	99.8761	785.156	98.6909	785.156	99.3561	785.156	98.4334	785.156	98.6554	785.156	98.1064	785.156	97.9314	785.156	97.6844	785.156	97.3926	785.156	97.2644	785.156	97.1482	785.156	96.9268	785.156	97.0704	785.156	96.5577	785.156	96.8224	785.156	95.9555	785.156	95.9794	785.156	95.0723	785.156	94.0832	785.156	94.086	785.156	90.7319	785.156	93.2676	785.156	87.6978	785.156	92.8122	785.156	89.9692	785.156	92.8493	785.156	92.649	785.156	93.3474	785.156	93.8165	785.156	93.8725
811.523	99.2777	811.523	98.9678	811.523	99.3484	811.523	98.4781	811.523	99.1522	811.523	97.9447	811.523	98.6657	811.523	97.5385	811.523	97.8739	811.523	97.2729	811.523	96.7968	811.523	96.9383	811.523	95.563	811.523	96.3776	811.523	94.5517	811.523	95.7863	811.523	94.3646	811.523	95.6201	811.523	95.0854	811.523	95.9394	811.523	95.9169	811.523	96.244	811.523	95.9888	811.523	96.1475	811.523	94.6195	811.523	95.7398	811.523	90.8751	811.523	95.5133	811.523	85.417	811.523	95.8669	811.523	90.7229	811.523	96.608	811.523	94.9642	811.523	97.259	811.523	96.8631	811.523	97.4528
840.82	100.861	840.82	100.792	840.82	100.623	840.82	100.361	840.82	100.105	840.82	99.4963	840.82	99.3231	840.82	98.1669	840.82	98.2831	840.82	96.481	840.82	96.9533	840.82	94.8184	840.82	95.2706	840.82	93.8383	840.82	93.3061	840.82	94.021	840.82	91.7514	840.82	95.1178	840.82	91.8955	840.82	96.4101	840.82	93.3552	840.82	97.295	840.82	94.5621	840.82	97.5105	840.82	94.614	840.82	97.1537	840.82	92.816	840.82	96.6836	840.82	88.0907	840.82	96.7051	840.82	87.2669	840.82	97.3045	840.82	93.355	840.82	97.8906	840.82	96.5408	840.82	97.8123
870.117	100.896	870.117	100.834	870.117	100.767	870.117	100.532	870.117	100.521	870.117	99.9613	870.117	100.199	870.117	99.089	870.117	99.755	870.117	97.8716	870.117	99.0598	870.117	96.2444	870.117	97.9468	870.117	94.1438	870.117	96.2312	870.117	91.8447	870.117	93.8841	870.117	90.9761	870.117	92.1321	870.117	92.5285	870.117	93.2263	870.117	94.4357	870.117	95.1543	870.117	95.6551	870.117	95.8479	870.117	96.2669	870.117	94.6444	870.117	96.6221	870.117	90.5447	870.117	97.0453	870.117	85.2584	870.117	97.5841	870.117	91.9384	870.117	97.9149	870.117	95.9061	870.117	97.5508
900.879	101.837	900.879	101.635	900.879	101.786	900.879	101.248	900.879	101.481	900.879	100.711	900.879	100.994	900.879	99.9607	900.879	100.412	900.879	98.8708	900.879	99.7237	900.879	97.2922	900.879	98.7634	900.879	95.0165	900.879	97.2486	900.879	91.6975	900.879	94.9226	900.879	87.4056	900.879	92.141	900.879	87.2358	900.879	91.3965	900.879	91.0016	900.879	93.2411	900.879	93.4712	900.879	94.7397	900.879	94.5723	900.879	94.6944	900.879	94.9932	900.879	92.3307	900.879	95.6191	900.879	88.293	900.879	96.7764	900.879	92.3273	900.879	97.8222	900.879	96.3926	900.879	97.935
933.105	101.274	933.105	100.828	933.105	101.316	933.105	100.12	933.105	100.97	933.105	99.3896	933.105	100.361	933.105	98.7731	933.105	99.6378	933.105	98.1478	933.105	98.8591	933.105	97.2054	933.105	97.9293	933.105	95.5874	933.105	96.6117	933.105	92.8612	933.105	94.6207	933.105	88.2583	933.105	92.0884	933.105	82.4838	933.105	91.089	933.105	86.7772	933.105	92.7272	933.105	90.836	933.105	94.1355	933.105	92.8623	933.105	93.8963	933.105	93.9825	933.105	91.0452	933.105	94.9405	933.105	84.5252	933.105	96.0176	933.105	90.1481	933.105	96.8926	933.105	95.0723	933.105	96.8604
965.332	101.056	965.332	100.557	965.332	101.072	965.332	99.6198	965.332	100.715	965.332	98.538	965.332	100.169	965.332	97.789	965.332	99.5683	965.332	97.4961	965.332	98.8984	965.332	97.1982	965.332	98.0042	965.332	96.3956	965.332	96.6461	965.332	94.6956	965.332	94.4416	965.332	91.3595	965.332	90.8083	965.332	83.9668	965.332	87.6279	965.332	81.2287	965.332	91.0465	965.332	89.4036	965.332	93.9007	965.332	92.682	965.332	94.0941	965.332	94.2542	965.332	90.9121	965.332	95.1187	965.332	80.2048	965.332	95.9423	965.332	89.9838	965.332	96.8111	965.332	95.2711	965.332	96.9428
1,000.49	101.415	1,000.49	100.825	1,000.49	101.352	1,000.49	99.5198	1,000.49	100.788	1,000.49	97.6211	1,000.49	99.9342	1,000.49	95.89	1,000.49	99.0492	1,000.49	95.6954	1,000.49	98.3576	1,000.49	96.5471	1,000.49	97.8398	1,000.49	96.9329	1,000.49	97.1366	1,000.49	96.1773	1,000.49	95.6491	1,000.49	93.8466	1,000.49	92.4184	1,000.49	88.9941	1,000.49	85.7761	1,000.49	78.3856	1,000.49	88.1468	1,000.49	85.3318	1,000.49	93.5187	1,000.49	91.1496	1,000.49	95.0839	1,000.49	94.0449	1,000.49	93.3934	1,000.49	95.6475	1,000.49	86.2375	1,000.49	96.6197	1,000.49	87.4423	1,000.49	97.1511	1,000.49	94.4551	1,000.49	96.7957
1,035.64	102.132	1,035.64	102.22	1,035.64	101.485	1,035.64	101.532	1,035.64	100.427	1,035.64	99.8511	1,035.64	99.0752	1,035.64	97.1311	1,035.64	97.6856	1,035.64	94.4366	1,035.64	96.7609	1,035.64	94.4523	1,035.64	96.6453	1,035.64	95.825	1,035.64	96.9362	1,035.64	96.2627	1,035.64	96.7441	1,035.64	95.3428	1,035.64	95.1261	1,035.64	93.038	1,035.64	90.5124	1,035.64	88.9487	1,035.64	81.5564	1,035.64	79.7926	1,035.64	91.5967	1,035.64	80.6892	1,035.64	95.8302	1,035.64	89.823	1,035.64	96.4213	1,035.64	93.7609	1,035.64	93.5155	1,035.64	95.5983	1,035.64	85.9888	1,035.64	95.8915	1,035.64	90.0747	1,035.64	94.4812
1,072.27	101.503	1,072.27	101.955	1,072.27	100.581	1,072.27	101.712	1,072.27	99.3578	1,072.27	100.569	1,072.27	97.8971	1,072.27	98.3817	1,072.27	96.3176	1,072.27	95.309	1,072.27	94.9922	1,072.27	93.0287	1,072.27	94.4095	1,072.27	93.8797	1,072.27	94.7303	1,072.27	95.6169	1,072.27	95.3862	1,072.27	96.3209	1,072.27	95.2172	1,072.27	95.255	1,072.27	92.737	1,072.27	91.4644	1,072.27	84.6153	1,072.27	81.4773	1,072.27	87.8225	1,072.27	79.8252	1,072.27	94.7152	1,072.27	87.9536	1,072.27	96.6819	1,072.27	91.4091	1,072.27	95.1635	1,072.27	93.5708	1,072.27	88.3684	1,072.27	94.1668	1,072.27	80.8247	1,072.27	91.9152
1,108.89	100.424	1,108.89	100.873	1,108.89	99.7659	1,108.89	100.939	1,108.89	98.8691	1,108.89	100.316	1,108.89	97.6995	1,108.89	98.7115	1,108.89	96.3455	1,108.89	96.0216	1,108.89	94.9227	1,108.89	93.1531	1,108.89	93.8643	1,108.89	92.9555	1,108.89	93.8829	1,108.89	94.7308	1,108.89	94.5757	1,108.89	95.705	1,108.89	94.5947	1,108.89	94.9818	1,108.89	92.7399	1,108.89	92.1961	1,108.89	87.0538	1,108.89	86.3917	1,108.89	84.3886	1,108.89	72.0832	1,108.89	92.951	1,108.89	83.8624	1,108.89	95.6444	1,108.89	89.4159	1,108.89	94.4197	1,108.89	92.1531	1,108.89	87.8119	1,108.89	92.8354	1,108.89	78.938	1,108.89	90.5736
1,148.44	99.6545	1,148.44	99.9906	1,148.44	99.2045	1,148.44	100.106	1,148.44	98.5968	1,148.44	99.6346	1,148.44	97.8001	1,148.44	98.1896	1,148.44	96.7804	1,148.44	95.6565	1,148.44	95.4962	1,148.44	92.7554	1,148.44	93.9592	1,148.44	92.4373	1,148.44	92.5281	1,148.44	94.6357	1,148.44	92.1006	1,148.44	96.0101	1,148.44	92.4814	1,148.44	95.6295	1,148.44	92.0012	1,148.44	93.2893	1,148.44	88.3203	1,148.44	88.4668	1,148.44	78.7467	1,148.44	78.1202	1,148.44	91.8204	1,148.44	83.3212	1,148.44	95.784	1,148.44	89.5212	1,148.44	95.5571	1,148.44	91.9903	1,148.44	91.1458	1,148.44	91.9303	1,148.44	72.028	1,148.44	87.9861
1,189.45	99.5893	1,189.45	99.7612	1,189.45	99.3952	1,189.45	99.8451	1,189.45	99.1537	1,189.45	99.5393	1,189.45	98.7396	1,189.45	98.3731	1,189.45	97.9836	1,189.45	96.022	1,189.45	96.7299	1,189.45	92.4217	1,189.45	94.8334	1,189.45	89.7166	1,189.45	92.5928	1,189.45	92.1314	1,189.45	91.561	1,189.45	94.6538	1,189.45	92.2969	1,189.45	95.4822	1,189.45	92.7144	1,189.45	94.7088	1,189.45	91.16	1,189.45	92.2764	1,189.45	83.78	1,189.45	87.6933	1,189.45	85.1961	1,189.45	81.1201	1,189.45	94.2033	1,189.45	83.9706	1,189.45	96.0388	1,189.45	87.2645	1,189.45	93.5677	1,189.45	86.9189	1,189.45	85.0492	1,189.45	79.1344
1,230.47	100.716	1,230.47	100.334	1,230.47	100.619	1,230.47	99.7295	1,230.47	100.133	1,230.47	99.1256	1,230.47	99.5475	1,230.47	98.3339	1,230.47	98.9635	1,230.47	96.9848	1,230.47	98.2813	1,230.47	94.7514	1,230.47	97.3033	1,230.47	91.7023	1,230.47	95.6169	1,230.47	90.7301	1,230.47	92.8354	1,230.47	92.8237	1,230.47	90.2697	1,230.47	94.1069	1,230.47	90.8518	1,230.47	93.968	1,230.47	91.302	1,230.47	92.8011	1,230.47	87.462	1,230.47	90.3779	1,230.47	85.1672	1,230.47	84.7317	1,230.47	92.8262	1,230.47	70.105	1,230.47	94.8356	1,230.47	83.9222	1,230.47	93.2184	1,230.47	85.8148	1,230.47	88.1245	1,230.47	83.5987
1,274.41	100.917	1,274.41	100.75	1,274.41	100.829	1,274.41	100.264	1,274.41	100.563	1,274.41	99.5997	1,274.41	100.077	1,274.41	98.9	1,274.41	99.3313	1,274.41	97.8775	1,274.41	98.4633	1,274.41	95.8063	1,274.41	97.4204	1,274.41	92.103	1,274.41	95.6634	1,274.41	89.0574	1,274.41	93.0047	1,274.41	89.0323	1,274.41	91.0905	1,274.41	89.0517	1,274.41	91.8571	1,274.41	89.5493	1,274.41	92.6207	1,274.41	90.4118	1,274.41	90.5213	1,274.41	89.8451	1,274.41	82.8541	1,274.41	85.5423	1,274.41	88.0716	1,274.41	68.3343	1,274.41	93.1558	1,274.41	82.9968	1,274.41	93.1977	1,274.41	86.3174	1,274.41	89.6265	1,274.41	86.7079
1,319.82	100.644	1,319.82	100.809	1,319.82	100.192	1,319.82	100.291	1,319.82	99.9597	1,319.82	99.1425	1,319.82	99.6931	1,319.82	97.4103	1,319.82	98.9512	1,319.82	95.3827	1,319.82	97.7098	1,319.82	93.6528	1,319.82	96.0193	1,319.82	92.1631	1,319.82	94.4477	1,319.82	90.7406	1,319.82	93.777	1,319.82	90.2521	1,319.82	93.0721	1,319.82	90.2448	1,319.82	91.2477	1,319.82	89.5068	1,319.82	89.9759	1,319.82	88.2124	1,319.82	87.6761	1,319.82	87.146	1,319.82	82.6141	1,319.82	85.2605	1,319.82	89.8767	1,319.82	80.2269	1,319.82	93.2153	1,319.82	82.3022	1,319.82	91.9781	1,319.82	86.8939	1,319.82	89.4062	1,319.82	88.4016
1,366.7	100.622	1,366.7	100.554	1,366.7	100.413	1,366.7	99.809	1,366.7	100.126	1,366.7	98.7014	1,366.7	99.5655	1,366.7	97.736	1,366.7	98.7847	1,366.7	96.4235	1,366.7	97.8635	1,366.7	93.6503	1,366.7	96.5636	1,366.7	89.4334	1,366.7	94.975	1,366.7	87.6919	1,366.7	93.2733	1,366.7	88.7525	1,366.7	91.8307	1,366.7	88.1081	1,366.7	91.7	1,366.7	85.9248	1,366.7	91.3468	1,366.7	86.0212	1,366.7	89.2706	1,366.7	87.6389	1,366.7	84.0492	1,366.7	85.7467	1,366.7	89.7321	1,366.7	77.449	1,366.7	93.1681	1,366.7	77.7457	1,366.7	90.9704	1,366.7	84.2169	1,366.7	84.0599	1,366.7	85.095
1,413.57	100.474	1,413.57	100.343	1,413.57	100.389	1,413.57	99.5812	1,413.57	99.8592	1,413.57	97.9981	1,413.57	99.0628	1,413.57	96.9769	1,413.57	98.4049	1,413.57	96.7616	1,413.57	97.5345	1,413.57	94.7886	1,413.57	96.3074	1,413.57	88.7813	1,413.57	95.1926	1,413.57	81.0148	1,413.57	93.8237	1,413.57	85.1688	1,413.57	91.6773	1,413.57	87.0289	1,413.57	89.4223	1,413.57	84.7483	1,413.57	89.1569	1,413.57	82.7841	1,413.57	90.1536	1,413.57	84.8027	1,413.57	86.6909	1,413.57	83.3027	1,413.57	86.8624	1,413.57	77.1324	1,413.57	92.8046	1,413.57	76.5378	1,413.57	91.6599	1,413.57	82.569	1,413.57	85.1359	1,413.57	82.9915
1,463.38	100.657	1,463.38	99.9657	1,463.38	100.352	1,463.38	98.8894	1,463.38	99.4418	1,463.38	98.0017	1,463.38	98.7269	1,463.38	96.8532	1,463.38	98.0923	1,463.38	95.1884	1,463.38	96.8962	1,463.38	93.6006	1,463.38	95.1887	1,463.38	91.2842	1,463.38	93.6135	1,463.38	87.4316	1,463.38	92.291	1,463.38	85.8315	1,463.38	90.145	1,463.38	90.1037	1,463.38	88.0111	1,463.38	90.4351	1,463.38	89.7088	1,463.38	85.6214	1,463.38	89.8177	1,463.38	83.5431	1,463.38	84.4531	1,463.38	85.8222	1,463.38	86.0027	1,463.38	84.906	1,463.38	90.9098	1,463.38	81.3921	1,463.38	91.3668	1,463.38	81.3973	1,463.38	88.1572	1,463.38	82.4318
1,516.11	100.834	1,516.11	99.7363	1,516.11	100.64	1,516.11	97.6794	1,516.11	99.743	1,516.11	96.2159	1,516.11	98.5607	1,516.11	95.8483	1,516.11	97.0507	1,516.11	94.6415	1,516.11	95.5166	1,516.11	92.1318	1,516.11	94.2608	1,516.11	90.3975	1,516.11	93.4308	1,516.11	88.8599	1,516.11	92.9443	1,516.11	88.1386	1,516.11	90.9919	1,516.11	90.9297	1,516.11	88.0642	1,516.11	91.4197	1,516.11	88.6405	1,516.11	88.604	1,516.11	88.0615	1,516.11	80.3823	1,516.11	82.422	1,516.11	72.6561	1,516.11	86.0141	1,516.11	79.8784	1,516.11	89.9665	1,516.11	82.9727	1,516.11	90.3095	1,516.11	84.5479	1,516.11	87.8483	1,516.11	84.7935
1,568.85	101.036	1,568.85	99.9903	1,568.85	100.672	1,568.85	98.3512	1,568.85	99.4644	1,568.85	97.2539	1,568.85	98.0904	1,568.85	96.3431	1,568.85	96.3788	1,568.85	94.4519	1,568.85	94.5353	1,568.85	91.4542	1,568.85	93.1657	1,568.85	89.2711	1,568.85	92.0595	1,568.85	87.6441	1,568.85	91.2846	1,568.85	85.2329	1,568.85	89.7239	1,568.85	89.1661	1,568.85	87.065	1,568.85	91.6634	1,568.85	85.9549	1,568.85	91.1329	1,568.85	85.6499	1,568.85	86.9337	1,568.85	87.1705	1,568.85	79.9807	1,568.85	83.4901	1,568.85	81.8126	1,568.85	86.6296	1,568.85	83.1672	1,568.85	89.4625	1,568.85	83.83	1,568.85	88.5145	1,568.85	86.1904
1,624.51	100.808	1,624.51	100.158	1,624.51	100.651	1,624.51	98.9879	1,624.51	99.8562	1,624.51	97.2657	1,624.51	98.278	1,624.51	94.8054	1,624.51	96.1249	1,624.51	92.1331	1,624.51	94.2292	1,624.51	90.1816	1,624.51	92.2926	1,624.51	88.4992	1,624.51	91.2569	1,624.51	85.2765	1,624.51	91.8895	1,624.51	77.4226	1,624.51	90.3564	1,624.51	77.081	1,624.51	84.5481	1,624.51	86.3379	1,624.51	82.9709	1,624.51	88.7514	1,624.51	85.0738	1,624.51	87.0608	1,624.51	81.1388	1,624.51	84.1498	1,624.51	83.4634	1,624.51	83.2804	1,624.51	83.4935	1,624.51	83.9687	1,624.51	85.3965	1,624.51	85.049	1,624.51	87.8357	1,624.51	86.5006
1,681.64	99.9079	1,681.64	99.3509	1,681.64	100.216	1,681.64	98.6248	1,681.64	99.4134	1,681.64	96.8268	1,681.64	97.3022	1,681.64	93.9222	1,681.64	94.7964	1,681.64	91.0936	1,681.64	92.4699	1,681.64	89.1408	1,681.64	89.6729	1,681.64	87.5444	1,681.64	88.0336	1,681.64	85.7888	1,681.64	88.9009	1,681.64	82.3029	1,681.64	88.4142	1,681.64	78.1803	1,681.64	84.477	1,681.64	81.5836	1,681.64	80.0245	1,681.64	83.7753	1,681.64	84.7344	1,681.64	84.7598	1,681.64	83.6548	1,681.64	84.6317	1,681.64	76.2184	1,681.64	81.3003	1,681.64	84.2711	1,681.64	79.5465	1,681.64	82.967	1,681.64	83.6228	1,681.64	81.8844	1,681.64	84.1193
1,741.7	100.237	1,741.7	99.5557	1,741.7	100.216	1,741.7	98.8243	1,741.7	99.0021	1,741.7	96.9409	1,741.7	96.783	1,741.7	92.8635	1,741.7	93.5943	1,741.7	90.0387	1,741.7	89.9249	1,741.7	90.0328	1,741.7	87.3028	1,741.7	87.4169	1,741.7	86.9794	1,741.7	83.7252	1,741.7	86.7521	1,741.7	81.4783	1,741.7	86.0676	1,741.7	72.5542	1,741.7	84.732	1,741.7	62.6082	1,741.7	81.1839	1,741.7	78.081	1,741.7	83.1859	1,741.7	82.548	1,741.7	81.9709	1,741.7	84.4379	1,741.7	74.0947	1,741.7	83.6465	1,741.7	79.0316	1,741.7	79.994	1,741.7	84.9108	1,741.7	82.5664	1,741.7	86.3922	1,741.7	85.3622
1,803.22	101.006	1,803.22	100.191	1,803.22	100.301	1,803.22	98.5564	1,803.22	98.3791	1,803.22	96.7203	1,803.22	95.6369	1,803.22	93.311	1,803.22	91.9703	1,803.22	88.7927	1,803.22	88.4074	1,803.22	87.8741	1,803.22	86.7223	1,803.22	85.8833	1,803.22	87.3294	1,803.22	80.3266	1,803.22	88.5174	1,803.22	80.8619	1,803.22	87.5781	1,803.22	82.3632	1,803.22	84.3293	1,803.22	77.3189	1,803.22	82.2612	1,803.22	67.24	1,803.22	83.2502	1,803.22	74.4559	1,803.22	79.8555	1,803.22	79.7174	1,803.22	77.0169	1,803.22	82.8772	1,803.22	81.7003	1,803.22	81.469	1,803.22	83.4793	1,803.22	80.945	1,803.22	87.3348	1,803.22	85.4249
1,866.21	101.287	1,866.21	101.129	1,866.21	100.582	1,866.21	99.6787	1,866.21	98.731	1,866.21	96.5525	1,866.21	95.0091	1,866.21	92.33	1,866.21	90.0478	1,866.21	89.4038	1,866.21	86.4298	1,866.21	88.0895	1,866.21	86.19	1,866.21	81.6626	1,866.21	88.1221	1,866.21	70.0262	1,866.21	89.3012	1,866.21	81.2059	1,866.21	89.5281	1,866.21	85.3682	1,866.21	88.0993	1,866.21	82.7566	1,866.21	82.058	1,866.21	73.9748	1,866.21	84.6503	1,866.21	73.7161	1,866.21	84.1578	1,866.21	80.7666	1,866.21	68.9408	1,866.21	83.3726	1,866.21	83.3766	1,866.21	82.5194	1,866.21	83.2306	1,866.21	81.9922	1,866.21	80.9225	1,866.21	84.0002
1,932.13	100.751	1,932.13	101.172	1,932.13	100.028	1,932.13	99.9903	1,932.13	98.66	1,932.13	96.4145	1,932.13	95.4265	1,932.13	92.5315	1,932.13	90.4776	1,932.13	89.8995	1,932.13	86.258	1,932.13	87.8559	1,932.13	86.3846	1,932.13	83.7138	1,932.13	87.4747	1,932.13	80.3657	1,932.13	87.5757	1,932.13	73.8064	1,932.13	89.5654	1,932.13	86.3065	1,932.13	90.8143	1,932.13	86.0372	1,932.13	86.5007	1,932.13	80.4779	1,932.13	84.3086	1,932.13	72.724	1,932.13	87.1152	1,932.13	79.5903	1,932.13	78.0174	1,932.13	81.7267	1,932.13	84.4789	1,932.13	81.558	1,932.13	87.2642	1,932.13	81.623	1,932.13	81.3379	1,932.13	81.0576
1,999.51	101.373	1,999.51	100.369	1,999.51	100.451	1,999.51	97.8257	1,999.51	98.3582	1,999.51	94.9002	1,999.51	94.5849	1,999.51	92.5766	1,999.51	88.9093	1,999.51	88.8745	1,999.51	85.3331	1,999.51	85.7022	1,999.51	88.7092	1,999.51	83.8456	1,999.51	90.5487	1,999.51	84.4544	1,999.51	89.6838	1,999.51	75.7686	1,999.51	89.4011	1,999.51	84.004	1,999.51	90.397	1,999.51	85.2401	1,999.51	87.8102	1,999.51	82.6943	1,999.51	82.3985	1,999.51	74.4715	1,999.51	87.1095	1,999.51	78.9779	1,999.51	82.9764	1,999.51	80.7027	1,999.51	80.5933	1,999.51	80.503	1,999.51	88.4091	1,999.51	81.2549	1,999.51	86.9166	1,999.51	83.8594
2,069.82	102.182	2,069.82	100.867	2,069.82	100.985	2,069.82	98.2402	2,069.82	97.8546	2,069.82	96.2575	2,069.82	94.0815	2,069.82	93.0432	2,069.82	88.7479	2,069.82	86.8487	2,069.82	87.3789	2,069.82	84.4663	2,069.82	87.9758	2,069.82	85.0295	2,069.82	89.0468	2,069.82	85.3055	2,069.82	90.5487	2,069.82	70.0899	2,069.82	90.8933	2,069.82	79.9062	2,069.82	90.7955	2,069.82	84.066	2,069.82	89.8863	2,069.82	82.4899	2,069.82	84.1951	2,069.82	79.8276	2,069.82	84.2475	2,069.82	81.1832	2,069.82	79.6777	2,069.82	79.344	2,069.82	79.6963	2,069.82	80.7695	2,069.82	84.7862	2,069.82	83.4355	2,069.82	83.8486	2,069.82	82.7299
2,143.07	102.007	2,143.07	100.224	2,143.07	101.358	2,143.07	97.8227	2,143.07	98.8346	2,143.07	96.9356	2,143.07	93.359	2,143.07	93.2202	2,143.07	86.9045	2,143.07	72.5864	2,143.07	89.1354	2,143.07	76.3971	2,143.07	90.2286	2,143.07	81.9599	2,143.07	89.7184	2,143.07	88.9694	2,143.07	89.8771	2,143.07	88.036	2,143.07	90.9671	2,143.07	83.4114	2,143.07	90.6749	2,143.07	86.7659	2,143.07	90.7202	2,143.07	84.3204	2,143.07	89.3797	2,143.07	69.8369	2,143.07	86.0413	2,143.07	83.0701	2,143.07	84.4499	2,143.07	83.5273	2,143.07	79.0847	2,143.07	76.0665	2,143.07	87.2462	2,143.07	78.5862	2,143.07	87.8549	2,143.07	84.4667
2,219.24	100.962	2,219.24	100.343	2,219.24	100.655	2,219.24	98.1863	2,219.24	98.1227	2,219.24	92.7288	2,219.24	91.0471	2,219.24	89.9111	2,219.24	85.0912	2,219.24	86.3681	2,219.24	90.4033	2,219.24	83.5897	2,219.24	92.867	2,219.24	86.6021	2,219.24	93.282	2,219.24	84.7638	2,219.24	92.4211	2,219.24	88.444	2,219.24	92.4912	2,219.24	86.3273	2,219.24	90.7147	2,219.24	79.8168	2,219.24	89.0166	2,219.24	84.685	2,219.24	88.3043	2,219.24	80.3377	2,219.24	80.6081	2,219.24	78.6231	2,219.24	81.9849	2,219.24	81.1671	2,219.24	76.0839	2,219.24	68.3934	2,219.24	87.2979	2,219.24	67.6007	2,219.24	89.2368	2,219.24	83.5832
2,296.88	101.559	2,296.88	100.187	2,296.88	100.887	2,296.88	96.5941	2,296.88	97.6819	2,296.88	90.7719	2,296.88	92.109	2,296.88	79.0591	2,296.88	86.0696	2,296.88	82.8595	2,296.88	91.1024	2,296.88	88.3103	2,296.88	92.8418	2,296.88	90.5281	2,296.88	93.1857	2,296.88	84.2816	2,296.88	90.7655	2,296.88	80.1749	2,296.88	90.7295	2,296.88	87.5811	2,296.88	90.3387	2,296.88	86.384	2,296.88	86.403	2,296.88	84.1472	2,296.88	88.0628	2,296.88	80.2847	2,296.88	81.9554	2,296.88	80.8909	2,296.88	82.1502	2,296.88	84.6134	2,296.88	80.7976	2,296.88	79.5305	2,296.88	83.0943	2,296.88	60.5187	2,296.88	85.4802	2,296.88	78.4455
2,378.91	102.177	2,378.91	100.212	2,378.91	101.426	2,378.91	95.8987	2,378.91	97.4293	2,378.91	90.8648	2,378.91	88.8115	2,378.91	85.7164	2,378.91	83.2625	2,378.91	88.8439	2,378.91	91.6814	2,378.91	91.4065	2,378.91	94.5738	2,378.91	91.5855	2,378.91	94.9206	2,378.91	87.923	2,378.91	93.1662	2,378.91	83.902	2,378.91	91.927	2,378.91	83.3894	2,378.91	89.2041	2,378.91	85.2654	2,378.91	83.3987	2,378.91	88.2479	2,378.91	87.4922	2,378.91	87.5739	2,378.91	83.4662	2,378.91	79.9965	2,378.91	84.0391	2,378.91	82.1889	2,378.91	79.5735	2,378.91	77.405	2,378.91	80.9972	2,378.91	71.7745	2,378.91	84.0234	2,378.91	75.993
2,462.4	100.946	2,462.4	99.5476	2,462.4	101.083	2,462.4	96.1827	2,462.4	98.2669	2,462.4	89.6877	2,462.4	88.8316	2,462.4	83.5793	2,462.4	89.3373	2,462.4	89.8615	2,462.4	92.3627	2,462.4	88.3749	2,462.4	93.6272	2,462.4	86.0478	2,462.4	93.3854	2,462.4	90.2235	2,462.4	90.6058	2,462.4	88.0952	2,462.4	92.1855	2,462.4	85.0439	2,462.4	90.4213	2,462.4	86.5179	2,462.4	85.6338	2,462.4	85.5493	2,462.4	89.0506	2,462.4	83.8167	2,462.4	82.7471	2,462.4	82.6209	2,462.4	86.7326	2,462.4	80.4671	2,462.4	83.9338	2,462.4	77.364	2,462.4	81.2031	2,462.4	66.3526	2,462.4	86.7685	2,462.4	81.6648
2,548.83	100.413	2,548.83	98.965	2,548.83	100.135	2,548.83	95.8337	2,548.83	97.4797	2,548.83	87.5497	2,548.83	88.2413	2,548.83	84.1348	2,548.83	90.025	2,548.83	89.0272	2,548.83	93.7071	2,548.83	89.4533	2,548.83	93.7023	2,548.83	89.1032	2,548.83	93.1668	2,548.83	85.9972	2,548.83	91.7835	2,548.83	86.453	2,548.83	93.1257	2,548.83	86.3427	2,548.83	91.4027	2,548.83	86.0255	2,548.83	78.3772	2,548.83	85.8218	2,548.83	86.8258	2,548.83	83.7265	2,548.83	86.8419	2,548.83	85.432	2,548.83	84.3997	2,548.83	81.7311	2,548.83	84.1932	2,548.83	66.8024	2,548.83	77.2412	2,548.83	65.4621	2,548.83	87.2729	2,548.83	81.7926
2,639.65	100.85	2,639.65	99.1786	2,639.65	100.133	2,639.65	94.5701	2,639.65	96.6356	2,639.65	82.404	2,639.65	85.2073	2,639.65	83.1959	2,639.65	90.2918	2,639.65	87.611	2,639.65	94.32	2,639.65	90.8544	2,639.65	93.4676	2,639.65	91.0392	2,639.65	92.3906	2,639.65	90.5472	2,639.65	92.402	2,639.65	90.8871	2,639.65	91.603	2,639.65	87.7628	2,639.65	89.675	2,639.65	84.6419	2,639.65	90.053	2,639.65	86.513	2,639.65	86.2038	2,639.65	85.9916	2,639.65	85.9251	2,639.65	84.6466	2,639.65	81.0611	2,639.65	84.8865	2,639.65	82.035	2,639.65	75.608	2,639.65	76.1363	2,639.65	69.9922	2,639.65	88.0356	2,639.65	81.3871
2,731.93	100.996	2,731.93	99.1195	2,731.93	100.161	2,731.93	93.5146	2,731.93	96.3844	2,731.93	81.07	2,731.93	83.5743	2,731.93	83.4464	2,731.93	90.8933	2,731.93	90.4536	2,731.93	95.3009	2,731.93	91.8374	2,731.93	94.6597	2,731.93	91.9513	2,731.93	91.9971	2,731.93	89.585	2,731.93	87.708	2,731.93	87.446	2,731.93	85.9362	2,731.93	87.8356	2,731.93	89.1014	2,731.93	85.8223	2,731.93	88.9655	2,731.93	85.6667	2,731.93	88.8657	2,731.93	86.25	2,731.93	86.2561	2,731.93	84.5452	2,731.93	83.6512	2,731.93	84.6579	2,731.93	82.5163	2,731.93	77.0396	2,731.93	75.8003	2,731.93	71.2577	2,731.93	86.7697	2,731.93	79.8357
2,828.61	100.735	2,828.61	98.7629	2,828.61	100.19	2,828.61	93.5108	2,828.61	96.5067	2,828.61	78.2373	2,828.61	82.4113	2,828.61	88.7842	2,828.61	91.1287	2,828.61	92.886	2,828.61	95.232	2,828.61	93.4046	2,828.61	95.0049	2,828.61	91.8951	2,828.61	94.2115	2,828.61	90.0045	2,828.61	89.9881	2,828.61	86.8774	2,828.61	86.1631	2,828.61	87.536	2,828.61	91.0261	2,828.61	87.7711	2,828.61	89.3868	2,828.61	86.1083	2,828.61	88.8802	2,828.61	87.2009	2,828.61	88.6662	2,828.61	84.589	2,828.61	84.5189	2,828.61	85.1021	2,828.61	81.1967	2,828.61	81.1192	2,828.61	80.4554	2,828.61	72.1804	2,828.61	87.7132	2,828.61	78.0594
2,928.22	100.866	2,928.22	98.6152	2,928.22	100.389	2,928.22	92.4888	2,928.22	96.2536	2,928.22	81.3424	2,928.22	81.6398	2,928.22	92.7216	2,928.22	91.4173	2,928.22	94.8946	2,928.22	95.9462	2,928.22	94.5798	2,928.22	96.4408	2,928.22	92.4181	2,928.22	95.0325	2,928.22	91.4762	2,928.22	89.0403	2,928.22	91.2369	2,928.22	85.3072	2,928.22	88.7989	2,928.22	91.6311	2,928.22	86.8775	2,928.22	89.8683	2,928.22	85.4673	2,928.22	86.594	2,928.22	86.1928	2,928.22	90.2405	2,928.22	86.6599	2,928.22	84.0526	2,928.22	85.1525	2,928.22	80.6195	2,928.22	82.2181	2,928.22	80.6688	2,928.22	54.6201	2,928.22	83.566	2,928.22	78.7393
3,030.76	100.231	3,030.76	97.4242	3,030.76	100.229	3,030.76	89.6388	3,030.76	96.9759	3,030.76	88.3414	3,030.76	83.8411	3,030.76	94.1927	3,030.76	90.852	3,030.76	95.6693	3,030.76	95.752	3,030.76	94.557	3,030.76	96.3099	3,030.76	93.5467	3,030.76	94.3967	3,030.76	92.6251	3,030.76	89.7964	3,030.76	90.2302	3,030.76	88.9113	3,030.76	87.7012	3,030.76	89.549	3,030.76	86.1172	3,030.76	86.7908	3,030.76	85.3275	3,030.76	84.306	3,030.76	85.1293	3,030.76	87.9663	3,030.76	85.9236	3,030.76	82.955	3,030.76	85.5607	3,030.76	79.0129	3,030.76	80.5177	3,030.76	79.82	3,030.76	69.8771	3,030.76	84.1874	3,030.76	77.2407
3,137.7	99.6117	3,137.7	95.9638	3,137.7	100.028	3,137.7	89.054	3,137.7	97.2214	3,137.7	91.054	3,137.7	86.571	3,137.7	95.7869	3,137.7	90.0346	3,137.7	96.4693	3,137.7	95.7061	3,137.7	95.234	3,137.7	96.0454	3,137.7	94.5358	3,137.7	93.4007	3,137.7	89.4789	3,137.7	89.7328	3,137.7	84.9327	3,137.7	88.2967	3,137.7	87.9061	3,137.7	88.7023	3,137.7	85.9196	3,137.7	86.4358	3,137.7	84.3556	3,137.7	83.2675	3,137.7	84.3379	3,137.7	87.3712	3,137.7	82.76	3,137.7	82.4722	3,137.7	83.4617	3,137.7	79.878	3,137.7	79.0855	3,137.7	82.2512	3,137.7	74.176	3,137.7	85.9348	3,137.7	75.9632
3,249.02	97.9237	3,249.02	94.7538	3,249.02	98.8643	3,249.02	91.5019	3,249.02	96.7049	3,249.02	93.0936	3,249.02	89.8344	3,249.02	96.2445	3,249.02	89.4976	3,249.02	96.0194	3,249.02	95.2509	3,249.02	94.2529	3,249.02	96.6511	3,249.02	91.2901	3,249.02	94.5133	3,249.02	88.7552	3,249.02	90.4033	3,249.02	88.8375	3,249.02	87.0764	3,249.02	86.8744	3,249.02	89.3051	3,249.02	84.923	3,249.02	88.9589	3,249.02	82.0327	3,249.02	82.0475	3,249.02	83.2295	3,249.02	85.8261	3,249.02	83.2154	3,249.02	83.9708	3,249.02	82.4207	3,249.02	79.3215	3,249.02	74.5287	3,249.02	81.2546	3,249.02	72.7419	3,249.02	86.4356	3,249.02	76.2589
3,363.28	97.3784	3,363.28	95.882	3,363.28	98.0082	3,363.28	92.1229	3,363.28	96.0964	3,363.28	93.6857	3,363.28	90.8588	3,363.28	95.844	3,363.28	92.4716	3,363.28	95.1727	3,363.28	95.5033	3,363.28	93.4393	3,363.28	96.9283	3,363.28	90.0106	3,363.28	95.4757	3,363.28	90.4687	3,363.28	92.5797	3,363.28	87.9309	3,363.28	90.289	3,363.28	85.1613	3,363.28	90.342	3,363.28	86.0382	3,363.28	88.9698	3,363.28	83.239	3,363.28	84.5127	3,363.28	82.2745	3,363.28	87.1745	3,363.28	82.414	3,363.28	86.4233	3,363.28	81.5389	3,363.28	80.1619	3,363.28	78.4359	3,363.28	79.4245	3,363.28	62.2552	3,363.28	84.0004	3,363.28	75.1695
3,481.93	97.5435	3,481.93	96.8662	3,481.93	97.1613	3,481.93	92.9222	3,481.93	96.1055	3,481.93	94.8384	3,481.93	91.365	3,481.93	94.9154	3,481.93	93.4007	3,481.93	94.7561	3,481.93	96.3446	3,481.93	92.9411	3,481.93	96.6734	3,481.93	93.089	3,481.93	95.1673	3,481.93	89.271	3,481.93	93.1651	3,481.93	85.1575	3,481.93	89.7505	3,481.93	88.062	3,481.93	89.6375	3,481.93	86.1008	3,481.93	87.4234	3,481.93	84.5613	3,481.93	85.2092	3,481.93	82.938	3,481.93	86.2853	3,481.93	83.6119	3,481.93	85.6931	3,481.93	82.913	3,481.93	79.8696	3,481.93	80.7269	3,481.93	76.0296	3,481.93	58.4562	3,481.93	79.0853	3,481.93	74.1323
3,604.98	98.6253	3,604.98	97.0217	3,604.98	96.7948	3,604.98	93.915	3,604.98	95.0455	3,604.98	94.993	3,604.98	92.5002	3,604.98	95.1897	3,604.98	93.3685	3,604.98	94.0947	3,604.98	97.0238	3,604.98	94.4137	3,604.98	97.0103	3,604.98	91.7682	3,604.98	95.1328	3,604.98	88.1559	3,604.98	93.481	3,604.98	89.5408	3,604.98	88.664	3,604.98	86.019	3,604.98	86.9129	3,604.98	86.5035	3,604.98	84.9489	3,604.98	84.2399	3,604.98	84.5729	3,604.98	81.3555	3,604.98	84.3082	3,604.98	83.6876	3,604.98	84.8457	3,604.98	83.6292	3,604.98	76.6586	3,604.98	81.2772	3,604.98	78.4745	3,604.98	65.9661	3,604.98	78.6597	3,604.98	68.813
3,732.42	98.9664	3,732.42	97.5941	3,732.42	96.9104	3,732.42	94.771	3,732.42	94.2187	3,732.42	95.0793	3,732.42	93.3722	3,732.42	94.7819	3,732.42	93.5882	3,732.42	95.9391	3,732.42	95.8201	3,732.42	94.822	3,732.42	96.8065	3,732.42	92.6293	3,732.42	95.1523	3,732.42	91.1001	3,732.42	91.1543	3,732.42	87.5998	3,732.42	84.7827	3,732.42	85.9262	3,732.42	79.0782	3,732.42	85.9629	3,732.42	78.7708	3,732.42	84.723	3,732.42	79.4302	3,732.42	83.0268	3,732.42	84.4067	3,732.42	82.1972	3,732.42	81.0541	3,732.42	83.4565	3,732.42	79.1935	3,732.42	81.6051	3,732.42	82.433	3,732.42	71.5892	3,732.42	81.0229	3,732.42	68.1771
3,864.26	99.7186	3,864.26	97.9403	3,864.26	97.5211	3,864.26	95.5815	3,864.26	94.7072	3,864.26	94.7623	3,864.26	94.8278	3,864.26	95.9828	3,864.26	93.9117	3,864.26	95.9927	3,864.26	95.2227	3,864.26	94.5297	3,864.26	95.9126	3,864.26	93.8826	3,864.26	93.8717	3,864.26	88.8625	3,864.26	91.7715	3,864.26	86.4239	3,864.26	86.5256	3,864.26	85.8483	3,864.26	80.8005	3,864.26	85.707	3,864.26	82.0142	3,864.26	83.8975	3,864.26	83.2014	3,864.26	82.8153	3,864.26	84.0605	3,864.26	83.5726	3,864.26	83.0297	3,864.26	82.6587	3,864.26	74.9883	3,864.26	80.6921	3,864.26	82.9485	3,864.26	70.2853	3,864.26	84.208	3,864.26	77.3376
4,000.49	100.085	4,000.49	98.2439	4,000.49	97.9104	4,000.49	94.9263	4,000.49	94.6766	4,000.49	95.0356	4,000.49	95.1928	4,000.49	97.1299	4,000.49	93.5833	4,000.49	96.1797	4,000.49	94.566	4,000.49	95.1174	4,000.49	94.9861	4,000.49	91.9382	4,000.49	93.0799	4,000.49	90.3122	4,000.49	90.1085	4,000.49	89.8162	4,000.49	87.8405	4,000.49	86.5622	4,000.49	86.4569	4,000.49	85.9457	4,000.49	84.0522	4,000.49	84.1935	4,000.49	82.4107	4,000.49	80.8225	4,000.49	81.8484	4,000.49	82.4994	4,000.49	81.9156	4,000.49	84.1817	4,000.49	69.6475	4,000.49	80.2152	4,000.49	81.5837	4,000.49	69.2758	4,000.49	83.3294	4,000.49	74.6053
4,141.11	100.572	4,141.11	98.5828	4,141.11	98.3006	4,141.11	94.0532	4,141.11	93.8519	4,141.11	96.4333	4,141.11	95.5559	4,141.11	97.7563	4,141.11	95.8656	4,141.11	95.8868	4,141.11	94.5739	4,141.11	94.1458	4,141.11	95.7345	4,141.11	92.1615	4,141.11	93.9287	4,141.11	90.8822	4,141.11	86.4658	4,141.11	84.8582	4,141.11	84.9635	4,141.11	85.9261	4,141.11	83.0154	4,141.11	84.7123	4,141.11	83.5308	4,141.11	84.2344	4,141.11	80.9306	4,141.11	82.3118	4,141.11	74.7169	4,141.11	81.1375	4,141.11	77.2234	4,141.11	84.2124	4,141.11	71.7565	4,141.11	81.9446	4,141.11	76.5499	4,141.11	76.596	4,141.11	81.1162	4,141.11	68.3176
4,287.6	100.921	4,287.6	98.1997	4,287.6	98.9368	4,287.6	94.0144	4,287.6	93.7591	4,287.6	98.1772	4,287.6	96.2654	4,287.6	98.0062	4,287.6	96.0026	4,287.6	94.9399	4,287.6	94.4199	4,287.6	94.063	4,287.6	96.8065	4,287.6	92.8748	4,287.6	94.7854	4,287.6	89.1075	4,287.6	86.1543	4,287.6	90.5146	4,287.6	75.5271	4,287.6	88.5172	4,287.6	81.6161	4,287.6	85.9942	4,287.6	79.9353	4,287.6	85.2598	4,287.6	83.0201	4,287.6	81.3576	4,287.6	82.5445	4,287.6	83.4845	4,287.6	71.855	4,287.6	82.4587	4,287.6	75.1959	4,287.6	82.4074	4,287.6	75.0581	4,287.6	78.3319	4,287.6	73.9896	4,287.6	69.1303
4,438.48	101.552	4,438.48	96.4812	4,438.48	100.442	4,438.48	95.9116	4,438.48	95.3302	4,438.48	98.7323	4,438.48	96.5549	4,438.48	97.285	4,438.48	95.2485	4,438.48	95.0399	4,438.48	94.7557	4,438.48	94.4018	4,438.48	96.0685	4,438.48	92.6459	4,438.48	92.8761	4,438.48	92.4836	4,438.48	86.5445	4,438.48	87.9696	4,438.48	85.3409	4,438.48	86.0404	4,438.48	82.1765	4,438.48	86.3866	4,438.48	77.9994	4,438.48	85.0126	4,438.48	84.6687	4,438.48	83.0398	4,438.48	85.8932	4,438.48	82.1581	4,438.48	75.5247	4,438.48	83.4046	4,438.48	71.6368	4,438.48	81.775	4,438.48	79.0118	4,438.48	78.9309	4,438.48	80.2722	4,438.48	75.532
4,595.21	100.18	4,595.21	95.2885	4,595.21	100.261	4,595.21	97.5594	4,595.21	95.971	4,595.21	98.9888	4,595.21	95.2366	4,595.21	96.8984	4,595.21	96.1425	4,595.21	95.3489	4,595.21	93.0492	4,595.21	94.852	4,595.21	92.8142	4,595.21	93.9147	4,595.21	91.4899	4,595.21	90.1823	4,595.21	88.8959	4,595.21	89.2302	4,595.21	86.7384	4,595.21	87.723	4,595.21	82.915	4,595.21	84.5359	4,595.21	77.5232	4,595.21	84.5348	4,595.21	83.055	4,595.21	81.5968	4,595.21	86.1735	4,595.21	82.645	4,595.21	63.1397	4,595.21	82.4299	4,595.21	75.0933	4,595.21	81.1441	4,595.21	81.2981	4,595.21	76.3257	4,595.21	83.5707	4,595.21	73.2096
4,756.35	99.5093	4,756.35	95.6336	4,756.35	99.6239	4,756.35	98.2563	4,756.35	96.4032	4,756.35	98.9264	4,756.35	97.4018	4,756.35	97.4222	4,756.35	96.5361	4,756.35	95.5951	4,756.35	90.0385	4,756.35	94.9362	4,756.35	89.0686	4,756.35	93.4186	4,756.35	90.1637	4,756.35	92.3113	4,756.35	92.117	4,756.35	89.5196	4,756.35	88.8122	4,756.35	86.2198	4,756.35	82.6209	4,756.35	84.8302	4,756.35	74.1131	4,756.35	83.1868	4,756.35	82.0155	4,756.35	80.2556	4,756.35	84.9903	4,756.35	83.4621	4,756.35	74.5614	4,756.35	84.5753	4,756.35	76.9911	4,756.35	80.0689	4,756.35	81.0067	4,756.35	72.5448	4,756.35	82.4021	4,756.35	70.271
4,924.8	99.3441	4,924.8	96.0362	4,924.8	99.3444	4,924.8	98.4223	4,924.8	97.6314	4,924.8	98.2753	4,924.8	99.3884	4,924.8	97.2568	4,924.8	95.7896	4,924.8	95.6774	4,924.8	89.7658	4,924.8	95.4327	4,924.8	90.6807	4,924.8	93.3139	4,924.8	94.142	4,924.8	89.5704	4,924.8	92.9106	4,924.8	87.7076	4,924.8	89.0177	4,924.8	87.464	4,924.8	84.1628	4,924.8	84.0504	4,924.8	79.8814	4,924.8	83.8909	4,924.8	77.1654	4,924.8	79.2757	4,924.8	82.9801	4,924.8	82.0781	4,924.8	74.5561	4,924.8	84.7324	4,924.8	70.3045	4,924.8	80.8575	4,924.8	74.6989	4,924.8	77.7142	4,924.8	79.3758	4,924.8	61.0068
5,097.66	98.5112	5,097.66	96.0241	5,097.66	99.2705	5,097.66	98.9329	5,097.66	96.3437	5,097.66	98.0453	5,097.66	98.1124	5,097.66	97.4281	5,097.66	97.4849	5,097.66	96.0954	5,097.66	94.1717	5,097.66	95.1045	5,097.66	92.3665	5,097.66	92.0607	5,097.66	95.8866	5,097.66	90.9094	5,097.66	91.0922	5,097.66	87.6335	5,097.66	88.1933	5,097.66	86.5726	5,097.66	80.7531	5,097.66	83.398	5,097.66	79.0444	5,097.66	83.0906	5,097.66	74.905	5,097.66	80.265	5,097.66	84.067	5,097.66	81.1562	5,097.66	69.5138	5,097.66	83.9574	5,097.66	67.2245	5,097.66	79.6948	5,097.66	76.8825	5,097.66	77.992	5,097.66	79.4895	5,097.66	70.3988
5,277.83	98.4215	5,277.83	96.4027	5,277.83	98.7568	5,277.83	98.426	5,277.83	95.0514	5,277.83	97.7106	5,277.83	97.9477	5,277.83	97.208	5,277.83	99.3203	5,277.83	96.4238	5,277.83	95.7567	5,277.83	94.8224	5,277.83	94.4228	5,277.83	92.0301	5,277.83	95.5243	5,277.83	88.8848	5,277.83	89.7011	5,277.83	85.714	5,277.83	88.7203	5,277.83	86.5388	5,277.83	83.4108	5,277.83	83.0937	5,277.83	69.1238	5,277.83	81.4315	5,277.83	78.6291	5,277.83	80.2277	5,277.83	80.4382	5,277.83	81.5194	5,277.83	71.2144	5,277.83	81.6026	5,277.83	72.5771	5,277.83	80.6592	5,277.83	73.5653	5,277.83	80.8078	5,277.83	73.9593	5,277.83	65.3668
5,463.87	98.0906	5,463.87	96.5061	5,463.87	99.1365	5,463.87	98.291	5,463.87	96.6316	5,463.87	97.5119	5,463.87	98.8707	5,463.87	97.7755	5,463.87	98.9257	5,463.87	96.087	5,463.87	95.4001	5,463.87	93.9945	5,463.87	95.2656	5,463.87	91.0713	5,463.87	94.8157	5,463.87	90.592	5,463.87	89.9608	5,463.87	87.1954	5,463.87	86.2822	5,463.87	86.0249	5,463.87	78.7199	5,463.87	83.1518	5,463.87	80.7485	5,463.87	81.5576	5,463.87	82.4063	5,463.87	80.5561	5,463.87	66.4599	5,463.87	79.7962	5,463.87	73.3357	5,463.87	82.4659	5,463.87	73.0853	5,463.87	79.9646	5,463.87	73.0427	5,463.87	79.3604	5,463.87	68.9609	5,463.87	55.976
5,657.23	97.566	5,657.23	96.5272	5,657.23	98.865	5,657.23	98.023	5,657.23	96.3673	5,657.23	97.982	5,657.23	97.2279	5,657.23	97.4741	5,657.23	97.0405	5,657.23	95.6353	5,657.23	94.1227	5,657.23	94.2472	5,657.23	94.2897	5,657.23	91.5842	5,657.23	93.5729	5,657.23	87.6418	5,657.23	89.7278	5,657.23	85.8941	5,657.23	82.134	5,657.23	84.785	5,657.23	68.2986	5,657.23	83.3499	5,657.23	79.3629	5,657.23	80.5	5,657.23	79.1395	5,657.23	78.0719	5,657.23	76.0341	5,657.23	80.4619	5,657.23	76.027	5,657.23	79.9506	5,657.23	71.1199	5,657.23	82.1849	5,657.23	64.7614	5,657.23	75.7421	5,657.23	66.8599	5,657.23	67.8825
5,856.45	98.0807	5,856.45	97.6671	5,856.45	98.301	5,856.45	97.7117	5,856.45	95.972	5,856.45	98.1463	5,856.45	95.4545	5,856.45	97.2689	5,856.45	96.0058	5,856.45	95.5034	5,856.45	92.7656	5,856.45	93.788	5,856.45	92.8108	5,856.45	91.3053	5,856.45	91.7142	5,856.45	89.1326	5,856.45	90.2311	5,856.45	85.9369	5,856.45	78.347	5,856.45	84.6037	5,856.45	76.5044	5,856.45	83.6282	5,856.45	71.7093	5,856.45	79.1373	5,856.45	74.0149	5,856.45	75.8102	5,856.45	72.9735	5,856.45	79.5356	5,856.45	67.5809	5,856.45	77.5092	5,856.45	68.0447	5,856.45	81.5306	5,856.45	69.7898	5,856.45	76.2594	5,856.45	70.6775	5,856.45	66.6969
6,062.99	98.4039	6,062.99	97.3838	6,062.99	99.0815	6,062.99	98.5803	6,062.99	97.3577	6,062.99	98.2331	6,062.99	97.1409	6,062.99	96.3156	6,062.99	96.0222	6,062.99	95.2381	6,062.99	92.233	6,062.99	93.4471	6,062.99	90.8087	6,062.99	91.3412	6,062.99	91.4256	6,062.99	87.0693	6,062.99	90.8942	6,062.99	86.974	6,062.99	81.3886	6,062.99	83.4898	6,062.99	77.3934	6,062.99	83.0554	6,062.99	73.0036	6,062.99	80.4321	6,062.99	74.0322	6,062.99	77.4841	6,062.99	70.6088	6,062.99	79.7671	6,062.99	74.2558	6,062.99	78.8916	6,062.99	66.4571	6,062.99	80.2797	6,062.99	69.4125	6,062.99	75.0268	6,062.99	66.9991	6,062.99	64.9147
6,276.86	98.2378	6,276.86	98.0317	6,276.86	98.8519	6,276.86	98.6813	6,276.86	97.525	6,276.86	97.8111	6,276.86	97.2886	6,276.86	96.0684	6,276.86	97.2097	6,276.86	94.5491	6,276.86	92.7679	6,276.86	93.4228	6,276.86	88.42	6,276.86	92.0674	6,276.86	90.5526	6,276.86	87.6761	6,276.86	90.9638	6,276.86	85.2601	6,276.86	84.2167	6,276.86	83.0342	6,276.86	81.9168	6,276.86	82.8222	6,276.86	77.9313	6,276.86	79.701	6,276.86	60.7129	6,276.86	77.7046	6,276.86	70.4601	6,276.86	78.7899	6,276.86	73.3534	6,276.86	78.9437	6,276.86	68.3366	6,276.86	80.9232	6,276.86	70.47	6,276.86	75.0241	6,276.86	69.3	6,276.86	67.0867
6,498.05	98.8199	6,498.05	98.2412	6,498.05	99.5577	6,498.05	98.9265	6,498.05	97.1642	6,498.05	97.27	6,498.05	96.9004	6,498.05	95.4509	6,498.05	96.7723	6,498.05	94.1357	6,498.05	93.2872	6,498.05	93.3186	6,498.05	88.0832	6,498.05	90.8255	6,498.05	91.3949	6,498.05	87.774	6,498.05	90.7051	6,498.05	85.2323	6,498.05	84.2962	6,498.05	81.6555	6,498.05	82.7141	6,498.05	80.9342	6,498.05	78.9861	6,498.05	79.2524	6,498.05	67.0079	6,498.05	76.5627	6,498.05	64.9138	6,498.05	76.315	6,498.05	72.105	6,498.05	78.0766	6,498.05	49.5392	6,498.05	78.5804	6,498.05	69.9293	6,498.05	76.2615	6,498.05	60.7429	6,498.05	68.7406
6,726.56	98.9349	6,726.56	98.8361	6,726.56	99.4967	6,726.56	98.6979	6,726.56	98.1354	6,726.56	96.8031	6,726.56	96.8965	6,726.56	95.4622	6,726.56	95.8809	6,726.56	93.5763	6,726.56	93.2003	6,726.56	92.3286	6,726.56	89.4171	6,726.56	89.7198	6,726.56	90.9085	6,726.56	86.3015	6,726.56	84.4041	6,726.56	83.9585	6,726.56	84.9403	6,726.56	81.4584	6,726.56	83.2491	6,726.56	79.3617	6,726.56	79.2896	6,726.56	77.6286	6,726.56	73.0289	6,726.56	75.2815	6,726.56	67.5607	6,726.56	75.6858	6,726.56	75.8592	6,726.56	79.7592	6,726.56	66.3161	6,726.56	75.3925	6,726.56	69.2066	6,726.56	77.4343	6,726.56	49.2187	6,726.56	64.777
6,963.87	98.9742	6,963.87	98.8645	6,963.87	99.4885	6,963.87	98.5218	6,963.87	98.6433	6,963.87	96.7449	6,963.87	96.9166	6,963.87	95.1709	6,963.87	95.7979	6,963.87	93.4216	6,963.87	93.1437	6,963.87	91.5835	6,963.87	90.9976	6,963.87	88.7572	6,963.87	88.8362	6,963.87	85.837	6,963.87	81.3443	6,963.87	82.3455	6,963.87	84.6037	6,963.87	80.3818	6,963.87	79.4576	6,963.87	78.3695	6,963.87	78.5159	6,963.87	76.3105	6,963.87	75.1265	6,963.87	73.6471	6,963.87	66.2873	6,963.87	76.4017	6,963.87	78.4183	6,963.87	79.3962	6,963.87	67.3467	6,963.87	74.3036	6,963.87	71.2322	6,963.87	73.1609	6,963.87	60.559	6,963.87	65.7104
7,209.96	99.1295	7,209.96	98.878	7,209.96	99.2404	7,209.96	98.378	7,209.96	98.3732	7,209.96	96.7724	7,209.96	97.126	7,209.96	95.2761	7,209.96	95.5526	7,209.96	92.6557	7,209.96	91.6477	7,209.96	90.6114	7,209.96	91.0694	7,209.96	87.1549	7,209.96	85.403	7,209.96	84.5138	7,209.96	85.9234	7,209.96	82.1373	7,209.96	83.8932	7,209.96	79.7851	7,209.96	69.6614	7,209.96	77.1225	7,209.96	77.7025	7,209.96	73.9918	7,209.96	76.58	7,209.96	73.4205	7,209.96	70.3409	7,209.96	76.9315	7,209.96	74.6902	7,209.96	78.5014	7,209.96	62.081	7,209.96	73.8968	7,209.96	71.5687	7,209.96	74.0143	7,209.96	60.5641	7,209.96	66.0754
7,464.84	99.1247	7,464.84	98.6939	7,464.84	99.239	7,464.84	98.1631	7,464.84	98.5053	7,464.84	96.799	7,464.84	97.2441	7,464.84	95.3637	7,464.84	95.2145	7,464.84	92.3014	7,464.84	91.3858	7,464.84	90.1027	7,464.84	90.3931	7,464.84	86.959	7,464.84	82.8137	7,464.84	83.4446	7,464.84	89.3301	7,464.84	82.0897	7,464.84	81.0023	7,464.84	79.4089	7,464.84	62.691	7,464.84	77.9682	7,464.84	74.9798	7,464.84	73.3409	7,464.84	76.8988	7,464.84	72.7495	7,464.84	57.9252	7,464.84	76.1863	7,464.84	69.22	7,464.84	77.8896	7,464.84	62.2012	7,464.84	75.7343	7,464.84	66.0127	7,464.84	73.7383	7,464.84	45.8929	7,464.84	64.5635
7,727.05	99.1675	7,727.05	99.1218	7,727.05	99.0588	7,727.05	98.5344	7,727.05	98.1058	7,727.05	97.0391	7,727.05	97.2111	7,727.05	95.1656	7,727.05	95.5429	7,727.05	92.0471	7,727.05	90.8011	7,727.05	90.1462	7,727.05	88.629	7,727.05	87.2931	7,727.05	86.3808	7,727.05	83.0408	7,727.05	90.9226	7,727.05	80.9594	7,727.05	82.9322	7,727.05	78.9584	7,727.05	69.0927	7,727.05	77.23	7,727.05	72.2455	7,727.05	73.711	7,727.05	75.3815	7,727.05	73.8563	7,727.05	71.5689	7,727.05	73.2414	7,727.05	70.4824	7,727.05	77.2142	7,727.05	67.8774	7,727.05	73.9289	7,727.05	47.7367	7,727.05	70.5233	7,727.05	58.8034	7,727.05	61.7585
7,999.51	99.616	7,999.51	99.5688	7,999.51	99.3158	7,999.51	98.5779	7,999.51	98.0889	7,999.51	97.0048	7,999.51	97.3927	7,999.51	95.2245	7,999.51	94.819	7,999.51	92.1703	7,999.51	91.1234	7,999.51	90.2233	7,999.51	87.7951	7,999.51	86.8796	7,999.51	89.2776	7,999.51	82.0201	7,999.51	90.1463	7,999.51	80.0009	7,999.51	82.3601	7,999.51	78.0026	7,999.51	70.1307	7,999.51	76.8719	7,999.51	68.1596	7,999.51	72.0804	7,999.51	71.013	7,999.51	74.665	7,999.51	67.7205	7,999.51	72.5612	7,999.51	70.3956	7,999.51	75.965	7,999.51	67.542	7,999.51	75.3678	7,999.51	53.6174	7,999.51	72.7456	7,999.51	61.2142	7,999.51	64.7645
8,282.23	100.16	8,282.23	100.038	8,282.23	99.5219	8,282.23	98.7435	8,282.23	98.0368	8,282.23	97.0165	8,282.23	96.7547	8,282.23	94.7007	8,282.23	94.4281	8,282.23	91.9622	8,282.23	90.4859	8,282.23	89.7916	8,282.23	88.0525	8,282.23	86.0494	8,282.23	89.98	8,282.23	82.8489	8,282.23	88.7668	8,282.23	80.0363	8,282.23	81.7882	8,282.23	77.2002	8,282.23	65.2786	8,282.23	77.0117	8,282.23	66.2957	8,282.23	74.4267	8,282.23	72.591	8,282.23	73.9871	8,282.23	62.9536	8,282.23	72.322	8,282.23	66.3102	8,282.23	75.3147	8,282.23	65.2959	8,282.23	73.2415	8,282.23	64.6742	8,282.23	67.2531	8,282.23	59.2209	8,282.23	62.2621
8,573.73	100.441	8,573.73	100.019	8,573.73	99.9483	8,573.73	98.5202	8,573.73	98.4274	8,573.73	96.877	8,573.73	96.9289	8,573.73	93.9465	8,573.73	93.7609	8,573.73	91.4806	8,573.73	91.002	8,573.73	88.5243	8,573.73	88.6039	8,573.73	85.6967	8,573.73	88.1112	8,573.73	81.9183	8,573.73	85.8011	8,573.73	79.6193	8,573.73	79.0762	8,573.73	77.1835	8,573.73	73.2117	8,573.73	76.6456	8,573.73	70.3144	8,573.73	74.2805	8,573.73	72.1843	8,573.73	72.8691	8,573.73	70.7853	8,573.73	74.2545	8,573.73	60.7452	8,573.73	74.4203	8,573.73	62.0015	8,573.73	72.7344	8,573.73	68.0846	8,573.73	69.1698	8,573.73	54.8075	8,573.73	60.094
8,876.95	100.289	8,876.95	99.7525	8,876.95	99.9403	8,876.95	98.3408	8,876.95	98.3964	8,876.95	96.5957	8,876.95	96.1287	8,876.95	93.5225	8,876.95	93.5331	8,876.95	90.9806	8,876.95	90.5976	8,876.95	87.9829	8,876.95	87.8102	8,876.95	85.5643	8,876.95	83.2732	8,876.95	81.612	8,876.95	77.736	8,876.95	78.8769	8,876.95	76.6651	8,876.95	76.3927	8,876.95	66.9139	8,876.95	75.4154	8,876.95	71.1326	8,876.95	74.517	8,876.95	68.3058	8,876.95	69.7123	8,876.95	72.396	8,876.95	71.6634	8,876.95	70.0014	8,876.95	73.1541	8,876.95	58.0886	8,876.95	72.4121	8,876.95	67.1318	8,876.95	68.9594	8,876.95	50.9099	8,876.95	64.3343
9,188.96	100.044	9,188.96	99.4046	9,188.96	99.5719	9,188.96	98.2452	9,188.96	98.1674	9,188.96	96.3699	9,188.96	95.6736	9,188.96	93.2276	9,188.96	93.2372	9,188.96	90.3526	9,188.96	90.3735	9,188.96	87.5211	9,188.96	87.4681	9,188.96	84.2395	9,188.96	75.6769	9,188.96	81.2079	9,188.96	81.7623	9,188.96	77.3115	9,188.96	78.4552	9,188.96	75.9039	9,188.96	70.8732	9,188.96	73.3268	9,188.96	69.7422	9,188.96	72.4651	9,188.96	61.9364	9,188.96	70.8671	9,188.96	66.9261	9,188.96	70.8901	9,188.96	65.8028	9,188.96	71.7999	9,188.96	56.5865	9,188.96	69.9091	9,188.96	65.3628	9,188.96	70.8884	9,188.96	53.3384	9,188.96	65.4833
9,514.16	99.9179	9,514.16	99.4842	9,514.16	99.2877	9,514.16	97.9473	9,514.16	98.0772	9,514.16	96.1062	9,514.16	95.5695	9,514.16	93.53	9,514.16	93.1627	9,514.16	89.8557	9,514.16	89.8451	9,514.16	86.6891	9,514.16	86.0416	9,514.16	83.3791	9,514.16	82.9597	9,514.16	81.3017	9,514.16	84.4811	9,514.16	77.9293	9,514.16	81.2388	9,514.16	75.892	9,514.16	66.132	9,514.16	74.4585	9,514.16	70.1934	9,514.16	72.7918	9,514.16	61.9827	9,514.16	69.1107	9,514.16	56.3111	9,514.16	72.1363	9,514.16	66.9379	9,514.16	71.5463	9,514.16	37.3611	9,514.16	71.1283	9,514.16	65.5508	9,514.16	70.6785	9,514.16	56.5934	9,514.16	63.9175
9,849.61	100.078	9,849.61	99.675	9,849.61	99.2411	9,849.61	97.5654	9,849.61	97.8312	9,849.61	95.7582	9,849.61	95.6279	9,849.61	92.8332	9,849.61	93.152	9,849.61	89.4185	9,849.61	90.1177	9,849.61	86.2877	9,849.61	85.6988	9,849.61	82.881	9,849.61	85.0345	9,849.61	80.4677	9,849.61	84.6261	9,849.61	77.2535	9,849.61	80.107	9,849.61	74.7879	9,849.61	63.4295	9,849.61	74.0757	9,849.61	70.7551	9,849.61	72.2087	9,849.61	60.034	9,849.61	68.8814	9,849.61	64.2678	9,849.61	72.3309	9,849.61	66.4776	9,849.61	68.9317	9,849.61	53.777	9,849.61	68.8708	9,849.61	65.8707	9,849.61	68.8709	9,849.61	59.0324	9,849.61	63.0345
10,196.8	100.394	10,196.8	99.774	10,196.8	99.3276	10,196.8	97.4044	10,196.8	97.5105	10,196.8	94.8653	10,196.8	95.5226	10,196.8	91.5955	10,196.8	92.7393	10,196.8	88.874	10,196.8	90.6679	10,196.8	86.3409	10,196.8	85.7302	10,196.8	81.9573	10,196.8	85.663	10,196.8	79.6063	10,196.8	83.4731	10,196.8	76.3496	10,196.8	76.8843	10,196.8	74.2148	10,196.8	63.693	10,196.8	72.3366	10,196.8	71.4889	10,196.8	70.7582	10,196.8	58.4654	10,196.8	70.9961	10,196.8	64.298	10,196.8	72.0629	10,196.8	67.0603	10,196.8	67.6629	10,196.8	37.0097	10,196.8	68.1312	10,196.8	64.4444	10,196.8	70.5069	10,196.8	60.6518	10,196.8	64.7093
10,555.7	100.561	10,555.7	99.7955	10,555.7	99.5703	10,555.7	97.1824	10,555.7	97.6802	10,555.7	94.021	10,555.7	95.7549	10,555.7	90.974	10,555.7	92.3047	10,555.7	88.1406	10,555.7	90.5116	10,555.7	85.7221	10,555.7	83.8468	10,555.7	81.7166	10,555.7	86.9534	10,555.7	79.3576	10,555.7	81.6964	10,555.7	76.8629	10,555.7	74.7786	10,555.7	74.9694	10,555.7	69.895	10,555.7	72.5849	10,555.7	69.706	10,555.7	70.3592	10,555.7	57.6401	10,555.7	71.5737	10,555.7	62.0559	10,555.7	72.1581	10,555.7	69.544	10,555.7	67.249	10,555.7	58.247	10,555.7	69.2258	10,555.7	66.9809	10,555.7	68.8958	10,555.7	58.414	10,555.7	64.794
10,927.7	100.59	10,927.7	99.4998	10,927.7	99.7365	10,927.7	96.7801	10,927.7	97.8492	10,927.7	93.8243	10,927.7	95.6196	10,927.7	90.5319	10,927.7	91.4772	10,927.7	87.1621	10,927.7	89.99	10,927.7	85.4359	10,927.7	81.7734	10,927.7	81.652	10,927.7	87.8723	10,927.7	80.1795	10,927.7	79.4115	10,927.7	77.095	10,927.7	79.7955	10,927.7	74.4755	10,927.7	72.0967	10,927.7	72.1883	10,927.7	72.9703	10,927.7	71.8487	10,927.7	64.0508	10,927.7	70.261	10,927.7	62.3513	10,927.7	71.9457	10,927.7	67.5015	10,927.7	68.601	10,927.7	53.165	10,927.7	69.7409	10,927.7	56.8869	10,927.7	68.2022	10,927.7	51.3555	10,927.7	63.8411
11,313	100.448	11,313	99.2279	11,313	99.6402	11,313	96.7933	11,313	97.6591	11,313	93.6144	11,313	95.1805	11,313	90.1563	11,313	90.761	11,313	87.0194	11,313	88.8615	11,313	85.2982	11,313	83.2932	11,313	82.6471	11,313	87.062	11,313	80.0938	11,313	77.489	11,313	77.2583	11,313	79.8902	11,313	74.2302	11,313	70.7381	11,313	72.3335	11,313	73.685	11,313	72.7358	11,313	62.7337	11,313	68.513	11,313	62.6537	11,313	71.7994	11,313	67.2286	11,313	69.7744	11,313	53.751	11,313	67.3366	11,313	66.3445	11,313	66.3283	11,313	61.7056	11,313	58.0785
11,712.9	100.29	11,712.9	99.1573	11,712.9	99.2503	11,712.9	96.5939	11,712.9	97.1041	11,712.9	93.3731	11,712.9	94.4226	11,712.9	89.7398	11,712.9	90.7007	11,712.9	86.2902	11,712.9	87.9531	11,712.9	86.173	11,712.9	86.8432	11,712.9	82.8906	11,712.9	85.0652	11,712.9	80.1135	11,712.9	75.2862	11,712.9	77.4745	11,712.9	77.3317	11,712.9	73.3241	11,712.9	71.0264	11,712.9	72.2958	11,712.9	76.5272	11,712.9	70.7814	11,712.9	48.6788	11,712.9	69.9212	11,712.9	64.6149	11,712.9	70.5696	11,712.9	69.1699	11,712.9	69.4553	11,712.9	61.0499	11,712.9	67.2779	11,712.9	64.3711	11,712.9	63.9969	11,712.9	61.1525	11,712.9	57.2816
12,126	100.301	12,126	98.9565	12,126	98.9274	12,126	96.0942	12,126	96.4652	12,126	93.0524	12,126	93.2085	12,126	88.3255	12,126	90.9988	12,126	87.3349	12,126	88.5349	12,126	86.1987	12,126	87.5711	12,126	83.0114	12,126	84.843	12,126	79.484	12,126	76.6832	12,126	76.5862	12,126	78.1766	12,126	72.3389	12,126	73.6801	12,126	71.8143	12,126	77.9119	12,126	70.3683	12,126	62.9098	12,126	69.2727	12,126	57.7732	12,126	69.9124	12,126	65.2735	12,126	69.3178	12,126	56.4049	12,126	68.4751	12,126	59.5258	12,126	61.994	12,126	58.1924	12,126	60.8104
12,553.7	100.282	12,553.7	98.4348	12,553.7	99.012	12,553.7	96.0232	12,553.7	96.3917	12,553.7	92.1858	12,553.7	93.2053	12,553.7	89.0861	12,553.7	91.633	12,553.7	87.7623	12,553.7	87.7531	12,553.7	86.5578	12,553.7	87.986	12,553.7	83.1386	12,553.7	85.1524	12,553.7	78.8655	12,553.7	76.3723	12,553.7	77.1591	12,553.7	79.6556	12,553.7	72.5832	12,553.7	74.8955	12,553.7	71.4598	12,553.7	73.98	12,553.7	71.9495	12,553.7	58.4821	12,553.7	68.411	12,553.7	57.3135	12,553.7	70.0151	12,553.7	60.2448	12,553.7	69.7532	12,553.7	51.2822	12,553.7	66.8594	12,553.7	54.3795	12,553.7	62.1735	12,553.7	55.2317	12,553.7	61.6397
12,996.1	100.025	12,996.1	98.0805	12,996.1	99.1118	12,996.1	95.8565	12,996.1	96.157	12,996.1	91.7787	12,996.1	92.642	12,996.1	89.5565	12,996.1	90.4525	12,996.1	88.6342	12,996.1	88.8024	12,996.1	86.6813	12,996.1	87.6612	12,996.1	82.6939	12,996.1	83.6901	12,996.1	79.4838	12,996.1	76.1654	12,996.1	77.1697	12,996.1	77.5204	12,996.1	73.0508	12,996.1	73.3683	12,996.1	71.7554	12,996.1	72.498	12,996.1	70.9587	12,996.1	53.1624	12,996.1	70.3816	12,996.1	61.319	12,996.1	69.3172	12,996.1	64.4312	12,996.1	70.8426	12,996.1	52.8713	12,996.1	67.7304	12,996.1	66.5989	12,996.1	65.3343	12,996.1	60.1199	12,996.1	57.6042
13,454.6	99.6721	13,454.6	98.1752	13,454.6	98.777	13,454.6	95.6316	13,454.6	95.7251	13,454.6	91.6068	13,454.6	92.867	13,454.6	89.6587	13,454.6	91.3561	13,454.6	88.6046	13,454.6	88.6937	13,454.6	86.6682	13,454.6	88.3307	13,454.6	82.5839	13,454.6	83.1181	13,454.6	79.6955	13,454.6	75.5072	13,454.6	76.8208	13,454.6	77.0147	13,454.6	72.4289	13,454.6	75.113	13,454.6	72.0606	13,454.6	76.6267	13,454.6	69.8378	13,454.6	68.4173	13,454.6	69.679	13,454.6	68.542	13,454.6	69.1396	13,454.6	62.6523	13,454.6	70.2504	13,454.6	60.0369	13,454.6	67.9224	13,454.6	66.428	13,454.6	66.0843	13,454.6	60.4379	13,454.6	59.2489
13,929.2	99.3134	13,929.2	98.1921	13,929.2	98.3213	13,929.2	95.1511	13,929.2	95.438	13,929.2	91.8948	13,929.2	92.4504	13,929.2	89.8756	13,929.2	89.9293	13,929.2	88.6098	13,929.2	89.0189	13,929.2	87.1452	13,929.2	88.9716	13,929.2	82.6201	13,929.2	83.5647	13,929.2	79.7248	13,929.2	78.0555	13,929.2	77.4225	13,929.2	77.2537	13,929.2	72.2936	13,929.2	74.2213	13,929.2	71.7105	13,929.2	77.5818	13,929.2	70.3433	13,929.2	68.7494	13,929.2	69.4105	13,929.2	65.7108	13,929.2	67.6269	13,929.2	49.8091	13,929.2	71.0299	13,929.2	64.3923	13,929.2	66.5861	13,929.2	67.535	13,929.2	57.6268	13,929.2	59.8156	13,929.2	59.0637
14,419.9	98.8886	14,419.9	97.8319	14,419.9	97.6311	14,419.9	95.0174	14,419.9	95.418	14,419.9	92.6463	14,419.9	92.9773	14,419.9	90.6196	14,419.9	91.6293	14,419.9	89.4211	14,419.9	91.2817	14,419.9	87.1664	14,419.9	89.0154	14,419.9	82.8552	14,419.9	81.7058	14,419.9	78.6493	14,419.9	79.1923	14,419.9	76.44	14,419.9	76.8194	14,419.9	72.0236	14,419.9	77.8585	14,419.9	71.491	14,419.9	79.8537	14,419.9	71.3288	14,419.9	61.9647	14,419.9	69.2464	14,419.9	63.7478	14,419.9	68.8113	14,419.9	62.6233	14,419.9	69.5725	14,419.9	64.1711	14,419.9	66.4438	14,419.9	59.9116	14,419.9	62.8392	14,419.9	63.5165	14,419.9	59.6051
14,928.2	98.6786	14,928.2	97.5315	14,928.2	97.6745	14,928.2	95.6307	14,928.2	95.6171	14,928.2	93.424	14,928.2	93.5015	14,928.2	91.6055	14,928.2	92.1428	14,928.2	89.6272	14,928.2	90.6261	14,928.2	87.3398	14,928.2	87.7878	14,928.2	82.1183	14,928.2	81.4008	14,928.2	78.3885	14,928.2	76.546	14,928.2	75.6077	14,928.2	76.4506	14,928.2	70.6436	14,928.2	78.7368	14,928.2	69.4847	14,928.2	79.5795	14,928.2	70.6097	14,928.2	68.7962	14,928.2	66.8421	14,928.2	65.3303	14,928.2	67.5847	14,928.2	58.9092	14,928.2	67.9269	14,928.2	65.6007	14,928.2	65.8138	14,928.2	59.52	14,928.2	61.1534	14,928.2	62.714	14,928.2	61.1136
15,455.6	98.7987	15,455.6	97.9545	15,455.6	98.0167	15,455.6	96.0225	15,455.6	96.1631	15,455.6	94.2437	15,455.6	94.0455	15,455.6	91.6449	15,455.6	92.6021	15,455.6	89.6754	15,455.6	90.9397	15,455.6	86.6443	15,455.6	86.1269	15,455.6	81.0229	15,455.6	79.3411	15,455.6	75.5083	15,455.6	78.9668	15,455.6	73.8504	15,455.6	74.6168	15,455.6	68.5537	15,455.6	78.3816	15,455.6	67.4386	15,455.6	79.5736	15,455.6	69.1522	15,455.6	70.0853	15,455.6	65.5618	15,455.6	64.5133	15,455.6	69.0454	15,455.6	59.6863	15,455.6	65.518	15,455.6	67.2415	15,455.6	63.3571	15,455.6	64.3751	15,455.6	51.3182	15,455.6	62.5343	15,455.6	59.3391
16,000.5	98.8605	16,000.5	98.112	16,000.5	98.0776	16,000.5	96.3877	16,000.5	96.3929	16,000.5	94.4075	16,000.5	94.3603	16,000.5	91.4219	16,000.5	92.1733	16,000.5	88.8025	16,000.5	88.4759	16,000.5	85.0754	16,000.5	85.201	16,000.5	78.6623	16,000.5	76.048	16,000.5	73.7965	16,000.5	76.1774	16,000.5	71.9526	16,000.5	72.3451	16,000.5	64.8589	16,000.5	78.4884	16,000.5	64.7885	16,000.5	78.8298	16,000.5	67.9082	16,000.5	69.2793	16,000.5	64.1613	16,000.5	59.4012	16,000.5	65.2716	16,000.5	58.7078	16,000.5	63.3089	16,000.5	64.0794	16,000.5	59.6489	16,000.5	57.5401	16,000.5	47.0266	16,000.5	62.9362	16,000.5	60.5561
16,564.5	98.7805	16,564.5	97.9872	16,564.5	97.9341	16,564.5	96.4456	16,564.5	96.3256	16,564.5	94.0535	16,564.5	94.1578	16,564.5	90.6581	16,564.5	91.1904	16,564.5	87.1311	16,564.5	87.1719	16,564.5	82.466	16,564.5	80.2461	16,564.5	75.9954	16,564.5	72.4277	16,564.5	70.8917	16,564.5	70.9856	16,564.5	68.6159	16,564.5	68.732	16,564.5	63.2302	16,564.5	76.8944	16,564.5	59.9292	16,564.5	76.201	16,564.5	60.7295	16,564.5	68.52	16,564.5	64.6679	16,564.5	55.0005	16,564.5	64.5928	16,564.5	52.0754	16,564.5	58.7468	16,564.5	58.4865	16,564.5	55.4835	16,564.5	51.4391	16,564.5	52.7436	16,564.5	60.0181	16,564.5	62.3896
17,148.9	99.0501	17,148.9	97.9798	17,148.9	98.0575	17,148.9	96.3276	17,148.9	96.0118	17,148.9	93.3749	17,148.9	93.2589	17,148.9	89.6622	17,148.9	89.0707	17,148.9	85.259	17,148.9	82.6162	17,148.9	79.694	17,148.9	75.6572	17,148.9	72.1857	17,148.9	68.2243	17,148.9	68.4464	17,148.9	63.0341	17,148.9	63.4337	17,148.9	61.0184	17,148.9	57.8473	17,148.9	74.0859	17,148.9	55.0697	17,148.9	73.1405	17,148.9	59.8945	17,148.9	69.0464	17,148.9	61.9535	17,148.9	45.0652	17,148.9	63.2039	17,148.9	45.4715	17,148.9	58.1244	17,148.9	62.3938	17,148.9	59.0901	17,148.9	51.5744	17,148.9	55.9983	17,148.9	58.9362	17,148.9	63.8108
17,752.4	99.3278	17,752.4	98.0747	17,752.4	98.2407	17,752.4	95.9641	17,752.4	95.8805	17,752.4	92.5431	17,752.4	92.3115	17,752.4	88.0753	17,752.4	87.3493	17,752.4	83.2646	17,752.4	80.2195	17,752.4	76.8377	17,752.4	72.6633	17,752.4	69.3267	17,752.4	59.5564	17,752.4	63.8491	17,752.4	62.9102	17,752.4	57.9862	17,752.4	47.6203	17,752.4	52.2022	17,752.4	72.5051	17,752.4	51.4714	17,752.4	71.9438	17,752.4	58.6147	17,752.4	69.5006	17,752.4	55.1346	17,752.4	46.1084	17,752.4	61.7645	17,752.4	45.7788	17,752.4	56.3069	17,752.4	62.3249	17,752.4	60.5348	17,752.4	51.2415	17,752.4	58.3126	17,752.4	60.7926	17,752.4	66.2104
18,379.4	99.0332	18,379.4	97.7935	18,379.4	97.9814	18,379.4	95.4355	18,379.4	95.4986	18,379.4	91.2994	18,379.4	91.5785	18,379.4	86.3519	18,379.4	85.7177	18,379.4	80.5382	18,379.4	77.6782	18,379.4	72.3877	18,379.4	66.5535	18,379.4	65.8054	18,379.4	62.1821	18,379.4	60.8259	18,379.4	68.6778	18,379.4	54.37	18,379.4	49.3547	18,379.4	50.404	18,379.4	72.091	18,379.4	38.2287	18,379.4	72.6161	18,379.4	60.7174	18,379.4	68.2819	18,379.4	54.8632	18,379.4	49.1746	18,379.4	55.6073	18,379.4	43.9458	18,379.4	50.2632	18,379.4	59.943	18,379.4	58.9837	18,379.4	53.6588	18,379.4	60.0639	18,379.4	59.2606	18,379.4	66.723
19,026.9	98.3864	19,026.9	97.2925	19,026.9	97.2688	19,026.9	94.7205	19,026.9	94.557	19,026.9	90.0517	19,026.9	90.5461	19,026.9	84.6336	19,026.9	84.1806	19,026.9	78.4132	19,026.9	76.4671	19,026.9	68.3684	19,026.9	70.6399	19,026.9	60.9138	19,026.9	61.8488	19,026.9	59.0923	19,026.9	68.3613	19,026.9	57.1732	19,026.9	58.8064	19,026.9	55.3292	19,026.9	72.8263	19,026.9	41.8261	19,026.9	72.5806	19,026.9	59.8771	19,026.9	66.5071	19,026.9	59.2313	19,026.9	55.588	19,026.9	55.5536	19,026.9	48.8762	19,026.9	45.9576	19,026.9	60.3403	19,026.9	57.5277	19,026.9	58.5644	19,026.9	59.6116	19,026.9	58.2492	19,026.9	67.3783
19,697.8	97.9803	19,697.8	96.5831	19,697.8	96.6941	19,697.8	93.602	19,697.8	93.5714	19,697.8	88.6179	19,697.8	89.0856	19,697.8	82.463	19,697.8	82.8598	19,697.8	76.6334	19,697.8	76.0444	19,697.8	65.8564	19,697.8	66.6777	19,697.8	57.6341	19,697.8	64.028	19,697.8	56.8824	19,697.8	67.3058	19,697.8	57.9342	19,697.8	61.4383	19,697.8	57.9367	19,697.8	71.907	19,697.8	46.2258	19,697.8	70.9946	19,697.8	59.8268	19,697.8	66.8546	19,697.8	61.4188	19,697.8	56.5531	19,697.8	55.9641	19,697.8	48.0591	19,697.8	45.1631	19,697.8	61.6072	19,697.8	57.8797	19,697.8	59.1583	19,697.8	59.1211	19,697.8	59.2185	19,697.8	67.0629
19,999.5	97.8005	19,999.5	96.19	19,999.5	96.4095	19,999.5	93.004	19,999.5	93.0509	19,999.5	87.7804	19,999.5	88.3876	19,999.5	81.352	19,999.5	82.2273	19,999.5	74.6472	19,999.5	74.7866	19,999.5	64.1461	19,999.5	64.4867	19,999.5	65.0383	19,999.5	58.4695	19,999.5	56.576	19,999.5	68.4422	19,999.5	58.8802	19,999.5	55.0352	19,999.5	61.1411	19,999.5	74.0986	19,999.5	46.6263	19,999.5	71.2808	19,999.5	63.1559	19,999.5	65.8164	19,999.5	65.3016	19,999.5	46.2685	19,999.5	62.7563	19,999.5	58.1342	19,999.5	55.3702	19,999.5	54.8852	19,999.5	50.3693	19,999.5	60.6327	19,999.5	56.4011	19,999.5	57.87	19,999.5	67.2994
