"SPL Horizontal"																																																																							
"On-Axis"		"10°"		"-10°"		"20°"		"-20°"		"30°"		"-30°"		"40°"		"-40°"		"50°"		"-50°"		"60°"		"-60°"		"70°"		"-70°"		"80°"		"-80°"		"90°"		"-90°"		"100°"		"-100°"		"110°"		"-110°"		"120°"		"-120°"		"130°"		"-130°"		"140°"		"-140°"		"150°"		"-150°"		"160°"		"-160°"		"170°"		"-170°"		"180°"	
"Frequency [Hz]"	"Sound Pessure Level [dB]  / [2.83V 1m] "	"Frequency [Hz]"	"Sound Pessure Level [dB]  / [2.83V 1m] "	"Frequency [Hz]"	"Sound Pessure Level [dB]  / [2.83V 1m] "	"Frequency [Hz]"	"Sound Pessure Level [dB]  / [2.83V 1m] "	"Frequency [Hz]"	"Sound Pessure Level [dB]  / [2.83V 1m] "	"Frequency [Hz]"	"Sound Pessure Level [dB]  / [2.83V 1m] "	"Frequency [Hz]"	"Sound Pessure Level [dB]  / [2.83V 1m] "	"Frequency [Hz]"	"Sound Pessure Level [dB]  / [2.83V 1m] "	"Frequency [Hz]"	"Sound Pessure Level [dB]  / [2.83V 1m] "	"Frequency [Hz]"	"Sound Pessure Level [dB]  / [2.83V 1m] "	"Frequency [Hz]"	"Sound Pessure Level [dB]  / [2.83V 1m] "	"Frequency [Hz]"	"Sound Pessure Level [dB]  / [2.83V 1m] "	"Frequency [Hz]"	"Sound Pessure Level [dB]  / [2.83V 1m] "	"Frequency [Hz]"	"Sound Pessure Level [dB]  / [2.83V 1m] "	"Frequency [Hz]"	"Sound Pessure Level [dB]  / [2.83V 1m] "	"Frequency [Hz]"	"Sound Pessure Level [dB]  / [2.83V 1m] "	"Frequency [Hz]"	"Sound Pessure Level [dB]  / [2.83V 1m] "	"Frequency [Hz]"	"Sound Pessure Level [dB]  / [2.83V 1m] "	"Frequency [Hz]"	"Sound Pessure Level [dB]  / [2.83V 1m] "	"Frequency [Hz]"	"Sound Pessure Level [dB]  / [2.83V 1m] "	"Frequency [Hz]"	"Sound Pessure Level [dB]  / [2.83V 1m] "	"Frequency [Hz]"	"Sound Pessure Level [dB]  / [2.83V 1m] "	"Frequency [Hz]"	"Sound Pessure Level [dB]  / [2.83V 1m] "	"Frequency [Hz]"	"Sound Pessure Level [dB]  / [2.83V 1m] "	"Frequency [Hz]"	"Sound Pessure Level [dB]  / [2.83V 1m] "	"Frequency [Hz]"	"Sound Pessure Level [dB]  / [2.83V 1m] "	"Frequency [Hz]"	"Sound Pessure Level [dB]  / [2.83V 1m] "	"Frequency [Hz]"	"Sound Pessure Level [dB]  / [2.83V 1m] "	"Frequency [Hz]"	"Sound Pessure Level [dB]  / [2.83V 1m] "	"Frequency [Hz]"	"Sound Pessure Level [dB]  / [2.83V 1m] "	"Frequency [Hz]"	"Sound Pessure Level [dB]  / [2.83V 1m] "	"Frequency [Hz]"	"Sound Pessure Level [dB]  / [2.83V 1m] "	"Frequency [Hz]"	"Sound Pessure Level [dB]  / [2.83V 1m] "	"Frequency [Hz]"	"Sound Pessure Level [dB]  / [2.83V 1m] "	"Frequency [Hz]"	"Sound Pessure Level [dB]  / [2.83V 1m] "	"Frequency [Hz]"	"Sound Pessure Level [dB]  / [2.83V 1m] "
20.5078	63.0788	20.5078	63.0565	20.5078	63.0005	20.5078	62.9392	20.5078	62.8188	20.5078	62.736	20.5078	62.5336	20.5078	62.4633	20.5078	62.1506	20.5078	62.1488	20.5078	61.6865	20.5078	61.8376	20.5078	61.18	20.5078	61.5961	20.5078	60.707	20.5078	61.5056	20.5078	60.3892	20.5078	61.6381	20.5078	60.37	20.5078	62.0197	20.5078	60.7368	20.5078	62.6123	20.5078	61.4495	20.5078	63.3304	20.5078	62.365	20.5078	64.0777	20.5078	63.3263	20.5078	64.7718	20.5078	64.2165	20.5078	65.3523	20.5078	64.9652	20.5078	65.7776	20.5078	65.5338	20.5078	66.0207	20.5078	65.903	20.5078	66.0652
21.9727	62.7162	21.9727	62.5747	21.9727	62.6845	21.9727	62.2641	21.9727	62.4761	21.9727	61.7935	21.9727	62.0883	21.9727	61.1885	21.9727	61.5258	21.9727	60.5162	21.9727	60.8168	21.9727	59.9252	21.9727	60.0523	21.9727	59.6674	21.9727	59.4473	21.9727	59.9941	21.9727	59.3476	21.9727	60.9308	21.9727	60.0007	21.9727	62.245	21.9727	61.2715	21.9727	63.6634	21.9727	62.7985	21.9727	65.0091	21.9727	64.3013	21.9727	66.1946	21.9727	65.6417	21.9727	67.1811	21.9727	66.7656	21.9727	67.9505	21.9727	67.6546	21.9727	68.4935	21.9727	68.3035	21.9727	68.8038	21.9727	68.7108	21.9727	68.8771
23.4375	63.4822	23.4375	63.3959	23.4375	63.4292	23.4375	63.1854	23.4375	63.2361	23.4375	62.8857	23.4375	62.9182	23.4375	62.565	23.4375	62.52	23.4375	62.3393	23.4375	62.1374	23.4375	62.3657	23.4375	61.9371	23.4375	62.7793	23.4375	62.1233	23.4375	63.6001	23.4375	62.8111	23.4375	64.7144	23.4375	63.9208	23.4375	65.9589	23.4375	65.2484	23.4375	67.1992	23.4375	66.6054	23.4375	68.3502	23.4375	67.8737	23.4375	69.3633	23.4375	68.9918	23.4375	70.2112	23.4375	69.9307	23.4375	70.8777	23.4375	70.6763	23.4375	71.352	23.4375	71.2216	23.4375	71.6269	23.4375	71.5628	23.4375	71.6979
24.9023	66.2922	24.9023	66.1534	24.9023	66.2852	24.9023	65.8783	24.9023	66.1303	24.9023	65.4888	24.9023	65.8329	24.9023	65.0312	24.9023	65.4128	24.9023	64.5952	24.9023	64.9198	24.9023	64.3273	24.9023	64.4588	24.9023	64.4029	24.9023	64.2075	24.9023	64.9273	24.9023	64.371	24.9023	65.8484	24.9023	65.0432	24.9023	66.9987	24.9023	66.116	24.9023	68.207	24.9023	67.3748	24.9023	69.3549	24.9023	68.6356	24.9023	70.3744	24.9023	69.7871	24.9023	71.2288	24.9023	70.7727	24.9023	71.8976	24.9023	71.5651	24.9023	72.3683	24.9023	72.1515	24.9023	72.633	24.9023	72.5261	24.9023	72.6865
26.3672	67.4941	26.3672	67.3883	26.3672	67.4812	26.3672	67.1792	26.3672	67.3485	26.3672	66.9014	26.3672	67.1093	26.3672	66.6189	26.3672	66.7995	26.3672	66.4341	26.3672	66.491	26.3672	66.477	26.3672	66.3035	26.3672	66.8545	26.3672	66.3893	26.3672	67.5824	26.3672	66.8623	26.3672	68.5719	26.3672	67.7142	26.3672	69.6887	26.3672	68.8179	26.3672	70.8145	26.3672	70.0145	26.3672	71.8684	26.3672	71.18	26.3672	72.8011	26.3672	72.2373	26.3672	73.5831	26.3672	73.1432	26.3672	74.1961	26.3672	73.8743	26.3672	74.628	26.3672	74.4176	26.3672	74.8701	26.3672	74.7663	26.3672	74.9172
27.832	69.1159	27.832	69.0185	27.832	69.0978	27.832	68.821	27.832	68.9628	27.832	68.5572	27.832	68.7241	27.832	68.2884	27.832	68.4168	27.832	68.1121	27.832	68.1117	27.832	68.151	27.832	67.9262	27.832	68.5082	27.832	68.0089	27.832	69.2034	27.832	68.4717	27.832	70.1572	27.832	69.3076	27.832	71.2431	27.832	70.3935	27.832	72.3452	27.832	71.5735	27.832	73.3823	27.832	72.7243	27.832	74.3036	27.832	73.769	27.832	75.0784	27.832	74.6641	27.832	75.6874	27.832	75.386	27.832	76.1178	27.832	75.9216	27.832	76.3608	27.832	76.2642	27.832	76.4105
29.2969	71.1513	29.2969	71.0609	29.2969	71.1451	29.2969	70.8881	29.2969	71.0417	29.2969	70.6639	29.2969	70.8541	29.2969	70.4426	29.2969	70.6148	29.2969	70.3062	29.2969	70.3842	29.2969	70.355	29.2969	70.2563	29.2969	70.6735	29.2969	70.3459	29.2969	71.2838	29.2969	70.7419	29.2969	72.1299	29.2969	71.4517	29.2969	73.11	29.2969	72.3926	29.2969	74.1223	29.2969	73.4419	29.2969	75.0887	29.2969	74.4898	29.2969	75.9565	29.2969	75.4585	29.2969	76.692	29.2969	76.2997	29.2969	77.2732	29.2969	76.9845	29.2969	77.6852	29.2969	77.496	29.2969	77.918	29.2969	77.8245	29.2969	77.9654
30.7617	72.5066	30.7617	72.4241	30.7617	72.4975	30.7617	72.2636	30.7617	72.3971	30.7617	72.0552	30.7617	72.2204	30.7617	71.852	30.7617	72.0023	30.7617	71.733	30.7617	71.8053	30.7617	71.7943	30.7617	71.7226	30.7617	72.1159	30.7617	71.8617	30.7617	72.7193	30.7617	72.2987	30.7617	73.5523	30.7617	73.0299	30.7617	74.5188	30.7617	73.9713	30.7617	75.5209	30.7617	75.0071	30.7617	76.4821	30.7617	76.0347	30.7617	77.35	30.7617	76.982	30.7617	78.09	30.7617	77.803	30.7617	78.6792	30.7617	78.4697	30.7617	79.1015	30.7617	78.965	30.7617	79.3462	30.7617	79.279	30.7617	79.4063
32.2266	74.5198	32.2266	74.441	32.2266	74.5224	32.2266	74.2992	32.2266	74.4487	32.2266	74.1223	32.2266	74.3114	32.2266	73.9573	32.2266	74.14	32.2266	73.8715	32.2266	73.9857	32.2266	73.9437	32.2266	73.9227	32.2266	74.2393	32.2266	74.037	32.2266	74.7781	32.2266	74.3949	32.2266	75.5219	32.2266	75.0067	32.2266	76.393	32.2266	75.818	32.2266	77.3067	32.2266	76.7371	32.2266	78.1919	32.2266	77.6726	32.2266	78.9966	32.2266	78.5527	32.2266	79.6851	32.2266	79.3278	32.2266	80.2328	32.2266	79.9655	32.2266	80.6229	32.2266	80.4456	32.2266	80.8439	32.2266	80.7556	32.2266	80.889
33.6914	76.4144	33.6914	76.3498	33.6914	76.4217	33.6914	76.2405	33.6914	76.3708	33.6914	76.1125	33.6914	76.2734	33.6914	76.0069	33.6914	76.1553	33.6914	75.979	33.6914	76.0598	33.6914	76.0899	33.6914	76.0468	33.6914	76.3876	33.6914	76.1825	33.6914	76.886	33.6914	76.5181	33.6914	77.5563	33.6914	77.0637	33.6914	78.3385	33.6914	77.7814	33.6914	79.1635	33.6914	78.6008	33.6914	79.9692	33.6914	79.4457	33.6914	80.707	33.6914	80.2511	33.6914	81.3414	33.6914	80.9687	33.6914	81.8472	33.6914	81.565	33.6914	82.2066	33.6914	82.0179	33.6914	82.4079	33.6914	82.3135	33.6914	82.4443
35.1563	77.9782	35.1563	77.9338	35.1563	77.9748	35.1563	77.853	35.1563	77.923	35.1563	77.7595	35.1563	77.8338	35.1563	77.6893	35.1563	77.7317	35.1563	77.6901	35.1563	77.6559	35.1563	77.8131	35.1563	77.6596	35.1563	78.0986	35.1563	77.8007	35.1563	78.5595	35.1563	78.1229	35.1563	79.1739	35.1563	78.6358	35.1563	79.8925	35.1563	79.3072	35.1563	80.6556	35.1563	80.0759	35.1563	81.4068	35.1563	80.8732	35.1563	82.0998	35.1563	81.638	35.1563	82.6993	35.1563	82.3233	35.1563	83.1792	35.1563	82.8954	35.1563	83.5211	35.1563	83.3317	35.1563	83.7123	35.1563	83.6177	35.1563	83.7454
36.6211	79.6798	36.6211	79.6401	36.6211	79.6762	36.6211	79.5662	36.6211	79.6296	36.6211	79.4772	36.6211	79.5499	36.6211	79.4031	36.6211	79.4585	36.6211	79.3834	36.6211	79.389	36.6211	79.463	36.6211	79.3865	36.6211	79.6806	36.6211	79.5001	36.6211	80.0552	36.6211	79.7695	36.6211	80.5769	36.6211	80.2078	36.6211	81.2088	36.6211	80.7934	36.6211	81.8992	36.6211	81.4773	36.6211	82.5943	36.6211	82.1988	36.6211	83.2471	36.6211	82.9004	36.6211	83.8199	36.6211	83.5354	36.6211	84.2843	36.6211	84.0686	36.6211	84.6198	36.6211	84.4754	36.6211	84.8121	36.6211	84.7399	36.6211	84.8531
38.0859	81.0388	38.0859	80.9929	38.0859	81.0487	38.0859	80.9202	38.0859	81.0225	38.0859	80.8388	38.0859	80.9691	38.0859	80.7771	38.0859	80.9076	38.0859	80.7714	38.0859	80.8675	38.0859	80.8617	38.0859	80.8876	38.0859	81.0819	38.0859	81.01	38.0859	81.4475	38.0859	81.2689	38.0859	81.9485	38.0859	81.6767	38.0859	82.5512	38.0859	82.2174	38.0859	83.2085	38.0859	82.8503	38.0859	83.8709	38.0859	83.5222	38.0859	84.4943	38.0859	84.1806	38.0859	85.0427	38.0859	84.7806	38.0859	85.4884	38.0859	85.2872	38.0859	85.811	38.0859	85.6754	38.0859	85.9965	38.0859	85.9283	38.0859	86.0364
39.5508	82.5287	39.5508	82.4994	39.5508	82.5349	39.5508	82.4551	39.5508	82.5175	39.5508	82.4118	39.5508	82.4841	39.5508	82.3929	39.5508	82.4507	39.5508	82.4276	39.5508	82.4418	39.5508	82.5461	39.5508	82.489	39.5508	82.7731	39.5508	82.6258	39.5508	83.1193	39.5508	82.8788	39.5508	83.5765	39.5508	83.2585	39.5508	84.1188	39.5508	83.7527	39.5508	84.7089	39.5508	84.3289	39.5508	85.3061	39.5508	84.9429	39.5508	85.8717	39.5508	85.5487	39.5508	86.3728	39.5508	86.1047	39.5508	86.7823	39.5508	86.5775	39.5508	87.0797	39.5508	86.942	39.5508	87.2503	39.5508	87.1812	39.5508	87.2851
41.0156	84.0253	41.0156	83.9978	41.0156	84.0307	41.0156	83.9553	41.0156	84.0135	41.0156	83.9116	41.0156	83.9803	41.0156	83.8867	41.0156	83.9448	41.0156	83.906	41.0156	83.9283	41.0156	83.9965	41.0156	83.9583	41.0156	84.1812	41.0156	84.0647	41.0156	84.4727	41.0156	84.2729	41.0156	84.8678	41.0156	84.595	41.0156	85.3467	41.0156	85.0244	41.0156	85.8777	41.0156	85.5353	41.0156	86.4235	41.0156	86.0893	41.0156	86.9468	41.0156	86.6439	41.0156	87.4144	41.0156	87.159	41.0156	87.7989	41.0156	87.6011	41.0156	88.0788	41.0156	87.9446	41.0156	88.2392	41.0156	88.1714	41.0156	88.2709
42.4805	85.3845	42.4805	85.3667	42.4805	85.3833	42.4805	85.3354	42.4805	85.3631	42.4805	85.3021	42.4805	85.3302	42.4805	85.2835	42.4805	85.2969	42.4805	85.3011	42.4805	85.282	42.4805	85.3783	42.4805	85.3094	42.4805	85.5361	42.4805	85.4049	42.4805	85.7877	42.4805	85.5907	42.4805	86.1334	42.4805	85.8785	42.4805	86.5589	42.4805	86.2639	42.4805	87.0378	42.4805	86.726	42.4805	87.5366	42.4805	87.2315	42.4805	88.0204	42.4805	87.7421	42.4805	88.4566	42.4805	88.2203	42.4805	88.8175	42.4805	88.6335	42.4805	89.0816	42.4805	88.9561	42.4805	89.2333	42.4805	89.1698	42.4805	89.2636
43.9453	86.3334	43.9453	86.3161	43.9453	86.3356	43.9453	86.2893	43.9453	86.323	43.9453	86.2637	43.9453	86.3013	43.9453	86.2549	43.9453	86.2818	43.9453	86.2826	43.9453	86.2816	43.9453	86.3683	43.9453	86.3221	43.9453	86.5306	43.9453	86.4263	43.9453	86.7808	43.9453	86.6137	43.9453	87.1185	43.9453	86.8944	43.9453	87.5302	43.9453	87.2645	43.9453	87.9912	43.9453	87.7054	43.9453	88.4704	43.9453	88.1869	43.9453	88.9349	43.9453	88.6737	43.9453	89.3538	43.9453	89.1303	43.9453	89.7009	43.9453	89.5258	43.9453	89.955	43.9453	89.8351	43.9453	90.1011	43.9453	90.0403	43.9453	90.1304
45.4102	87.5091	45.4102	87.4919	45.4102	87.5152	45.4102	87.4685	45.4102	87.5101	45.4102	87.4483	45.4102	87.4984	45.4102	87.4449	45.4102	87.4896	45.4102	87.4752	45.4102	87.4982	45.4102	87.5572	45.4102	87.5422	45.4102	87.7069	45.4102	87.6409	45.4102	87.9342	45.4102	87.8112	45.4102	88.2393	45.4102	88.0626	45.4102	88.6115	45.4102	88.3932	45.4102	89.0301	45.4102	88.7884	45.4102	89.4679	45.4102	89.223	45.4102	89.8952	45.4102	89.6657	45.4102	90.2831	45.4102	90.0843	45.4102	90.6062	45.4102	90.4491	45.4102	90.844	45.4102	90.7357	45.4102	90.9814	45.4102	90.9263	45.4102	91.0096
46.875	88.5622	46.875	88.5508	46.875	88.5663	46.875	88.5361	46.875	88.563	46.875	88.5264	46.875	88.5564	46.875	88.5332	46.875	88.5551	46.875	88.5707	46.875	88.5713	46.875	88.6542	46.875	88.6207	46.875	88.7971	46.875	88.7198	46.875	89.0081	46.875	88.883	46.875	89.2878	46.875	89.1184	46.875	89.6278	46.875	89.4246	46.875	90.0108	46.875	89.7893	46.875	90.413	46.875	90.1904	46.875	90.8077	46.875	90.6	46.875	91.1681	46.875	90.9885	46.875	91.4699	46.875	91.3282	46.875	91.6932	46.875	91.5957	46.875	91.823	46.875	91.7734	46.875	91.8506
48.3398	89.4504	48.3398	89.4399	48.3398	89.455	48.3398	89.4273	48.3398	89.4539	48.3398	89.4197	48.3398	89.4511	48.3398	89.4275	48.3398	89.4542	48.3398	89.4636	48.3398	89.4747	48.3398	89.5418	48.3398	89.5266	48.3398	89.6748	48.3398	89.6246	48.3398	89.871	48.3398	89.7819	48.3398	90.1319	48.3398	90.0057	48.3398	90.4503	48.3398	90.295	48.3398	90.811	48.3398	90.6387	48.3398	91.192	48.3398	91.017	48.3398	91.5683	48.3398	91.4038	48.3398	91.914	48.3398	91.7712	48.3398	92.2056	48.3398	92.0926	48.3398	92.423	48.3398	92.3452	48.3398	92.5515	48.3398	92.5119	48.3398	92.5821
51.2695	91.1091	51.2695	91.1021	51.2695	91.1168	51.2695	91.0988	51.2695	91.1252	51.2695	91.1047	51.2695	91.137	51.2695	91.1276	51.2695	91.1579	51.2695	91.177	51.2695	91.1959	51.2695	91.2627	51.2695	91.2611	51.2695	91.3939	51.2695	91.3638	51.2695	91.5761	51.2695	91.5132	51.2695	91.8102	51.2695	91.7146	51.2695	92.0907	51.2695	91.9675	51.2695	92.4055	51.2695	92.2637	51.2695	92.7374	51.2695	92.5884	51.2695	93.0655	51.2695	92.9213	51.2695	93.3677	51.2695	93.2392	51.2695	93.6231	51.2695	93.5192	51.2695	93.8137	51.2695	93.741	51.2695	93.926	51.2695	93.8886	51.2695	93.9517
52.7344	91.8759	52.7344	91.8709	52.7344	91.8833	52.7344	91.8709	52.7344	91.8931	52.7344	91.8807	52.7344	91.9076	52.7344	91.907	52.7344	91.9316	52.7344	91.9579	52.7344	91.9722	52.7344	92.0421	52.7344	92.0379	52.7344	92.1672	52.7344	92.1378	52.7344	92.3382	52.7344	92.2797	52.7344	92.5559	52.7344	92.4682	52.7344	92.8156	52.7344	92.703	52.7344	93.1069	52.7344	92.9773	52.7344	93.4144	52.7344	93.2778	52.7344	93.7191	52.7344	93.5864	52.7344	94.0007	52.7344	93.8819	52.7344	94.2393	52.7344	94.143	52.7344	94.4179	52.7344	94.3503	52.7344	94.5233	52.7344	94.4885	52.7344	94.5475
54.1992	92.5507	54.1992	92.5475	54.1992	92.5582	54.1992	92.5508	54.1992	92.5699	54.1992	92.5647	54.1992	92.588	54.1992	92.5949	54.1992	92.6164	54.1992	92.6484	54.1992	92.661	54.1992	92.7322	54.1992	92.7292	54.1992	92.8529	54.1992	92.8284	54.1992	93.0147	54.1992	92.9653	54.1992	93.2184	54.1992	93.1439	54.1992	93.46	54.1992	93.3637	54.1992	93.7303	54.1992	93.6187	54.1992	94.0158	54.1992	93.8974	54.1992	94.2992	54.1992	94.1835	54.1992	94.5618	54.1992	94.4576	54.1992	94.7851	54.1992	94.7001	54.1992	94.9528	54.1992	94.8929	54.1992	95.0522	54.1992	95.0213	54.1992	95.0757
55.6641	93.1604	55.6641	93.1594	55.6641	93.1673	55.6641	93.1663	55.6641	93.18	55.6641	93.1844	55.6641	93.2005	55.6641	93.2188	55.6641	93.2322	55.6641	93.2753	55.6641	93.2802	55.6641	93.3601	55.6641	93.3508	55.6641	93.4787	55.6641	93.4504	55.6641	93.6348	55.6641	93.5848	55.6641	93.8289	55.6641	93.757	55.6641	94.0574	55.6641	93.9667	55.6641	94.3122	55.6641	94.2082	55.6641	94.5807	55.6641	94.4712	55.6641	94.8475	55.6641	94.7406	55.6641	95.0949	55.6641	94.9988	55.6641	95.3056	55.6641	95.2273	55.6641	95.4642	55.6641	95.409	55.6641	95.5585	55.6641	95.53	55.6641	95.5811
58.5938	94.3495	58.5938	94.3513	58.5938	94.3563	58.5938	94.363	58.5938	94.3718	58.5938	94.3869	58.5938	94.3972	58.5938	94.4264	58.5938	94.4347	58.5938	94.4855	58.5938	94.4878	58.5938	94.5681	58.5938	94.5608	58.5938	94.6782	58.5938	94.6578	58.5938	94.8179	58.5938	94.7825	58.5938	94.9878	58.5938	94.937	58.5938	95.1849	58.5938	95.1206	58.5938	95.4033	58.5938	95.3291	58.5938	95.6332	58.5938	95.5543	58.5938	95.862	58.5938	95.7844	58.5938	96.0752	58.5938	96.0048	58.5938	96.2579	58.5938	96.2001	58.5938	96.3964	58.5938	96.3554	58.5938	96.4797	58.5938	96.4584	58.5938	96.501
60.0586	94.8376	60.0586	94.8392	60.0586	94.8455	60.0586	94.8515	60.0586	94.863	60.0586	94.8763	60.0586	94.8911	60.0586	94.9164	60.0586	94.9317	60.0586	94.975	60.0586	94.9876	60.0586	95.0557	60.0586	95.062	60.0586	95.1615	60.0586	95.1586	60.0586	95.2946	60.0586	95.2801	60.0586	95.4551	60.0586	95.4281	60.0586	95.6408	60.0586	95.6019	60.0586	95.8461	60.0586	95.7975	60.0586	96.0624	60.0586	96.0076	60.0586	96.2778	60.0586	96.2216	60.0586	96.4791	60.0586	96.4263	60.0586	96.652	60.0586	96.6075	60.0586	96.7836	60.0586	96.7514	60.0586	96.8633	60.0586	96.8465	60.0586	96.8849
62.9883	95.7754	62.9883	95.7783	62.9883	95.7842	62.9883	95.7934	62.9883	95.8047	62.9883	95.8222	62.9883	95.8372	62.9883	95.8662	62.9883	95.883	62.9883	95.9274	62.9883	95.9436	62.9883	96.0079	62.9883	96.0208	62.9883	96.1095	62.9883	96.1167	62.9883	96.2334	62.9883	96.2327	62.9883	96.3792	62.9883	96.3695	62.9883	96.5449	62.9883	96.5261	62.9883	96.7261	62.9883	96.6992	62.9883	96.9156	62.9883	96.8829	62.9883	97.1039	62.9883	97.0686	62.9883	97.2799	62.9883	97.2455	62.9883	97.4315	62.9883	97.4017	62.9883	97.5474	62.9883	97.5255	62.9883	97.6184	62.9883	97.6068	62.9883	97.6387
64.4531	96.2051	64.4531	96.2088	64.4531	96.214	64.4531	96.2255	64.4531	96.2352	64.4531	96.2561	64.4531	96.2692	64.4531	96.3018	64.4531	96.3167	64.4531	96.364	64.4531	96.3787	64.4531	96.4442	64.4531	96.4565	64.4531	96.5437	64.4531	96.5514	64.4531	96.6631	64.4531	96.6644	64.4531	96.8019	64.4531	96.7956	64.4531	96.9582	64.4531	96.9439	64.4531	97.1279	64.4531	97.1063	64.4531	97.3046	64.4531	97.2775	64.4531	97.4798	64.4531	97.4499	64.4531	97.6434	64.4531	97.6138	64.4531	97.7843	64.4531	97.7584	64.4531	97.8921	64.4531	97.8729	64.4531	97.9583	64.4531	97.9481	64.4531	97.9774
67.3828	96.9935	67.3828	96.9981	67.3828	97.0028	67.3828	97.0169	67.3828	97.026	67.3828	97.0501	67.3828	97.0629	67.3828	97.0981	67.3828	97.1136	67.3828	97.1613	67.3828	97.1783	67.3828	97.2401	67.3828	97.2572	67.3828	97.3347	67.3828	97.3503	67.3828	97.4449	67.3828	97.4575	67.3828	97.57	67.3828	97.5784	67.3828	97.708	67.3828	97.7114	67.3828	97.8557	67.3828	97.8539	67.3828	98.0081	67.3828	98.0017	67.3828	98.1586	67.3828	98.1487	67.3828	98.2989	67.3828	98.2873	67.3828	98.42	67.3828	98.4088	67.3828	98.5132	67.3828	98.5044	67.3828	98.5713	67.3828	98.5664	67.3828	98.5894
68.8477	97.3655	68.8477	97.3697	68.8477	97.3758	68.8477	97.3885	68.8477	97.4004	68.8477	97.4218	68.8477	97.4393	68.8477	97.4696	68.8477	97.4921	68.8477	97.532	68.8477	97.5586	68.8477	97.6087	68.8477	97.6385	68.8477	97.6998	68.8477	97.7314	68.8477	97.8048	68.8477	97.8366	68.8477	97.9228	68.8477	97.9534	68.8477	98.052	68.8477	98.0799	68.8477	98.1897	68.8477	98.2138	68.8477	98.3316	68.8477	98.351	68.8477	98.4716	68.8477	98.4863	68.8477	98.6026	68.8477	98.6128	68.8477	98.7163	68.8477	98.7227	68.8477	98.8047	68.8477	98.8083	68.8477	98.8611	68.8477	98.8626	68.8477	98.8808
71.7773	98.0588	71.7773	98.0611	71.7773	98.0717	71.7773	98.0786	71.7773	98.0995	71.7773	98.1109	71.7773	98.1419	71.7773	98.1574	71.7773	98.1981	71.7773	98.2176	71.7773	98.2671	71.7773	98.2908	71.7773	98.3476	71.7773	98.3761	71.7773	98.4386	71.7773	98.4726	71.7773	98.5387	71.7773	98.5791	71.7773	98.6462	71.7773	98.6941	71.7773	98.7595	71.7773	98.815	71.7773	98.8762	71.7773	98.9386	71.7773	98.9932	71.7773	99.0601	71.7773	99.1064	71.7773	99.1736	71.7773	99.2106	71.7773	99.2726	71.7773	99.3	71.7773	99.3504	71.7773	99.3683	71.7773	99.4014	71.7773	99.4102	71.7773	99.4217
74.707	98.6888	74.707	98.6886	74.707	98.7054	74.707	98.7046	74.707	98.738	74.707	98.7361	74.707	98.7857	74.707	98.7823	74.707	98.8473	74.707	98.8417	74.707	98.921	74.707	98.913	74.707	99.0048	74.707	98.9947	74.707	99.0966	74.707	99.0852	74.707	99.1943	74.707	99.183	74.707	99.2957	74.707	99.2864	74.707	99.3988	74.707	99.3933	74.707	99.5013	74.707	99.5009	74.707	99.6005	74.707	99.6059	74.707	99.6936	74.707	99.7038	74.707	99.7768	74.707	99.7898	74.707	99.846	74.707	99.8587	74.707	99.8967	74.707	99.906	74.707	99.9252	74.707	99.9285
77.6367	99.1831	77.6367	99.1852	77.6367	99.1979	77.6367	99.2039	77.6367	99.2293	77.6367	99.2383	77.6367	99.2764	77.6367	99.2868	77.6367	99.3373	77.6367	99.3477	77.6367	99.4101	77.6367	99.4189	77.6367	99.4922	77.6367	99.4983	77.6367	99.5809	77.6367	99.5839	77.6367	99.6735	77.6367	99.6737	77.6367	99.7674	77.6367	99.766	77.6367	99.8605	77.6367	99.8589	77.6367	99.9505	77.6367	99.9505	77.6367	100.035	77.6367	100.038	77.6367	100.113	77.6367	100.119	77.6367	100.181	77.6367	100.189	77.6367	100.237	77.6367	100.245	77.6367	100.277	77.6367	100.283	77.6367	100.299	77.6367	100.302
79.1016	99.4215	79.1016	99.4274	79.1016	99.4327	79.1016	99.4501	79.1016	99.4607	79.1016	99.4882	79.1016	99.5045	79.1016	99.5401	79.1016	99.5623	79.1016	99.6036	79.1016	99.6319	79.1016	99.6764	79.1016	99.7106	79.1016	99.756	79.1016	99.7954	79.1016	99.84	79.1016	99.8835	79.1016	99.9263	79.1016	99.9723	79.1016	100.013	79.1016	100.059	79.1016	100.098	79.1016	100.143	79.1016	100.18	79.1016	100.221	79.1016	100.256	79.1016	100.292	79.1016	100.325	79.1016	100.354	79.1016	100.384	79.1016	100.405	79.1016	100.429	79.1016	100.443	79.1016	100.459	79.1016	100.466	79.1016	100.471
82.0313	99.9829	82.0313	99.9914	82.0313	99.9903	82.0313	100.015	82.0313	100.013	82.0313	100.053	82.0313	100.051	82.0313	100.103	82.0313	100.102	82.0313	100.162	82.0313	100.163	82.0313	100.227	82.0313	100.232	82.0313	100.296	82.0313	100.305	82.0313	100.365	82.0313	100.378	82.0313	100.434	82.0313	100.45	82.0313	100.499	82.0313	100.518	82.0313	100.559	82.0313	100.58	82.0313	100.614	82.0313	100.635	82.0313	100.663	82.0313	100.682	82.0313	100.706	82.0313	100.721	82.0313	100.74	82.0313	100.753	82.0313	100.767	82.0313	100.775	82.0313	100.784	82.0313	100.788	82.0313	100.791
84.9609	100.487	84.9609	100.495	84.9609	100.493	84.9609	100.514	84.9609	100.513	84.9609	100.545	84.9609	100.544	84.9609	100.585	84.9609	100.585	84.9609	100.63	84.9609	100.635	84.9609	100.678	84.9609	100.688	84.9609	100.727	84.9609	100.743	84.9609	100.772	84.9609	100.796	84.9609	100.814	84.9609	100.845	84.9609	100.849	84.9609	100.886	84.9609	100.878	84.9609	100.92	84.9609	100.902	84.9609	100.946	84.9609	100.92	84.9609	100.964	84.9609	100.935	84.9609	100.975	84.9609	100.948	84.9609	100.981	84.9609	100.958	84.9609	100.982	84.9609	100.967	84.9609	100.979	84.9609	100.974
87.8906	100.723	87.8906	100.723	87.8906	100.74	87.8906	100.738	87.8906	100.773	87.8906	100.768	87.8906	100.821	87.8906	100.81	87.8906	100.881	87.8906	100.859	87.8906	100.951	87.8906	100.914	87.8906	101.026	87.8906	100.971	87.8906	101.103	87.8906	101.027	87.8906	101.177	87.8906	101.08	87.8906	101.245	87.8906	101.129	87.8906	101.305	87.8906	101.173	87.8906	101.353	87.8906	101.213	87.8906	101.39	87.8906	101.25	87.8906	101.415	87.8906	101.284	87.8906	101.429	87.8906	101.316	87.8906	101.433	87.8906	101.347	87.8906	101.429	87.8906	101.374	87.8906	101.416	87.8906	101.398
90.8203	100.43	90.8203	100.423	90.8203	100.466	90.8203	100.443	90.8203	100.53	90.8203	100.49	90.8203	100.619	90.8203	100.559	90.8203	100.729	90.8203	100.649	90.8203	100.857	90.8203	100.754	90.8203	100.997	90.8203	100.871	90.8203	101.143	90.8203	100.995	90.8203	101.288	90.8203	101.122	90.8203	101.428	90.8203	101.248	90.8203	101.557	90.8203	101.371	90.8203	101.671	90.8203	101.487	90.8203	101.768	90.8203	101.594	90.8203	101.844	90.8203	101.69	90.8203	101.901	90.8203	101.773	90.8203	101.937	90.8203	101.843	90.8203	101.954	90.8203	101.896	90.8203	101.953	90.8203	101.933
95.2148	101.706	95.2148	101.709	95.2148	101.713	95.2148	101.723	95.2148	101.73	95.2148	101.744	95.2148	101.757	95.2148	101.771	95.2148	101.79	95.2148	101.8	95.2148	101.827	95.2148	101.826	95.2148	101.863	95.2148	101.847	95.2148	101.894	95.2148	101.858	95.2148	101.917	95.2148	101.857	95.2148	101.928	95.2148	101.843	95.2148	101.923	95.2148	101.815	95.2148	101.903	95.2148	101.776	95.2148	101.867	95.2148	101.73	95.2148	101.819	95.2148	101.681	95.2148	101.763	95.2148	101.637	95.2148	101.705	95.2148	101.604	95.2148	101.653	95.2148	101.587	95.2148	101.613	95.2148	101.59
98.1445	101.549	98.1445	101.564	98.1445	101.55	98.1445	101.596	98.1445	101.569	98.1445	101.641	98.1445	101.603	98.1445	101.696	98.1445	101.65	98.1445	101.756	98.1445	101.706	98.1445	101.818	98.1445	101.767	98.1445	101.876	98.1445	101.828	98.1445	101.926	98.1445	101.883	98.1445	101.964	98.1445	101.928	98.1445	101.988	98.1445	101.96	98.1445	101.997	98.1445	101.976	98.1445	101.992	98.1445	101.977	98.1445	101.975	98.1445	101.965	98.1445	101.95	98.1445	101.943	98.1445	101.922	98.1445	101.918	98.1445	101.897	98.1445	101.894	98.1445	101.88	98.1445	101.878	98.1445	101.873
101.074	101.661	101.074	101.659	101.074	101.679	101.074	101.673	101.074	101.713	101.074	101.701	101.074	101.762	101.074	101.741	101.074	101.821	101.074	101.789	101.074	101.887	101.074	101.84	101.074	101.955	101.074	101.89	101.074	102.021	101.074	101.935	101.074	102.078	101.074	101.971	101.074	102.123	101.074	101.994	101.074	102.152	101.074	102.005	101.074	102.162	101.074	102.003	101.074	102.154	101.074	101.991	101.074	102.13	101.074	101.974	101.074	102.094	101.074	101.956	101.074	102.052	101.074	101.943	101.074	102.01	101.074	101.941	101.074	101.975	101.074	101.951
105.469	101.763	105.469	101.766	105.469	101.777	105.469	101.783	105.469	101.805	105.469	101.813	105.469	101.848	105.469	101.853	105.469	101.902	105.469	101.898	105.469	101.964	105.469	101.945	105.469	102.03	105.469	101.989	105.469	102.093	105.469	102.026	105.469	102.15	105.469	102.053	105.469	102.196	105.469	102.067	105.469	102.226	105.469	102.07	105.469	102.239	105.469	102.061	105.469	102.233	105.469	102.045	105.469	102.211	105.469	102.026	105.469	102.176	105.469	102.009	105.469	102.132	105.469	101.999	105.469	102.087	105.469	102.001	105.469	102.047	105.469	102.018
108.398	101.841	108.398	101.856	108.398	101.843	108.398	101.885	108.398	101.862	108.398	101.927	108.398	101.897	108.398	101.978	108.398	101.944	108.398	102.034	108.398	102	108.398	102.088	108.398	102.061	108.398	102.137	108.398	102.12	108.398	102.177	108.398	102.173	108.398	102.203	108.398	102.214	108.398	102.214	108.398	102.24	108.398	102.21	108.398	102.249	108.398	102.191	108.398	102.24	108.398	102.162	108.398	102.215	108.398	102.127	108.398	102.18	108.398	102.093	108.398	102.139	108.398	102.066	108.398	102.1	108.398	102.051	108.398	102.07	108.398	102.052
112.793	102.075	112.793	102.069	112.793	102.095	112.793	102.074	112.793	102.126	112.793	102.092	112.793	102.167	112.793	102.119	112.793	102.216	112.793	102.152	112.793	102.269	112.793	102.187	112.793	102.321	112.793	102.22	112.793	102.369	112.793	102.245	112.793	102.408	112.793	102.26	112.793	102.432	112.793	102.261	112.793	102.439	112.793	102.246	112.793	102.425	112.793	102.217	112.793	102.391	112.793	102.177	112.793	102.339	112.793	102.132	112.793	102.274	112.793	102.09	112.793	102.204	112.793	102.058	112.793	102.138	112.793	102.044	112.793	102.086	112.793	102.053
117.188	101.93	117.188	101.896	117.188	101.975	117.188	101.874	117.188	102.032	117.188	101.865	117.188	102.098	117.188	101.866	117.188	102.17	117.188	101.874	117.188	102.244	117.188	101.887	117.188	102.316	117.188	101.901	117.188	102.38	117.188	101.912	117.188	102.432	117.188	101.918	117.188	102.467	117.188	101.916	117.188	102.48	117.188	101.905	117.188	102.469	117.188	101.888	117.188	102.432	117.188	101.868	117.188	102.372	117.188	101.852	117.188	102.293	117.188	101.845	117.188	102.201	117.188	101.856	117.188	102.106	117.188	101.887	117.188	102.017	117.188	101.942
120.117	102.115	120.117	102.069	120.117	102.169	120.117	102.031	120.117	102.23	120.117	102.001	120.117	102.298	120.117	101.978	120.117	102.368	120.117	101.96	120.117	102.438	120.117	101.944	120.117	102.503	120.117	101.93	120.117	102.56	120.117	101.913	120.117	102.601	120.117	101.893	120.117	102.624	120.117	101.869	120.117	102.622	120.117	101.843	120.117	102.595	120.117	101.816	120.117	102.541	120.117	101.793	120.117	102.462	120.117	101.78	120.117	102.363	120.117	101.784	120.117	102.251	120.117	101.808	120.117	102.135	120.117	101.857	120.117	102.026	120.117	101.931
124.512	101.906	124.512	101.92	124.512	101.901	124.512	101.942	124.512	101.908	124.512	101.968	124.512	101.925	124.512	101.996	124.512	101.95	124.512	102.019	124.512	101.981	124.512	102.035	124.512	102.012	124.512	102.037	124.512	102.038	124.512	102.023	124.512	102.053	124.512	101.989	124.512	102.051	124.512	101.936	124.512	102.028	124.512	101.863	124.512	101.982	124.512	101.776	124.512	101.911	124.512	101.68	124.512	101.821	124.512	101.585	124.512	101.719	124.512	101.5	124.512	101.615	124.512	101.438	124.512	101.522	124.512	101.406	124.512	101.45	124.512	101.41
128.906	101.499	128.906	101.523	128.906	101.485	128.906	101.557	128.906	101.48	128.906	101.596	128.906	101.484	128.906	101.639	128.906	101.495	128.906	101.679	128.906	101.508	128.906	101.712	128.906	101.519	128.906	101.731	128.906	101.524	128.906	101.73	128.906	101.518	128.906	101.705	128.906	101.495	128.906	101.653	128.906	101.454	128.906	101.574	128.906	101.392	128.906	101.471	128.906	101.311	128.906	101.35	128.906	101.216	128.906	101.223	128.906	101.116	128.906	101.101	128.906	101.022	128.906	100.997	128.906	100.946	128.906	100.925	128.906	100.899	128.906	100.891
133.301	101.243	133.301	101.245	133.301	101.253	133.301	101.261	133.301	101.276	133.301	101.288	133.301	101.31	133.301	101.324	133.301	101.352	133.301	101.365	133.301	101.399	133.301	101.406	133.301	101.446	133.301	101.443	133.301	101.489	133.301	101.469	133.301	101.523	133.301	101.481	133.301	101.541	133.301	101.474	133.301	101.54	133.301	101.448	133.301	101.518	133.301	101.404	133.301	101.476	133.301	101.345	133.301	101.415	133.301	101.28	133.301	101.344	133.301	101.217	133.301	101.269	133.301	101.165	133.301	101.203	133.301	101.134	133.301	101.154	133.301	101.13
139.16	100.993	139.16	100.974	139.16	101.022	139.16	100.966	139.16	101.062	139.16	100.969	139.16	101.111	139.16	100.98	139.16	101.168	139.16	100.999	139.16	101.23	139.16	101.022	139.16	101.293	139.16	101.046	139.16	101.353	139.16	101.065	139.16	101.403	139.16	101.078	139.16	101.439	139.16	101.08	139.16	101.454	139.16	101.071	139.16	101.446	139.16	101.052	139.16	101.413	139.16	101.025	139.16	101.358	139.16	100.996	139.16	101.285	139.16	100.972	139.16	101.203	139.16	100.961	139.16	101.121	139.16	100.968	139.16	101.051	139.16	100.998
143.555	100.819	143.555	100.808	143.555	100.835	143.555	100.803	143.555	100.857	143.555	100.803	143.555	100.884	143.555	100.808	143.555	100.915	143.555	100.815	143.555	100.947	143.555	100.823	143.555	100.979	143.555	100.828	143.555	101.007	143.555	100.826	143.555	101.026	143.555	100.814	143.555	101.032	143.555	100.79	143.555	101.021	143.555	100.753	143.555	100.989	143.555	100.703	143.555	100.936	143.555	100.646	143.555	100.864	143.555	100.587	143.555	100.779	143.555	100.534	143.555	100.69	143.555	100.497	143.555	100.607	143.555	100.484	143.555	100.54	143.555	100.498
147.949	100.605	147.949	100.588	147.949	100.626	147.949	100.575	147.949	100.65	147.949	100.565	147.949	100.676	147.949	100.558	147.949	100.705	147.949	100.553	147.949	100.735	147.949	100.548	147.949	100.763	147.949	100.54	147.949	100.787	147.949	100.526	147.949	100.803	147.949	100.504	147.949	100.805	147.949	100.471	147.949	100.791	147.949	100.427	147.949	100.757	147.949	100.374	147.949	100.701	147.949	100.317	147.949	100.626	147.949	100.263	147.949	100.537	147.949	100.218	147.949	100.441	147.949	100.191	147.949	100.349	147.949	100.19	147.949	100.272	147.949	100.217
153.809	100.512	153.809	100.504	153.809	100.517	153.809	100.495	153.809	100.52	153.809	100.483	153.809	100.521	153.809	100.468	153.809	100.519	153.809	100.448	153.809	100.514	153.809	100.422	153.809	100.504	153.809	100.388	153.809	100.486	153.809	100.342	153.809	100.459	153.809	100.284	153.809	100.42	153.809	100.212	153.809	100.365	153.809	100.127	153.809	100.294	153.809	100.033	153.809	100.207	153.809	99.9354	153.809	100.107	153.809	99.842	153.809	100	153.809	99.7625	153.809	99.8951	153.809	99.7058	153.809	99.8017	153.809	99.6795	153.809	99.7299	153.809	99.6876
159.668	100.303	159.668	100.294	159.668	100.311	159.668	100.284	159.668	100.317	159.668	100.273	159.668	100.322	159.668	100.26	159.668	100.325	159.668	100.244	159.668	100.323	159.668	100.221	159.668	100.315	159.668	100.19	159.668	100.298	159.668	100.146	159.668	100.268	159.668	100.086	159.668	100.222	159.668	100.01	159.668	100.157	159.668	99.9188	159.668	100.072	159.668	99.8149	159.668	99.9694	159.668	99.7051	159.668	99.8529	159.668	99.5983	159.668	99.7309	159.668	99.5048	159.668	99.6135	159.668	99.4352	159.668	99.5123	159.668	99.3979	159.668	99.438	159.668	99.3986
165.527	100.064	165.527	100.058	165.527	100.069	165.527	100.052	165.527	100.074	165.527	100.045	165.527	100.078	165.527	100.036	165.527	100.081	165.527	100.024	165.527	100.082	165.527	100.005	165.527	100.078	165.527	99.9782	165.527	100.067	165.527	99.9395	165.527	100.046	165.527	99.8864	165.527	100.01	165.527	99.8176	165.527	99.9576	165.527	99.7339	165.527	99.8861	165.527	99.6385	165.527	99.7967	165.527	99.5377	165.527	99.6935	165.527	99.4401	165.527	99.5834	165.527	99.3556	165.527	99.4757	165.527	99.2942	165.527	99.3809	165.527	99.2638	165.527	99.3093	165.527	99.2688
171.387	99.7221	171.387	99.7041	171.387	99.7405	171.387	99.6876	171.387	99.7583	171.387	99.6734	171.387	99.7748	171.387	99.6617	171.387	99.7891	171.387	99.6515	171.387	99.8002	171.387	99.6408	171.387	99.8062	171.387	99.6262	171.387	99.8043	171.387	99.6037	171.387	99.7912	171.387	99.5695	171.387	99.7632	171.387	99.521	171.387	99.7171	171.387	99.4577	171.387	99.6515	171.387	99.3818	171.387	99.5673	171.387	99.2984	171.387	99.4689	171.387	99.2153	171.387	99.3633	171.387	99.1419	171.387	99.2602	171.387	99.0876	171.387	99.1701	171.387	99.0602	171.387	99.1026	171.387	99.0649
177.246	99.5365	177.246	99.5182	177.246	99.5494	177.246	99.4949	177.246	99.5574	177.246	99.4674	177.246	99.5609	177.246	99.4365	177.246	99.561	177.246	99.4027	177.246	99.558	177.246	99.3659	177.246	99.5515	177.246	99.3248	177.246	99.5398	177.246	99.2776	177.246	99.5197	177.246	99.2223	177.246	99.4876	177.246	99.1572	177.246	99.4395	177.246	99.0823	177.246	99.3729	177.246	99	177.246	99.2877	177.246	98.9153	177.246	99.1867	177.246	98.8355	177.246	99.0762	177.246	98.7695	177.246	98.9653	177.246	98.7261	177.246	98.8645	177.246	98.7122	177.246	98.7839	177.246	98.7316
183.105	99.1977	183.105	99.1899	183.105	99.1972	183.105	99.1741	183.105	99.1889	183.105	99.1511	183.105	99.174	183.105	99.1218	183.105	99.1543	183.105	99.0868	183.105	99.1313	183.105	99.046	183.105	99.1062	183.105	98.9986	183.105	99.0788	183.105	98.9434	183.105	99.0472	183.105	98.8792	183.105	99.0085	183.105	98.8056	183.105	98.9589	183.105	98.7235	183.105	98.8955	183.105	98.6356	183.105	98.8171	183.105	98.5468	183.105	98.7257	183.105	98.4637	183.105	98.6267	183.105	98.3939	183.105	98.5283	183.105	98.345	183.105	98.4405	183.105	98.3232	183.105	98.3727	183.105	98.3324
188.965	99.0628	188.965	99.0491	188.965	99.0645	188.965	99.0247	188.965	99.0539	188.965	98.991	188.965	99.0315	188.965	98.9492	188.965	98.9984	188.965	98.9003	188.965	98.9562	188.965	98.8444	188.965	98.9066	188.965	98.7811	188.965	98.8509	188.965	98.7101	188.965	98.7896	188.965	98.6312	188.965	98.7224	188.965	98.5457	188.965	98.6489	188.965	98.456	188.965	98.5692	188.965	98.366	188.965	98.4845	188.965	98.2807	188.965	98.3972	188.965	98.2056	188.965	98.3118	188.965	98.1457	188.965	98.2334	188.965	98.1051	188.965	98.1675	188.965	98.0866	188.965	98.1189	188.965	98.0913
196.289	99.0178	196.289	98.9952	196.289	99.0281	196.289	98.9624	196.289	99.0251	196.289	98.9219	196.289	99.0088	196.289	98.8759	196.289	98.9797	196.289	98.8257	196.289	98.939	196.289	98.771	196.289	98.8876	196.289	98.7101	196.289	98.8258	196.289	98.6399	196.289	98.7531	196.289	98.5577	196.289	98.6689	196.289	98.4619	196.289	98.5728	196.289	98.3537	196.289	98.4654	196.289	98.2374	196.289	98.3492	196.289	98.1201	196.289	98.2289	196.289	98.0111	196.289	98.1113	196.289	97.9199	196.289	98.0041	196.289	97.8544	196.289	97.9155	196.289	97.82	196.289	97.8522	196.289	97.8194
203.613	98.771	203.613	98.742	203.613	98.7807	203.613	98.6954	203.613	98.7708	203.613	98.6337	203.613	98.7425	203.613	98.5604	203.613	98.6978	203.613	98.4784	203.613	98.6397	203.613	98.3899	203.613	98.571	203.613	98.2962	203.613	98.4936	203.613	98.1977	203.613	98.4089	203.613	98.0945	203.613	98.3173	203.613	97.9875	203.613	98.2187	203.613	97.879	203.613	98.1132	203.613	97.773	203.613	98.0022	203.613	97.6749	203.613	97.8887	203.613	97.5907	203.613	97.7775	203.613	97.5256	203.613	97.6748	203.613	97.484	203.613	97.5876	203.613	97.4687	203.613	97.5217	203.613	97.4814
210.938	98.6423	210.938	98.6075	210.938	98.6564	210.938	98.5533	210.938	98.6499	210.938	98.4826	210.938	98.6246	210.938	98.3988	210.938	98.5833	210.938	98.305	210.938	98.5291	210.938	98.2039	210.938	98.4642	210.938	98.0965	210.938	98.3895	210.938	97.9827	210.938	98.304	210.938	97.8622	210.938	98.2054	210.938	97.7353	210.938	98.0916	210.938	97.6044	210.938	97.9626	210.938	97.4747	210.938	97.8212	210.938	97.3542	210.938	97.6739	210.938	97.2517	210.938	97.5293	210.938	97.1751	210.938	97.3968	210.938	97.1301	210.938	97.2846	210.938	97.1192	210.938	97.1985	210.938	97.1425
218.262	98.5237	218.262	98.5014	218.262	98.525	218.262	98.4602	218.262	98.5048	218.262	98.4029	218.262	98.4641	218.262	98.3325	218.262	98.4053	218.262	98.2516	218.262	98.3322	218.262	98.1617	218.262	98.2489	218.262	98.063	218.262	98.1588	218.262	97.955	218.262	98.0641	218.262	97.8372	218.262	97.9651	218.262	97.7105	218.262	97.8608	218.262	97.5782	218.262	97.7499	218.262	97.4462	218.262	97.6325	218.262	97.3224	218.262	97.5108	218.262	97.2155	218.262	97.3902	218.262	97.1327	218.262	97.2781	218.262	97.0791	218.262	97.1827	218.262	97.0574	218.262	97.1111	218.262	97.0684
225.586	98.361	225.586	98.3512	225.586	98.3464	225.586	98.3198	225.586	98.3067	225.586	98.2704	225.586	98.243	225.586	98.2068	225.586	98.1584	225.586	98.1323	225.586	98.058	225.586	98.0489	225.586	97.9481	225.586	97.9567	225.586	97.835	225.586	97.8552	225.586	97.7242	225.586	97.7433	225.586	97.6197	225.586	97.6217	225.586	97.5231	225.586	97.4936	225.586	97.4346	225.586	97.366	225.586	97.3534	225.586	97.2478	225.586	97.2785	225.586	97.1486	225.586	97.2098	225.586	97.0756	225.586	97.1478	225.586	97.0318	225.586	97.0943	225.586	97.0159	225.586	97.0519	225.586	97.0243
232.91	98.2909	232.91	98.2615	232.91	98.2888	232.91	98.2055	232.91	98.2526	232.91	98.1298	232.91	98.1818	232.91	98.042	232.91	98.0783	232.91	97.9488	232.91	97.9457	232.91	97.8552	232.91	97.7888	232.91	97.7632	232.91	97.6136	232.91	97.6712	232.91	97.4268	232.91	97.5758	232.91	97.2363	232.91	97.4728	232.91	97.0514	232.91	97.36	232.91	96.8825	232.91	97.2382	232.91	96.7398	232.91	97.1122	232.91	96.6318	232.91	96.9887	232.91	96.5626	232.91	96.8743	232.91	96.532	232.91	96.7734	232.91	96.5353	232.91	96.6879	232.91	96.5661	232.91	96.6183
241.699	98.1103	241.699	98.0408	241.699	98.1503	241.699	97.9465	241.699	98.1582	241.699	97.8341	241.699	98.1337	241.699	97.7115	241.699	98.0781	241.699	97.5862	241.699	97.994	241.699	97.464	241.699	97.8841	241.699	97.3482	241.699	97.7507	241.699	97.2388	241.699	97.5963	241.699	97.1337	241.699	97.4235	241.699	97.03	241.699	97.2369	241.699	96.9266	241.699	97.0444	241.699	96.8247	241.699	96.8577	241.699	96.7279	241.699	96.6911	241.699	96.6406	241.699	96.5579	241.699	96.5659	241.699	96.4666	241.699	96.5045	241.699	96.4181	241.699	96.456	241.699	96.4062	241.699	96.4217
250.488	98.0017	250.488	97.9285	250.488	98.0395	250.488	97.8246	250.488	98.0402	250.488	97.6967	250.488	98.0046	250.488	97.5526	250.488	97.9361	250.488	97.4006	250.488	97.8398	250.488	97.2478	250.488	97.7217	250.488	97.0998	250.488	97.5872	250.488	96.9595	250.488	97.4406	250.488	96.8274	250.488	97.2846	250.488	96.7024	250.488	97.1209	250.488	96.5833	250.488	96.9511	250.488	96.4697	250.488	96.7785	250.488	96.364	250.488	96.609	250.488	96.2703	250.488	96.4516	250.488	96.1941	250.488	96.3165	250.488	96.1398	250.488	96.2125	250.488	96.1112	250.488	96.1442	250.488	96.1114
259.277	97.7925	259.277	97.6909	259.277	97.8565	259.277	97.5566	259.277	97.882	259.277	97.3983	259.277	97.8719	259.277	97.2283	259.277	97.8326	259.277	97.0609	259.277	97.7729	259.277	96.9102	259.277	97.7015	259.277	96.7866	259.277	97.6259	259.277	96.6945	259.277	97.55	259.277	96.631	259.277	97.4741	259.277	96.5884	259.277	97.396	259.277	96.5576	259.277	97.3129	259.277	96.5326	259.277	97.2226	259.277	96.5121	259.277	97.1248	259.277	96.4996	259.277	97.0207	259.277	96.5009	259.277	96.9139	259.277	96.5214	259.277	96.809	259.277	96.564	259.277	96.7119	259.277	96.6286
268.066	97.4844	268.066	97.3755	268.066	97.5292	268.066	97.208	268.066	97.508	268.066	96.9905	268.066	97.4227	268.066	96.7358	268.066	97.2797	268.066	96.4608	268.066	97.0906	268.066	96.1864	268.066	96.873	268.066	95.936	268.066	96.6491	268.066	95.7318	268.066	96.4437	268.066	95.5901	268.066	96.2795	268.066	95.5172	268.066	96.171	268.066	95.5091	268.066	96.12	268.066	95.5532	268.066	96.1155	268.066	95.6334	268.066	96.1383	268.066	95.7337	268.066	96.1677	268.066	95.8408	268.066	96.1871	268.066	95.944	268.066	96.1861	268.066	96.0356	268.066	96.1602	268.066	96.1092
276.855	97.7534	276.855	97.7299	276.855	97.7361	276.855	97.6538	276.855	97.6893	276.855	97.5155	276.855	97.621	276.855	97.3106	276.855	97.5342	276.855	97.0412	276.855	97.4271	276.855	96.7174	276.855	97.2957	276.855	96.3588	276.855	97.137	276.855	95.9944	276.855	96.9519	276.855	95.66	276.855	96.7481	276.855	95.3915	276.855	96.5397	276.855	95.2136	276.855	96.3453	276.855	95.1322	276.855	96.1806	276.855	95.1336	276.855	96.0519	276.855	95.1933	276.855	95.9534	276.855	95.2865	276.855	95.8713	276.855	95.3941	276.855	95.7916	276.855	95.504	276.855	95.7053	276.855	95.6091
287.109	98.1406	287.109	98.1478	287.109	98.0689	287.109	98.0913	287.109	97.9365	287.109	97.9754	287.109	97.753	287.109	97.8056	287.109	97.5328	287.109	97.5879	287.109	97.293	287.109	97.3288	287.109	97.0498	287.109	97.0369	287.109	96.8153	287.109	96.7244	287.109	96.5958	287.109	96.4089	287.109	96.393	287.109	96.1135	287.109	96.2074	287.109	95.8641	287.109	96.0412	287.109	95.6829	287.109	95.8995	287.109	95.5799	287.109	95.7879	287.109	95.547	287.109	95.7092	287.109	95.5603	287.109	95.6618	287.109	95.5907	287.109	95.6397	287.109	95.6165	287.109	95.633	287.109	95.6291
297.363	98.1	297.363	98.0136	297.363	98.1088	297.363	97.8638	297.363	98.0304	297.363	97.6666	297.363	97.8613	297.363	97.438	297.363	97.6056	297.363	97.1906	297.363	97.2752	297.363	96.9322	297.363	96.8901	297.363	96.6664	297.363	96.4782	297.363	96.3961	297.363	96.0734	297.363	96.1296	297.363	95.7124	297.363	95.8846	297.363	95.4296	297.363	95.6877	297.363	95.251	297.363	95.5656	297.363	95.1881	297.363	95.5309	297.363	95.2336	297.363	95.5727	297.363	95.3592	297.363	95.6601	297.363	95.5217	297.363	95.7539	297.363	95.6756	297.363	95.8199	297.363	95.7858	297.363	95.8345
307.617	98.103	307.617	98.0473	307.617	98.1159	307.617	97.9474	307.617	98.0858	307.617	97.801	307.617	98.0107	307.617	97.608	307.617	97.8884	307.617	97.3728	307.617	97.7182	307.617	97.1055	307.617	97.502	307.617	96.8215	307.617	97.2447	307.617	96.5373	307.617	96.9545	307.617	96.2672	307.617	96.6437	307.617	96.0215	307.617	96.3293	307.617	95.8088	307.617	96.0345	307.617	95.6405	307.617	95.7872	307.617	95.5316	307.617	95.616	307.617	95.4937	307.617	95.5385	307.617	95.5222	307.617	95.5477	307.617	95.5912	307.617	95.6081	307.617	95.6602	307.617	95.6698	307.617	95.6919
319.336	97.8757	319.336	97.8532	319.336	97.843	319.336	97.7782	319.336	97.7531	319.336	97.6531	319.336	97.606	319.336	97.479	319.336	97.4041	319.336	97.2558	319.336	97.1544	319.336	96.9832	319.336	96.8699	319.336	96.6653	319.336	96.5713	319.336	96.315	319.336	96.2847	319.336	95.9587	319.336	96.0375	319.336	95.6343	319.336	95.8485	319.336	95.3813	319.336	95.7216	319.336	95.2253	319.336	95.6452	319.336	95.1675	319.336	95.6009	319.336	95.1869	319.336	95.5731	319.336	95.2529	319.336	95.5532	319.336	95.3364	319.336	95.5359	319.336	95.4148	319.336	95.513	319.336	95.4747
329.59	98.0939	329.59	98.0682	329.59	98.0576	329.59	97.9857	329.59	97.9568	329.59	97.8543	329.59	97.7921	329.59	97.6827	329.59	97.5658	329.59	97.4778	329.59	97.2812	329.59	97.2426	329.59	96.9425	329.59	96.9754	329.59	96.5568	329.59	96.6734	329.59	96.1379	329.59	96.339	329.59	95.713	329.59	95.988	329.59	95.3256	329.59	95.6533	329.59	95.0292	329.59	95.3786	329.59	94.8649	329.59	95.2001	329.59	94.8372	329.59	95.126	329.59	94.9098	329.59	95.1329	329.59	95.0267	329.59	95.1792	329.59	95.1381	329.59	95.2249	329.59	95.2136	329.59	95.2415
341.309	97.7649	341.309	97.7081	341.309	97.7509	341.309	97.5844	341.309	97.6679	341.309	97.403	341.309	97.5224	341.309	97.1785	341.309	97.3257	341.309	96.9299	341.309	97.0912	341.309	96.6782	341.309	96.8323	341.309	96.4419	341.309	96.5585	341.309	96.2318	341.309	96.2738	341.309	96.0482	341.309	95.979	341.309	95.8841	341.309	95.678	341.309	95.7326	341.309	95.3865	341.309	95.5959	341.309	95.136	341.309	95.4864	341.309	94.9653	341.309	95.4169	341.309	94.9015	341.309	95.3866	341.309	94.9412	341.309	95.3745	341.309	95.0499	341.309	95.349	341.309	95.1785	341.309	95.2851
353.027	98.0719	353.027	97.9588	353.027	98.096	353.027	97.7681	353.027	98.0216	353.027	97.5121	353.027	97.8428	353.027	97.2035	353.027	97.5589	353.027	96.8566	353.027	97.1774	353.027	96.4895	353.027	96.7166	353.027	96.1259	353.027	96.2077	353.027	95.7952	353.027	95.6955	353.027	95.5278	353.027	95.2339	353.027	95.3456	353.027	94.8753	353.027	95.2533	353.027	94.6553	353.027	95.2365	353.027	94.5792	353.027	95.2675	353.027	94.6214	353.027	95.3164	353.027	94.7395	353.027	95.3579	353.027	94.8916	353.027	95.3738	353.027	95.0465	353.027	95.3522	353.027	95.1833	353.027	95.288
366.211	98.761	366.211	98.6059	366.211	98.8164	366.211	98.3566	366.211	98.7705	366.211	98.0226	366.211	98.6238	366.211	97.6176	366.211	98.3783	366.211	97.1576	366.211	98.0364	366.211	96.6602	366.211	97.6022	366.211	96.1476	366.211	97.0842	366.211	95.6516	366.211	96.4992	366.211	95.2183	366.211	95.8782	366.211	94.9015	366.211	95.2716	366.211	94.7414	366.211	94.7538	366.211	94.7418	366.211	94.414	366.211	94.8668	366.211	94.3198	366.211	95.0594	366.211	94.4662	366.211	95.2623	366.211	94.7644	366.211	95.4274	366.211	95.0922	366.211	95.5156	366.211	95.3526	366.211	95.4965
379.395	99.017	379.395	98.9087	379.395	99.056	379.395	98.7282	379.395	99.0262	379.395	98.4718	379.395	98.9258	379.395	98.1378	379.395	98.7517	379.395	97.731	379.395	98.5002	379.395	97.2671	379.395	98.1689	379.395	96.7754	379.395	97.7597	379.395	96.2966	379.395	97.2831	379.395	95.8768	379.395	96.7638	379.395	95.5584	379.395	96.2449	379.395	95.3731	379.395	95.7862	379.395	95.332	379.395	95.4497	379.395	95.4174	379.395	95.275	379.395	95.5812	379.395	95.2615	379.395	95.7581	379.395	95.372	379.395	95.8877	379.395	95.5497	379.395	95.9302	379.395	95.7346	379.395	95.874
392.578	98.712	392.578	98.6104	392.578	98.7387	392.578	98.433	392.578	98.6901	392.578	98.1784	392.578	98.5648	392.578	97.8466	392.578	98.362	392.578	97.4406	392.578	98.0823	392.578	96.9691	392.578	97.7287	392.578	96.4509	392.578	97.307	392.578	95.919	392.578	96.8266	392.578	95.4246	392.578	96.3054	392.578	95.0322	392.578	95.7789	392.578	94.8019	392.578	95.3104	392.578	94.7621	392.578	94.985	392.578	94.8925	392.578	94.8714	392.578	95.1313	392.578	94.9708	392.578	95.4004	392.578	95.2078	392.578	95.6299	392.578	95.476	392.578	95.7697	392.578	95.6874	392.578	95.7913
405.762	98.5828	405.762	98.4795	405.762	98.5969	405.762	98.2862	405.762	98.5229	405.762	98.0015	405.762	98.3618	405.762	97.6219	405.762	98.1143	405.762	97.1442	405.762	97.7813	405.762	96.5716	405.762	97.3673	405.762	95.9264	405.762	96.8836	405.762	95.2642	405.762	96.3529	405.762	94.6788	405.762	95.8106	405.762	94.2774	405.762	95.3055	405.762	94.1279	405.762	94.9001	405.762	94.2213	405.762	94.6651	405.762	94.4887	405.762	94.653	405.762	94.8458	405.762	94.854	405.762	95.2169	405.762	95.1813	405.762	95.5383	405.762	95.513	405.762	95.7569	405.762	95.7484	405.762	95.8334
420.41	99.0519	420.41	98.9516	420.41	99.0665	420.41	98.7669	420.41	98.9954	420.41	98.4996	420.41	98.8386	420.41	98.1511	420.41	98.595	420.41	97.7188	420.41	98.2608	420.41	97.1944	420.41	97.8287	420.41	96.5676	420.41	97.2889	420.41	95.8408	420.41	96.637	420.41	95.0566	420.41	95.8889	420.41	94.3298	420.41	95.1018	420.41	93.84	420.41	94.3884	420.41	93.7299	420.41	93.8953	420.41	93.9756	420.41	93.729	420.41	94.4065	420.41	93.8821	420.41	94.8402	420.41	94.2431	420.41	95.1585	420.41	94.6669	420.41	95.3038	420.41	95.032	420.41	95.2581
435.059	98.7784	435.059	98.6832	435.059	98.8051	435.059	98.5217	435.059	98.7615	435.059	98.2928	435.059	98.6467	435.059	97.9896	435.059	98.4593	435.059	97.6002	435.059	98.1938	435.059	97.1136	435.059	97.8388	435.059	96.5277	435.059	97.3768	435.059	95.8581	435.059	96.7906	435.059	95.1498	435.059	96.0766	435.059	94.4922	435.059	95.2701	435.059	94.0212	435.059	94.4796	435.059	93.8698	435.059	93.8971	435.059	94.0676	435.059	93.7111	435.059	94.5022	435.059	93.946	435.059	94.9972	435.059	94.4358	435.059	95.4032	435.059	94.9689	435.059	95.6267	435.059	95.3931	435.059	95.6243
451.172	99.264	451.172	99.2009	451.172	99.2473	451.172	99.055	451.172	99.1539	451.172	98.8243	451.172	98.9852	451.172	98.5057	451.172	98.7403	451.172	98.0914	451.172	98.4159	451.172	97.5657	451.172	98.0078	451.172	96.9084	451.172	97.5115	451.172	96.1085	451.172	96.9235	451.172	95.1883	451.172	96.2444	451.172	94.2397	451.172	95.4888	451.172	93.4533	451.172	94.7095	451.172	93.0653	451.172	94.0289	451.172	93.174	451.172	93.6292	451.172	93.6305	451.172	93.6319	451.172	94.1823	451.172	93.9619	451.172	94.6395	451.172	94.405	451.172	94.9068	451.172	94.7694	451.172	94.9497
465.82	99.0289	465.82	98.9519	465.82	99.0282	465.82	98.7947	465.82	98.9533	465.82	98.5564	465.82	98.8074	465.82	98.2377	465.82	98.5925	465.82	97.838	465.82	98.3077	465.82	97.3532	465.82	97.9458	465.82	96.7743	465.82	97.4911	465.82	96.0942	465.82	96.9225	465.82	95.3203	465.82	96.2238	465.82	94.496	465.82	95.4061	465.82	93.7306	465.82	94.5391	465.82	93.2117	465.82	93.7766	465.82	93.1258	465.82	93.3277	465.82	93.4786	465.82	93.3236	465.82	94.0522	465.82	93.6901	465.82	94.5807	465.82	94.2082	465.82	94.8909	465.82	94.6639	465.82	94.9155
483.398	98.9936	483.398	98.9074	483.398	99.0186	483.398	98.7674	483.398	98.9727	483.398	98.5749	483.398	98.8456	483.398	98.3214	483.398	98.6273	483.398	97.9873	483.398	98.31	483.398	97.545	483.398	97.8889	483.398	96.9648	483.398	97.3623	483.398	96.225	483.398	96.7283	483.398	95.3299	483.398	95.9842	483.398	94.3455	483.398	95.137	483.398	93.4458	483.398	94.237	483.398	92.8932	483.398	93.4297	483.398	92.8524	483.398	92.9599	483.398	93.2179	483.398	93.006	483.398	93.7404	483.398	93.4633	483.398	94.2212	483.398	94.0323	483.398	94.5444	483.398	94.4626	483.398	94.6383
499.512	98.741	499.512	98.6676	499.512	98.7524	499.512	98.5364	499.512	98.703	499.512	98.3567	499.512	98.5971	499.512	98.1355	499.512	98.4363	499.512	97.8677	499.512	98.2157	499.512	97.5297	499.512	97.921	499.512	97.081	499.512	97.5292	499.512	96.4756	499.512	97.0105	499.512	95.6821	499.512	96.3337	499.512	94.716	499.512	95.4816	499.512	93.6965	499.512	94.4861	499.512	92.899	499.512	93.4885	499.512	92.6531	499.512	92.7696	499.512	93.0038	499.512	92.5961	499.512	93.6283	499.512	92.9397	499.512	94.1696	499.512	93.5153	499.512	94.4384	499.512	94.0515	499.512	94.3879
517.09	98.7372	517.09	98.659	517.09	98.7463	517.09	98.5068	517.09	98.6946	517.09	98.2778	517.09	98.5941	517.09	97.9698	517.09	98.4559	517.09	97.5804	517.09	98.282	517.09	97.1059	517.09	98.0576	517.09	96.5404	517.09	97.749	517.09	95.8786	517.09	97.3101	517.09	95.1234	517.09	96.6959	517.09	94.3044	517.09	95.8825	517.09	93.5089	517.09	94.8972	517.09	92.9107	517.09	93.8698	517.09	92.717	517.09	93.073	517.09	92.985	517.09	92.8106	517.09	93.5256	517.09	93.1113	517.09	94.0633	517.09	93.6771	517.09	94.4012	517.09	94.1835	517.09	94.4462
536.133	98.2511	536.133	98.182	536.133	98.2202	536.133	98.0307	536.133	98.0848	536.133	97.8207	536.133	97.8539	536.133	97.5662	536.133	97.5466	536.133	97.2586	536.133	97.1874	536.133	96.8628	536.133	96.8023	536.133	96.3295	536.133	96.4084	536.133	95.6172	536.133	95.9976	536.133	94.7221	536.133	95.5283	536.133	93.7135	536.133	94.9467	536.133	92.7711	536.133	94.2444	536.133	92.1679	536.133	93.5292	536.133	92.116	536.133	93.0478	536.133	92.5756	536.133	93.0307	536.133	93.2931	536.133	93.4406	536.133	93.991	536.133	94.0049	536.133	94.472	536.133	94.4558	536.133	94.6329
555.176	99.0819	555.176	98.9587	555.176	99.0939	555.176	98.7278	555.176	99.0026	555.176	98.406	555.176	98.8238	555.176	98.0235	555.176	98.5772	555.176	97.613	555.176	98.2774	555.176	97.1856	555.176	97.9241	555.176	96.7068	555.176	97.4945	555.176	96.0984	555.176	96.9475	555.176	95.2747	555.176	96.2368	555.176	94.1992	555.176	95.324	555.176	92.9663	555.176	94.1912	555.176	91.9119	555.176	92.8875	555.176	91.5323	555.176	91.6702	555.176	91.9417	555.176	91.1067	555.176	92.6986	555.176	91.5291	555.176	93.36	555.176	92.4531	555.176	93.7186	555.176	93.2624	555.176	93.697
574.219	99.6899	574.219	99.6104	574.219	99.6658	574.219	99.436	574.219	99.5451	574.219	99.1875	574.219	99.3458	574.219	98.8853	574.219	99.0877	574.219	98.5358	574.219	98.7835	574.219	98.1235	574.219	98.4337	574.219	97.6136	574.219	98.0249	574.219	96.9573	574.219	97.53	574.219	96.0996	574.219	96.9079	574.219	94.9987	574.219	96.1117	574.219	93.682	574.219	95.1223	574.219	92.3757	574.219	94.0138	574.219	91.6166	574.219	93.0283	574.219	91.8391	574.219	92.5213	574.219	92.7096	574.219	92.6547	574.219	93.585	574.219	93.2065	574.219	94.102	574.219	93.8049	574.219	94.159
594.727	99.2649	594.727	99.1225	594.727	99.2731	594.727	98.8657	594.727	99.1406	594.727	98.526	594.727	98.8816	594.727	98.1466	594.727	98.5385	594.727	97.7701	594.727	98.1753	594.727	97.4106	594.727	97.8496	594.727	97.0359	594.727	97.5727	594.727	96.5875	594.727	97.2918	594.727	96.0193	594.727	96.9119	594.727	95.3118	594.727	96.3365	594.727	94.4642	594.727	95.5046	594.727	93.5287	594.727	94.4351	594.727	92.7334	594.727	93.323	594.727	92.4953	594.727	92.6284	594.727	92.9582	594.727	92.7559	594.727	93.7154	594.727	93.4574	594.727	94.2959	594.727	94.1449	594.727	94.4588
615.234	100.338	615.234	100.166	615.234	100.346	615.234	99.8472	615.234	100.178	615.234	99.4104	615.234	99.8335	615.234	98.8917	615.234	99.3298	615.234	98.3349	615.234	98.7094	615.234	97.7766	615.234	98.041	615.234	97.2193	615.234	97.4011	615.234	96.6151	615.234	96.8387	615.234	95.8962	615.234	96.3415	615.234	95.0372	615.234	95.8362	615.234	94.0993	615.234	95.2357	615.234	93.2235	615.234	94.5084	615.234	92.5842	615.234	93.7345	615.234	92.3263	615.234	93.1	615.234	92.4681	615.234	92.7851	615.234	92.8258	615.234	92.8135	615.234	93.1228	615.234	93.0249	615.234	93.185
637.207	100.603	637.207	100.494	637.207	100.605	637.207	100.281	637.207	100.503	637.207	99.9677	637.207	100.307	637.207	99.5581	637.207	100.029	637.207	99.0603	637.207	99.6721	637.207	98.4942	637.207	99.229	637.207	97.8783	637.207	98.6934	637.207	97.2001	637.207	98.0639	637.207	96.4053	637.207	97.3461	637.207	95.4509	637.207	96.5585	637.207	94.4291	637.207	95.7453	637.207	93.6703	637.207	94.9988	637.207	93.5377	637.207	94.4776	637.207	93.97	637.207	94.3489	637.207	94.591	637.207	94.6176	637.207	95.1311	637.207	95.0683	637.207	95.4811	637.207	95.4429	637.207	95.5926
659.18	100.905	659.18	100.731	659.18	100.926	659.18	100.426	659.18	100.791	659.18	100.026	659.18	100.515	659.18	99.5615	659.18	100.126	659.18	99.0458	659.18	99.661	659.18	98.469	659.18	99.1503	659.18	97.8102	659.18	98.6082	659.18	97.0537	659.18	98.0239	659.18	96.206	659.18	97.3686	659.18	95.3217	659.18	96.6193	659.18	94.5408	659.18	95.7987	659.18	94.0954	659.18	95.0316	659.18	94.1819	659.18	94.5798	659.18	94.7554	659.18	94.6929	659.18	95.5429	659.18	95.2971	659.18	96.2566	659.18	96.0343	659.18	96.7147	659.18	96.5951	659.18	96.8344
682.617	100.864	682.617	100.747	682.617	100.843	682.617	100.5	682.617	100.688	682.617	100.145	682.617	100.397	682.617	99.7196	682.617	99.9771	682.617	99.2517	682.617	99.4585	682.617	98.7414	682.617	98.9016	682.617	98.1585	682.617	98.3602	682.617	97.4527	682.617	97.823	682.617	96.5737	682.617	97.2031	682.617	95.5148	682.617	96.407	682.617	94.4138	682.617	95.4482	682.617	93.6831	682.617	94.5577	682.617	93.8253	682.617	94.1505	682.617	94.7697	682.617	94.4625	682.617	95.928	682.617	95.282	682.617	96.8495	682.617	96.2199	682.617	97.3499	682.617	96.979	682.617	97.3848
707.52	101.488	707.52	101.314	707.52	101.475	707.52	100.99	707.52	101.257	707.52	100.545	707.52	100.849	707.52	100.003	707.52	100.308	707.52	99.401	707.52	99.7028	707.52	98.7822	707.52	99.0871	707.52	98.1535	707.52	98.4856	707.52	97.4419	707.52	97.8952	707.52	96.5188	707.52	97.2653	707.52	95.2826	707.52	96.4715	707.52	93.8091	707.52	95.369	707.52	92.655	707.52	94.0274	707.52	92.7859	707.52	93.1421	707.52	94.1299	707.52	93.596	707.52	95.651	707.52	94.8992	707.52	96.7535	707.52	96.1189	707.52	97.3044	707.52	96.9412	707.52	97.344
732.422	101.785	732.422	101.518	732.422	101.816	732.422	101.054	732.422	101.605	732.422	100.449	732.422	101.172	732.422	99.7638	732.422	100.551	732.422	99.0349	732.422	99.7805	732.422	98.291	732.422	98.9005	732.422	97.5495	732.422	97.945	732.422	96.7701	732.422	96.9387	732.422	95.831	732.422	95.916	732.422	94.6385	732.422	94.9341	732.422	93.3576	732.422	94.0237	732.422	92.5875	732.422	93.1905	732.422	92.8772	732.422	92.7169	732.422	93.9394	732.422	93.2847	732.422	95.1851	732.422	94.8031	732.422	96.286	732.422	96.297	732.422	97.0757	732.422	97.1973	732.422	97.4236
757.324	101.204	757.324	101.014	757.324	101.247	757.324	100.651	757.324	101.167	757.324	100.122	757.324	100.964	757.324	99.4688	757.324	100.615	757.324	98.719	757.324	100.103	757.324	97.8238	757.324	99.4231	757.324	96.6631	757.324	98.5636	757.324	95.1138	757.324	97.4693	757.324	93.1042	757.324	96.0166	757.324	90.6886	757.324	94.0374	757.324	88.5581	757.324	91.4445	757.324	88.7522	757.324	88.7356	757.324	91.0901	757.324	87.8422	757.324	93.3787	757.324	89.4605	757.324	94.9525	757.324	91.7223	757.324	95.8452	757.324	93.6787	757.324	96.1566	757.324	95.0941	757.324	95.9148
785.156	100.012	785.156	100.048	785.156	99.8927	785.156	100.016	785.156	99.6957	785.156	99.9225	785.156	99.4608	785.156	99.7505	785.156	99.2316	785.156	99.4837	785.156	99.0153	785.156	99.1196	785.156	98.7691	785.156	98.6243	785.156	98.4183	785.156	97.8633	785.156	97.877	785.156	96.5712	785.156	97.0469	785.156	94.3522	785.156	95.7994	785.156	90.6156	785.156	93.9759	785.156	84.7746	785.156	91.5106	785.156	83.9395	785.156	89.0985	785.156	88.5515	785.156	88.8847	785.156	91.3754	785.156	90.594	785.156	92.973	785.156	92.2458	785.156	93.764	785.156	93.3501	785.156	93.8725
811.523	99.2777	811.523	99.0367	811.523	99.298	811.523	98.6863	811.523	99.0566	811.523	98.383	811.523	98.6094	811.523	98.2629	811.523	98.1188	811.523	98.3395	811.523	97.7875	811.523	98.4867	811.523	97.7007	811.523	98.5145	811.523	97.7334	811.523	98.217	811.523	97.6391	811.523	97.3752	811.523	97.1745	811.523	95.7275	811.523	96.1104	811.523	92.8547	811.523	94.152	811.523	88.2361	811.523	90.9216	811.523	86.8862	811.523	87.5915	811.523	91.7078	811.523	89.924	811.523	94.9003	811.523	93.6159	811.523	96.5594	811.523	95.8965	811.523	97.2998	811.523	97.0546	811.523	97.4528
840.82	100.861	840.82	100.682	840.82	100.769	840.82	100.196	840.82	100.438	840.82	99.4378	840.82	99.881	840.82	98.6102	840.82	99.135	840.82	98.0522	840.82	98.3194	840.82	97.9186	840.82	97.6418	840.82	97.9804	840.82	97.2663	840.82	97.8948	840.82	97.129	840.82	97.3929	840.82	96.9359	840.82	96.1679	840.82	96.311	840.82	93.6602	840.82	94.8553	840.82	88.5928	840.82	92.0164	840.82	82.299	840.82	86.9056	840.82	89.8782	840.82	85.3666	840.82	94.3165	840.82	91.3246	840.82	96.6045	840.82	95.0162	840.82	97.6782	840.82	96.9969	840.82	97.8123
870.117	100.896	870.117	100.575	870.117	100.951	870.117	100.019	870.117	100.719	870.117	99.2817	870.117	100.182	870.117	98.5082	870.117	99.3668	870.117	97.9674	870.117	98.4107	870.117	97.8763	870.117	97.6452	870.117	98.0806	870.117	97.4066	870.117	98.1599	870.117	97.5581	870.117	97.7583	870.117	97.5752	870.117	96.6143	870.117	97.0086	870.117	94.332	870.117	95.524	870.117	89.7572	870.117	92.6131	870.117	75.645	870.117	86.9982	870.117	87.289	870.117	83.0773	870.117	93.6377	870.117	90.3076	870.117	96.4662	870.117	94.3372	870.117	97.5947	870.117	96.5105	870.117	97.5508
900.879	101.837	900.879	101.509	900.879	101.847	900.879	100.85	900.879	101.536	900.879	99.8703	900.879	100.91	900.879	98.7092	900.879	100.036	900.879	97.7151	900.879	99.0674	900.879	97.3207	900.879	98.2348	900.879	97.5944	900.879	97.7795	900.879	98.0914	900.879	97.7525	900.879	98.2595	900.879	97.871	900.879	97.6603	900.879	97.6729	900.879	95.8561	900.879	96.6923	900.879	91.9847	900.879	94.3659	900.879	81.8181	900.879	89.3948	900.879	84.3221	900.879	77.6883	900.879	92.6465	900.879	89.0371	900.879	96.086	900.879	94.4571	900.879	97.6523	900.879	96.984	900.879	97.935
933.105	101.274	933.105	100.889	933.105	101.287	933.105	100.155	933.105	100.954	933.105	99.1485	933.105	100.303	933.105	98.0172	933.105	99.3477	933.105	97.0463	933.105	98.1624	933.105	96.6521	933.105	97.0628	933.105	96.9821	933.105	96.5715	933.105	97.6297	933.105	96.8253	933.105	98.037	933.105	97.327	933.105	97.7674	933.105	97.5037	933.105	96.4033	933.105	96.9285	933.105	93.2615	933.105	95.125	933.105	86.0466	933.105	91.0615	933.105	79.3461	933.105	79.2908	933.105	90.7062	933.105	85.9426	933.105	94.7086	933.105	92.9767	933.105	96.4903	933.105	95.8553	933.105	96.8604
965.332	101.056	965.332	100.793	965.332	101.012	965.332	100.159	965.332	100.649	965.332	99.0515	965.332	99.9249	965.332	97.4004	965.332	98.8232	965.332	95.4123	965.332	97.388	965.332	94.2355	965.332	95.8356	965.332	95.0826	965.332	94.8695	965.332	96.6326	965.332	95.2212	965.332	97.5472	965.332	96.2353	965.332	97.502	965.332	96.8441	965.332	96.4028	965.332	96.5229	965.332	93.851	965.332	94.8687	965.332	88.1225	965.332	90.8708	965.332	79.0536	965.332	78.3149	965.332	90.9668	965.332	86.3392	965.332	95.2246	965.332	93.142	965.332	96.822	965.332	95.8797	965.332	96.9428
1,000.49	101.415	1,000.49	101.141	1,000.49	101.367	1,000.49	100.545	1,000.49	100.977	1,000.49	99.5501	1,000.49	100.217	1,000.49	97.9449	1,000.49	99.0298	1,000.49	95.4298	1,000.49	97.3056	1,000.49	92.1888	1,000.49	94.9616	1,000.49	91.5098	1,000.49	92.5172	1,000.49	94.3832	1,000.49	92.3273	1,000.49	96.7895	1,000.49	94.5724	1,000.49	97.9115	1,000.49	96.5237	1,000.49	97.7232	1,000.49	97.2249	1,000.49	96.0179	1,000.49	96.4225	1,000.49	92.108	1,000.49	93.6817	1,000.49	85.7802	1,000.49	87.7775	1,000.49	90.002	1,000.49	85.8315	1,000.49	94.5533	1,000.49	92.3498	1,000.49	96.5206	1,000.49	95.5628	1,000.49	96.7957
1,035.64	102.132	1,035.64	102.051	1,035.64	102.055	1,035.64	101.733	1,035.64	101.79	1,035.64	101.027	1,035.64	101.259	1,035.64	99.7863	1,035.64	100.385	1,035.64	97.8493	1,035.64	99.0487	1,035.64	94.9267	1,035.64	96.983	1,035.64	90.8972	1,035.64	93.7819	1,035.64	90.1211	1,035.64	90.0844	1,035.64	93.9797	1,035.64	91.242	1,035.64	96.5751	1,035.64	94.6475	1,035.64	97.4739	1,035.64	96.5915	1,035.64	96.8884	1,035.64	96.9688	1,035.64	94.6394	1,035.64	95.7695	1,035.64	89.9127	1,035.64	92.595	1,035.64	86.254	1,035.64	87.2161	1,035.64	91.406	1,035.64	88.5222	1,035.64	94.1471	1,035.64	92.7374	1,035.64	94.4812
1,072.27	101.503	1,072.27	101.375	1,072.27	101.51	1,072.27	101.159	1,072.27	101.347	1,072.27	100.775	1,072.27	100.976	1,072.27	100.012	1,072.27	100.334	1,072.27	98.6032	1,072.27	99.3501	1,072.27	96.26	1,072.27	97.9208	1,072.27	92.7377	1,072.27	95.8107	1,072.27	89.5585	1,072.27	92.7699	1,072.27	91.5126	1,072.27	90.3773	1,072.27	94.5085	1,072.27	92.2101	1,072.27	95.9325	1,072.27	94.525	1,072.27	95.6183	1,072.27	95.2257	1,072.27	93.3702	1,072.27	94.2597	1,072.27	88.3297	1,072.27	91.4545	1,072.27	78.7709	1,072.27	85.4614	1,072.27	86.741	1,072.27	81.4731	1,072.27	91.1776	1,072.27	89.2394	1,072.27	91.9152
1,108.89	100.424	1,108.89	100.391	1,108.89	100.428	1,108.89	100.282	1,108.89	100.37	1,108.89	99.945	1,108.89	100.189	1,108.89	99.2059	1,108.89	99.7944	1,108.89	97.9674	1,108.89	99.0648	1,108.89	96.1608	1,108.89	97.846	1,108.89	93.5304	1,108.89	95.9427	1,108.89	89.8355	1,108.89	93.0953	1,108.89	88.7807	1,108.89	89.5433	1,108.89	92.1937	1,108.89	89.0713	1,108.89	94.338	1,108.89	91.9538	1,108.89	94.4995	1,108.89	93.8539	1,108.89	92.6561	1,108.89	94.0454	1,108.89	88.0689	1,108.89	92.1423	1,108.89	78.8912	1,108.89	86.5877	1,108.89	85.6887	1,108.89	78.7107	1,108.89	89.9677	1,108.89	87.7885	1,108.89	90.5736
1,148.44	99.6545	1,148.44	99.3631	1,148.44	99.7577	1,148.44	99.0798	1,148.44	99.6051	1,148.44	98.8923	1,148.44	99.3249	1,148.44	98.6343	1,148.44	99.0521	1,148.44	97.9835	1,148.44	98.6804	1,148.44	96.5938	1,148.44	97.8945	1,148.44	94.106	1,148.44	96.3774	1,148.44	90.2445	1,148.44	93.8975	1,148.44	87.3761	1,148.44	90.5882	1,148.44	90.2387	1,148.44	89.1539	1,148.44	93.0389	1,148.44	91.5743	1,148.44	93.9942	1,148.44	93.6403	1,148.44	93.0747	1,148.44	93.9688	1,148.44	89.9257	1,148.44	92.299	1,148.44	84.1624	1,148.44	88.0397	1,148.44	84.7087	1,148.44	80.5218	1,148.44	88.1213	1,148.44	84.0686	1,148.44	87.9861
1,189.45	99.5893	1,189.45	99.2744	1,189.45	99.6796	1,189.45	98.8392	1,189.45	99.5051	1,189.45	98.3581	1,189.45	99.1304	1,189.45	97.8487	1,189.45	98.7135	1,189.45	97.2787	1,189.45	98.3608	1,189.45	96.4544	1,189.45	97.8766	1,189.45	94.9323	1,189.45	96.8162	1,189.45	92.0947	1,189.45	94.8391	1,189.45	87.7734	1,189.45	91.9998	1,189.45	87.1855	1,189.45	89.3565	1,189.45	90.7128	1,189.45	89.7667	1,189.45	92.7332	1,189.45	92.1655	1,189.45	92.9504	1,189.45	93.43	1,189.45	91.1318	1,189.45	92.7534	1,189.45	86.2422	1,189.45	89.7008	1,189.45	74.8725	1,189.45	82.357	1,189.45	77.7142	1,189.45	65.153	1,189.45	79.1344
1,230.47	100.716	1,230.47	100.455	1,230.47	100.628	1,230.47	99.7697	1,230.47	100.328	1,230.47	98.8848	1,230.47	99.8828	1,230.47	98.1861	1,230.47	99.2964	1,230.47	97.6375	1,230.47	98.577	1,230.47	96.8562	1,230.47	97.7998	1,230.47	95.6329	1,230.47	96.9085	1,230.47	93.8935	1,230.47	95.5043	1,230.47	91.5662	1,230.47	93.2087	1,230.47	89.643	1,230.47	90.8821	1,230.47	90.4335	1,230.47	91.1524	1,230.47	91.9969	1,230.47	92.5501	1,230.47	92.1584	1,230.47	92.9108	1,230.47	90.3397	1,230.47	91.8481	1,230.47	85.5918	1,230.47	88.8696	1,230.47	75.6668	1,230.47	83.0041	1,230.47	81.4238	1,230.47	80.8533	1,230.47	83.5987
1,274.41	100.917	1,274.41	100.596	1,274.41	100.994	1,274.41	100.058	1,274.41	100.779	1,274.41	99.3213	1,274.41	100.247	1,274.41	98.4641	1,274.41	99.4586	1,274.41	97.6001	1,274.41	98.62	1,274.41	96.7261	1,274.41	97.8555	1,274.41	95.6596	1,274.41	96.8793	1,274.41	94.0855	1,274.41	95.3081	1,274.41	91.6933	1,274.41	93.1952	1,274.41	89.3239	1,274.41	91.1148	1,274.41	90.2151	1,274.41	90.2621	1,274.41	92.2075	1,274.41	91.2272	1,274.41	92.4664	1,274.41	92.2214	1,274.41	90.2821	1,274.41	91.6549	1,274.41	85.2163	1,274.41	88.1335	1,274.41	82.1526	1,274.41	80.9973	1,274.41	85.3577	1,274.41	84.6661	1,274.41	86.7079
1,319.82	100.644	1,319.82	100.275	1,319.82	100.726	1,319.82	99.6187	1,319.82	100.447	1,319.82	98.7383	1,319.82	99.7666	1,319.82	97.8302	1,319.82	98.9321	1,319.82	97.0306	1,319.82	98.2786	1,319.82	96.1836	1,319.82	97.6177	1,319.82	94.9066	1,319.82	96.4216	1,319.82	92.9315	1,319.82	94.5182	1,319.82	90.6004	1,319.82	92.022	1,319.82	89.5624	1,319.82	89.4626	1,319.82	90.4526	1,319.82	89.9203	1,319.82	91.2062	1,319.82	91.7771	1,319.82	90.7468	1,319.82	91.8492	1,319.82	88.3916	1,319.82	89.7525	1,319.82	82.2027	1,319.82	85.0225	1,319.82	80.8308	1,319.82	72.0806	1,319.82	87.5718	1,319.82	83.733	1,319.82	88.4016
1,366.7	100.622	1,366.7	100.301	1,366.7	100.429	1,366.7	99.4865	1,366.7	99.9557	1,366.7	98.3508	1,366.7	99.2961	1,366.7	97.0691	1,366.7	98.32	1,366.7	96.0053	1,366.7	97.1977	1,366.7	95.3124	1,366.7	96.411	1,366.7	94.3962	1,366.7	95.8177	1,366.7	92.8555	1,366.7	94.7931	1,366.7	90.8927	1,366.7	92.8613	1,366.7	89.0964	1,366.7	89.8076	1,366.7	89.0169	1,366.7	88.4445	1,366.7	90.5654	1,366.7	90.708	1,366.7	91.1074	1,366.7	92.3398	1,366.7	89.2786	1,366.7	91.7653	1,366.7	83.9541	1,366.7	88.3253	1,366.7	76.0224	1,366.7	79.681	1,366.7	84.2111	1,366.7	78.3316	1,366.7	85.095
1,413.57	100.474	1,413.57	100.073	1,413.57	100.545	1,413.57	99.4056	1,413.57	100.135	1,413.57	98.4149	1,413.57	99.2536	1,413.57	97.1533	1,413.57	98.0982	1,413.57	95.8028	1,413.57	96.788	1,413.57	94.3827	1,413.57	95.5212	1,413.57	92.8958	1,413.57	94.849	1,413.57	91.6682	1,413.57	94.552	1,413.57	90.6957	1,413.57	93.2891	1,413.57	89.2419	1,413.57	89.8431	1,413.57	87.5578	1,413.57	85.6711	1,413.57	87.4262	1,413.57	88.2791	1,413.57	88.0369	1,413.57	91.2117	1,413.57	86.8807	1,413.57	91.6584	1,413.57	82.5812	1,413.57	88.7691	1,413.57	81.4012	1,413.57	79.8148	1,413.57	83.8875	1,413.57	77.0516	1,413.57	82.9915
1,463.38	100.657	1,463.38	100.19	1,463.38	100.78	1,463.38	99.3116	1,463.38	100.454	1,463.38	98.112	1,463.38	99.558	1,463.38	96.9508	1,463.38	98.2786	1,463.38	95.9391	1,463.38	96.9492	1,463.38	94.8219	1,463.38	95.6681	1,463.38	93.5348	1,463.38	94.6608	1,463.38	91.9764	1,463.38	94.2443	1,463.38	89.4409	1,463.38	93.7824	1,463.38	86.8605	1,463.38	92.1247	1,463.38	88.4019	1,463.38	88.9636	1,463.38	90.0285	1,463.38	87.151	1,463.38	89.575	1,463.38	89.8646	1,463.38	86.4545	1,463.38	91.4939	1,463.38	77.3561	1,463.38	89.9588	1,463.38	77.1218	1,463.38	84.3761	1,463.38	83.0111	1,463.38	76.9315	1,463.38	82.4318
1,516.11	100.834	1,516.11	100.338	1,516.11	100.825	1,516.11	99.4851	1,516.11	100.473	1,516.11	98.3983	1,516.11	99.9367	1,516.11	97.0168	1,516.11	99.1108	1,516.11	95.6207	1,516.11	97.7887	1,516.11	94.6683	1,516.11	96.0306	1,516.11	93.8182	1,516.11	94.5536	1,516.11	92.4419	1,516.11	93.9895	1,516.11	89.9447	1,516.11	93.5711	1,516.11	86.3968	1,516.11	91.9456	1,516.11	86.5105	1,516.11	88.9635	1,516.11	89.5848	1,516.11	87.7972	1,516.11	90.2532	1,516.11	89.5698	1,516.11	88.0826	1,516.11	90.0035	1,516.11	82.7547	1,516.11	88.2274	1,516.11	60.5805	1,516.11	84.3207	1,516.11	82.9029	1,516.11	80.8986	1,516.11	84.7935
1,568.85	101.036	1,568.85	100.62	1,568.85	101.139	1,568.85	99.9673	1,568.85	100.839	1,568.85	99.0495	1,568.85	100.106	1,568.85	97.5958	1,568.85	99.035	1,568.85	95.5728	1,568.85	97.7551	1,568.85	93.9766	1,568.85	96.1998	1,568.85	93.3292	1,568.85	94.3668	1,568.85	92.4884	1,568.85	93.0096	1,568.85	91.2028	1,568.85	92.0013	1,568.85	89.5455	1,568.85	90.3622	1,568.85	86.5692	1,568.85	88.4773	1,568.85	87.3823	1,568.85	87.7616	1,568.85	89.9564	1,568.85	88.4969	1,568.85	88.5643	1,568.85	88.3018	1,568.85	81.155	1,568.85	85.5577	1,568.85	77.3125	1,568.85	82.2504	1,568.85	84.8069	1,568.85	84.1952	1,568.85	86.1904
1,624.51	100.808	1,624.51	100.303	1,624.51	100.984	1,624.51	99.584	1,624.51	100.66	1,624.51	98.7435	1,624.51	99.6577	1,624.51	97.6102	1,624.51	98.2475	1,624.51	95.9092	1,624.51	97.0887	1,624.51	94.112	1,624.51	96.0387	1,624.51	93.1321	1,624.51	94.5213	1,624.51	92.3088	1,624.51	92.8747	1,624.51	91.074	1,624.51	91.4102	1,624.51	89.9451	1,624.51	89.5903	1,624.51	88.2353	1,624.51	87.5569	1,624.51	87.9548	1,624.51	87.6205	1,624.51	90.1033	1,624.51	89.2013	1,624.51	89.2703	1,624.51	88.4833	1,624.51	82.995	1,624.51	84.4761	1,624.51	73.3093	1,624.51	77.4788	1,624.51	84.9216	1,624.51	81.9236	1,624.51	86.5006
1,681.64	99.9079	1,681.64	99.3771	1,681.64	99.9794	1,681.64	98.8642	1,681.64	99.5023	1,681.64	97.9553	1,681.64	98.9664	1,681.64	96.5404	1,681.64	98.2331	1,681.64	95.2719	1,681.64	96.8847	1,681.64	93.9657	1,681.64	95.0356	1,681.64	92.3083	1,681.64	93.285	1,681.64	91.1442	1,681.64	91.8862	1,681.64	90.5628	1,681.64	90.4888	1,681.64	89.5331	1,681.64	88.9997	1,681.64	88.1143	1,681.64	87.0982	1,681.64	88.0648	1,681.64	85.8407	1,681.64	89.108	1,681.64	88.2401	1,681.64	89.0051	1,681.64	88.9711	1,681.64	84.6204	1,681.64	85.9683	1,681.64	75.4901	1,681.64	78.6662	1,681.64	84.6602	1,681.64	79.8857	1,681.64	84.1193
1,741.7	100.237	1,741.7	99.748	1,741.7	100.374	1,741.7	98.7822	1,741.7	100.273	1,741.7	97.7071	1,741.7	99.595	1,741.7	96.6877	1,741.7	98.2868	1,741.7	95.3529	1,741.7	96.9119	1,741.7	93.7353	1,741.7	95.8271	1,741.7	92.4005	1,741.7	94.5288	1,741.7	91.1494	1,741.7	92.6843	1,741.7	89.5171	1,741.7	91.1854	1,741.7	88.1168	1,741.7	90.0913	1,741.7	86.9933	1,741.7	87.7986	1,741.7	86.7891	1,741.7	85.067	1,741.7	88.626	1,741.7	87.033	1,741.7	88.8467	1,741.7	88.9837	1,741.7	83.7563	1,741.7	87.6659	1,741.7	67.8317	1,741.7	79.8855	1,741.7	83.1342	1,741.7	81.2487	1,741.7	85.3622
1,803.22	101.006	1,803.22	100.648	1,803.22	101.171	1,803.22	100.2	1,803.22	100.579	1,803.22	99.0015	1,803.22	99.6703	1,803.22	97.2794	1,803.22	98.8238	1,803.22	95.867	1,803.22	97.6062	1,803.22	94.8494	1,803.22	96.1675	1,803.22	93.6621	1,803.22	94.86	1,803.22	92.0125	1,803.22	93.2822	1,803.22	90.4611	1,803.22	91.6996	1,803.22	89.2369	1,803.22	90.6981	1,803.22	86.9836	1,803.22	88.7537	1,803.22	85.8494	1,803.22	86.198	1,803.22	89.1755	1,803.22	87.8745	1,803.22	90.3795	1,803.22	89.0603	1,803.22	86.1751	1,803.22	87.9503	1,803.22	63.1887	1,803.22	82.6609	1,803.22	82.3828	1,803.22	78.0617	1,803.22	85.4249
1,866.21	101.287	1,866.21	101.086	1,866.21	101.229	1,866.21	100.227	1,866.21	101.052	1,866.21	99.1681	1,866.21	100.302	1,866.21	98.2342	1,866.21	98.7521	1,866.21	96.8882	1,866.21	96.8717	1,866.21	95.5205	1,866.21	95.3903	1,866.21	94.3955	1,866.21	94.2332	1,866.21	92.739	1,866.21	92.9346	1,866.21	90.7569	1,866.21	91.4302	1,866.21	89.4999	1,866.21	90.0314	1,866.21	88.1488	1,866.21	88.9448	1,866.21	86.6744	1,866.21	87.8868	1,866.21	88.4342	1,866.21	88.3782	1,866.21	89.7165	1,866.21	89.6748	1,866.21	87.4355	1,866.21	88.4206	1,866.21	76.3238	1,866.21	81.1835	1,866.21	80.3704	1,866.21	79.3616	1,866.21	84.0002
1,932.13	100.751	1,932.13	100.728	1,932.13	100.616	1,932.13	100.352	1,932.13	100.022	1,932.13	99.2756	1,932.13	99.47	1,932.13	97.8027	1,932.13	98.7497	1,932.13	96.1302	1,932.13	97.0448	1,932.13	94.7976	1,932.13	94.8891	1,932.13	94.1048	1,932.13	93.6868	1,932.13	93.291	1,932.13	92.3917	1,932.13	92.0455	1,932.13	90.3609	1,932.13	90.5979	1,932.13	89.2745	1,932.13	87.9305	1,932.13	87.9318	1,932.13	85.4963	1,932.13	86.0044	1,932.13	87.5595	1,932.13	87.2895	1,932.13	89.6614	1,932.13	89.3817	1,932.13	87.9377	1,932.13	88.1677	1,932.13	76.0434	1,932.13	79.6802	1,932.13	79.7038	1,932.13	73.601	1,932.13	81.0576
1,999.51	101.373	1,999.51	101.003	1,999.51	101.443	1,999.51	100.054	1,999.51	101.251	1,999.51	99.0948	1,999.51	100.269	1,999.51	97.9797	1,999.51	98.9886	1,999.51	96.0129	1,999.51	98.066	1,999.51	94.0294	1,999.51	96.6372	1,999.51	93.1826	1,999.51	94.5685	1,999.51	92.4295	1,999.51	92.9658	1,999.51	90.9526	1,999.51	91.6369	1,999.51	90.1109	1,999.51	89.5467	1,999.51	88.3231	1,999.51	87.7566	1,999.51	85.0046	1,999.51	85.9195	1,999.51	87.0043	1,999.51	85.445	1,999.51	88.8849	1,999.51	88.8716	1,999.51	86.125	1,999.51	89.035	1,999.51	77.737	1,999.51	82.9913	1,999.51	76.4785	1,999.51	76.0959	1,999.51	83.8594
2,069.82	102.182	2,069.82	101.75	2,069.82	102.164	2,069.82	100.913	2,069.82	101.878	2,069.82	100.184	2,069.82	101.173	2,069.82	99.2909	2,069.82	100.011	2,069.82	97.8688	2,069.82	98.7251	2,069.82	96.1951	2,069.82	96.9621	2,069.82	94.5291	2,069.82	95.1726	2,069.82	92.7388	2,069.82	93.5081	2,069.82	90.741	2,069.82	91.2587	2,069.82	88.4013	2,069.82	88.9921	2,069.82	87.7488	2,069.82	87.8601	2,069.82	86.128	2,069.82	86.9858	2,069.82	86.0716	2,069.82	84.9165	2,069.82	88.7875	2,069.82	88.7287	2,069.82	88.0287	2,069.82	89.1594	2,069.82	79.4686	2,069.82	83.3732	2,069.82	80.564	2,069.82	58.4499	2,069.82	82.7299
2,143.07	102.007	2,143.07	101.679	2,143.07	101.649	2,143.07	100.947	2,143.07	101.474	2,143.07	99.7208	2,143.07	100.936	2,143.07	98.6115	2,143.07	99.5171	2,143.07	98.3343	2,143.07	98.0382	2,143.07	97.1128	2,143.07	96.335	2,143.07	94.6432	2,143.07	94.5362	2,143.07	91.7488	2,143.07	92.8801	2,143.07	89.7461	2,143.07	91.9566	2,143.07	89.0652	2,143.07	90.2273	2,143.07	88.5891	2,143.07	87.4054	2,143.07	87.6295	2,143.07	86.1373	2,143.07	85.7354	2,143.07	86.5202	2,143.07	88.8347	2,143.07	88.209	2,143.07	90.5537	2,143.07	88.0222	2,143.07	84.5825	2,143.07	84.7961	2,143.07	76.4449	2,143.07	80.2581	2,143.07	84.4667
2,219.24	100.962	2,219.24	100.723	2,219.24	100.904	2,219.24	99.8731	2,219.24	100.442	2,219.24	98.9847	2,219.24	99.5338	2,219.24	97.8238	2,219.24	99.1748	2,219.24	95.7268	2,219.24	98.4461	2,219.24	94.903	2,219.24	96.653	2,219.24	94.7578	2,219.24	94.697	2,219.24	93.5361	2,219.24	92.6822	2,219.24	92.4005	2,219.24	90.8818	2,219.24	91.6772	2,219.24	89.2975	2,219.24	89.6923	2,219.24	88.3277	2,219.24	86.2276	2,219.24	86.9441	2,219.24	86.9409	2,219.24	84.6761	2,219.24	90.0551	2,219.24	87.3055	2,219.24	86.2991	2,219.24	86.6756	2,219.24	79.3441	2,219.24	85.0028	2,219.24	76.936	2,219.24	66.2092	2,219.24	83.5832
2,296.88	101.559	2,296.88	100.734	2,296.88	101.625	2,296.88	99.5407	2,296.88	101.36	2,296.88	98.8025	2,296.88	100.992	2,296.88	97.6047	2,296.88	100.167	2,296.88	95.5451	2,296.88	98.5544	2,296.88	93.544	2,296.88	97.2407	2,296.88	92.1881	2,296.88	95.9068	2,296.88	92.6725	2,296.88	93.9198	2,296.88	93.0376	2,296.88	92.7807	2,296.88	91.2323	2,296.88	89.8895	2,296.88	89.6565	2,296.88	86.8374	2,296.88	87.6322	2,296.88	89.5003	2,296.88	81.3315	2,296.88	86.3616	2,296.88	88.3559	2,296.88	85.0792	2,296.88	89.7085	2,296.88	88.816	2,296.88	82.8708	2,296.88	86.8484	2,296.88	77.1187	2,296.88	75.3882	2,296.88	78.4455
2,378.91	102.177	2,378.91	101.317	2,378.91	102.316	2,378.91	100.336	2,378.91	101.737	2,378.91	99.7581	2,378.91	101.092	2,378.91	98.8201	2,378.91	100.596	2,378.91	97.5985	2,378.91	99.4844	2,378.91	96.1511	2,378.91	97.6965	2,378.91	93.7961	2,378.91	94.9283	2,378.91	90.3314	2,378.91	92.1581	2,378.91	87.859	2,378.91	91.8319	2,378.91	85.2712	2,378.91	90.8146	2,378.91	86.7863	2,378.91	85.4348	2,378.91	90.7483	2,378.91	80.3009	2,378.91	88.5765	2,378.91	85.9398	2,378.91	84.1889	2,378.91	87.9161	2,378.91	88.8199	2,378.91	89.4818	2,378.91	86.9644	2,378.91	88.1912	2,378.91	81.8793	2,378.91	83.5399	2,378.91	75.993
2,462.4	100.946	2,462.4	100.57	2,462.4	101.036	2,462.4	100.207	2,462.4	100.854	2,462.4	99.7172	2,462.4	100.478	2,462.4	98.896	2,462.4	99.5999	2,462.4	97.5357	2,462.4	98.3565	2,462.4	96.1396	2,462.4	96.8018	2,462.4	94.7713	2,462.4	95.3763	2,462.4	92.4828	2,462.4	93.1793	2,462.4	91.3548	2,462.4	90.6581	2,462.4	90.6748	2,462.4	89.2919	2,462.4	88.5435	2,462.4	87.8889	2,462.4	87.9361	2,462.4	86.6911	2,462.4	87.3901	2,462.4	85.4314	2,462.4	88.043	2,462.4	85.4006	2,462.4	88.9765	2,462.4	87.308	2,462.4	87.5366	2,462.4	86.5887	2,462.4	84.4767	2,462.4	82.1017	2,462.4	81.6648
2,548.83	100.413	2,548.83	100.185	2,548.83	100.437	2,548.83	99.7702	2,548.83	100.369	2,548.83	99.1602	2,548.83	99.684	2,548.83	98.305	2,548.83	98.9491	2,548.83	97.0957	2,548.83	98.1777	2,548.83	95.3868	2,548.83	96.9993	2,548.83	93.8264	2,548.83	95.0009	2,548.83	91.6353	2,548.83	92.861	2,548.83	90.1545	2,548.83	90.9756	2,548.83	90.5104	2,548.83	89.4414	2,548.83	89.2749	2,548.83	87.9309	2,548.83	88.5629	2,548.83	85.6153	2,548.83	87.1931	2,548.83	83.6319	2,548.83	83.9745	2,548.83	83.5025	2,548.83	87.4632	2,548.83	86.2907	2,548.83	83.0288	2,548.83	84.9223	2,548.83	79.5571	2,548.83	84.2485	2,548.83	81.7926
2,639.65	100.85	2,639.65	100.714	2,639.65	100.739	2,639.65	100.341	2,639.65	100.503	2,639.65	99.6	2,639.65	100.066	2,639.65	98.5248	2,639.65	99.169	2,639.65	97.3076	2,639.65	98.0873	2,639.65	95.9297	2,639.65	96.9038	2,639.65	94.2452	2,639.65	95.2804	2,639.65	92.6914	2,639.65	93.428	2,639.65	90.7247	2,639.65	91.2462	2,639.65	89.2601	2,639.65	89.3999	2,639.65	88.8865	2,639.65	88.054	2,639.65	87.4613	2,639.65	86.4883	2,639.65	87.5542	2,639.65	85.2058	2,639.65	88.1241	2,639.65	86.0036	2,639.65	87.7223	2,639.65	87.2177	2,639.65	84.8545	2,639.65	83.4993	2,639.65	76.1422	2,639.65	80.5566	2,639.65	81.3871
2,731.93	100.996	2,731.93	101.066	2,731.93	100.888	2,731.93	100.749	2,731.93	100.582	2,731.93	99.9228	2,731.93	99.9998	2,731.93	98.8657	2,731.93	99.2698	2,731.93	97.7615	2,731.93	98.1076	2,731.93	96.253	2,731.93	96.5208	2,731.93	94.2855	2,731.93	94.7255	2,731.93	92.5828	2,731.93	92.831	2,731.93	91.2091	2,731.93	91.4892	2,731.93	89.5229	2,731.93	89.2365	2,731.93	87.9948	2,731.93	86.5561	2,731.93	88.1492	2,731.93	86.9036	2,731.93	87.155	2,731.93	84.8847	2,731.93	85.5821	2,731.93	85.4188	2,731.93	89.1233	2,731.93	87.8686	2,731.93	87.2758	2,731.93	83.9361	2,731.93	74.9901	2,731.93	76.1539	2,731.93	79.8357
2,828.61	100.735	2,828.61	100.771	2,828.61	100.678	2,828.61	100.496	2,828.61	100.489	2,828.61	99.6456	2,828.61	100.199	2,828.61	98.5032	2,828.61	99.7762	2,828.61	97.2264	2,828.61	98.6712	2,828.61	95.511	2,828.61	96.8741	2,828.61	93.9456	2,828.61	95.1272	2,828.61	92.0841	2,828.61	93.0778	2,828.61	89.7846	2,828.61	90.8399	2,828.61	88.4036	2,828.61	88.9815	2,828.61	86.5175	2,828.61	86.7519	2,828.61	85.8662	2,828.61	87.1202	2,828.61	88.5914	2,828.61	86.639	2,828.61	88.327	2,828.61	82.7386	2,828.61	87.1163	2,828.61	85.2453	2,828.61	86.6552	2,828.61	83.3002	2,828.61	81.3507	2,828.61	76.6497	2,828.61	78.0594
2,928.22	100.866	2,928.22	100.867	2,928.22	100.782	2,928.22	100.64	2,928.22	100.553	2,928.22	99.9816	2,928.22	100.334	2,928.22	98.8957	2,928.22	100.047	2,928.22	97.2213	2,928.22	99.0043	2,928.22	95.2784	2,928.22	97.274	2,928.22	93.4529	2,928.22	95.6009	2,928.22	91.5323	2,928.22	93.8868	2,928.22	89.9177	2,928.22	91.5066	2,928.22	88.1363	2,928.22	89.4043	2,928.22	86.0547	2,928.22	86.9792	2,928.22	84.8394	2,928.22	86.1555	2,928.22	85.0972	2,928.22	86.4138	2,928.22	84.6414	2,928.22	83.4632	2,928.22	86.7285	2,928.22	85.6594	2,928.22	86.7645	2,928.22	84.9911	2,928.22	80.9848	2,928.22	78.2649	2,928.22	78.7393
3,030.76	100.231	3,030.76	100.072	3,030.76	100.095	3,030.76	99.7481	3,030.76	100	3,030.76	99.0124	3,030.76	99.8406	3,030.76	97.649	3,030.76	99.2351	3,030.76	95.9676	3,030.76	98.3408	3,030.76	94.4931	3,030.76	97.188	3,030.76	92.9573	3,030.76	95.6292	3,030.76	90.8983	3,030.76	93.1643	3,030.76	88.6464	3,030.76	90.2468	3,030.76	87.8787	3,030.76	89.3872	3,030.76	87.4782	3,030.76	88.1925	3,030.76	85.9507	3,030.76	85.345	3,030.76	83.8452	3,030.76	84.9846	3,030.76	80.8965	3,030.76	84.3318	3,030.76	84.6179	3,030.76	86.4501	3,030.76	85.9298	3,030.76	83.9267	3,030.76	78.0771	3,030.76	77.376	3,030.76	77.2407
3,137.7	99.6117	3,137.7	99.3901	3,137.7	99.7082	3,137.7	98.9146	3,137.7	99.5872	3,137.7	98.1151	3,137.7	99.6251	3,137.7	97.0106	3,137.7	99.2351	3,137.7	94.9661	3,137.7	98.1022	3,137.7	92.653	3,137.7	96.6408	3,137.7	90.5906	3,137.7	95.2065	3,137.7	88.4161	3,137.7	92.9438	3,137.7	86.7175	3,137.7	90.7987	3,137.7	86.0993	3,137.7	89.3973	3,137.7	83.636	3,137.7	86.8412	3,137.7	84.3289	3,137.7	84.5492	3,137.7	85.9424	3,137.7	85.3476	3,137.7	82.3777	3,137.7	82.3184	3,137.7	82.0745	3,137.7	84.2965	3,137.7	82.8364	3,137.7	83.4425	3,137.7	66.4759	3,137.7	79.6943	3,137.7	75.9632
3,249.02	97.9237	3,249.02	97.853	3,249.02	97.9625	3,249.02	97.4892	3,249.02	98.4307	3,249.02	96.8138	3,249.02	98.6662	3,249.02	95.3408	3,249.02	98.4888	3,249.02	93.5329	3,249.02	97.7595	3,249.02	91.8348	3,249.02	96.3636	3,249.02	90.4884	3,249.02	94.594	3,249.02	88.5784	3,249.02	92.8191	3,249.02	86.1366	3,249.02	90.3868	3,249.02	85.1589	3,249.02	88.1041	3,249.02	83.773	3,249.02	87.0151	3,249.02	81.4213	3,249.02	84.4965	3,249.02	84.525	3,249.02	85.0496	3,249.02	84.5872	3,249.02	84.2846	3,249.02	82.0096	3,249.02	82.9019	3,249.02	83.3377	3,249.02	81.4466	3,249.02	79.0811	3,249.02	77.7611	3,249.02	76.2589
3,363.28	97.3784	3,363.28	97.6137	3,363.28	97.2065	3,363.28	97.3689	3,363.28	97.5905	3,363.28	96.2891	3,363.28	97.9833	3,363.28	94.9979	3,363.28	97.9371	3,363.28	93.5974	3,363.28	97.4654	3,363.28	91.6886	3,363.28	96.2951	3,363.28	89.6946	3,363.28	94.592	3,363.28	87.7499	3,363.28	92.5741	3,363.28	86.497	3,363.28	89.7856	3,363.28	85.3389	3,363.28	87.1376	3,363.28	83.9201	3,363.28	86.1488	3,363.28	79.7572	3,363.28	84.6506	3,363.28	81.9931	3,363.28	84.7173	3,363.28	83.9215	3,363.28	85.1365	3,363.28	84.0561	3,363.28	85.5683	3,363.28	85.1034	3,363.28	82.3471	3,363.28	79.104	3,363.28	71.9741	3,363.28	75.1695
3,481.93	97.5435	3,481.93	98.1044	3,481.93	97.4029	3,481.93	98.0988	3,481.93	97.4527	3,481.93	96.6229	3,481.93	98.0042	3,481.93	95.5187	3,481.93	97.8171	3,481.93	94.1333	3,481.93	97.132	3,481.93	92.2176	3,481.93	95.9506	3,481.93	90.1312	3,481.93	94.2379	3,481.93	89.2922	3,481.93	91.7057	3,481.93	86.7043	3,481.93	90.2146	3,481.93	84.4004	3,481.93	87.7635	3,481.93	83.7628	3,481.93	85.721	3,481.93	82.3226	3,481.93	84.4155	3,481.93	81.1503	3,481.93	85.0258	3,481.93	81.3321	3,481.93	83.6194	3,481.93	82.778	3,481.93	84.4224	3,481.93	84.1471	3,481.93	83.7535	3,481.93	77.0399	3,481.93	72.8919	3,481.93	74.1323
3,604.98	98.6253	3,604.98	98.6702	3,604.98	98.2734	3,604.98	98.6924	3,604.98	98.2142	3,604.98	98.529	3,604.98	98.1982	3,604.98	96.6545	3,604.98	98.2885	3,604.98	94.5615	3,604.98	97.5802	3,604.98	93.1302	3,604.98	96.2218	3,604.98	92.235	3,604.98	94.0918	3,604.98	90.6198	3,604.98	92.037	3,604.98	87.891	3,604.98	89.677	3,604.98	86.0834	3,604.98	86.864	3,604.98	84.3774	3,604.98	87.0813	3,604.98	83.1742	3,604.98	84.9743	3,604.98	84.4508	3,604.98	83.9756	3,604.98	84.2451	3,604.98	84.4078	3,604.98	83.7188	3,604.98	83.6728	3,604.98	84.811	3,604.98	84.3091	3,604.98	79.6909	3,604.98	74.2733	3,604.98	68.813
3,732.42	98.9664	3,732.42	98.898	3,732.42	98.5826	3,732.42	98.9082	3,732.42	98.1958	3,732.42	98.3007	3,732.42	98.3169	3,732.42	96.8117	3,732.42	98.2721	3,732.42	95.4972	3,732.42	97.5407	3,732.42	94.136	3,732.42	96.408	3,732.42	92.3801	3,732.42	94.2567	3,732.42	90.2554	3,732.42	91.8827	3,732.42	89.1486	3,732.42	88.9641	3,732.42	87.2814	3,732.42	86.0065	3,732.42	85.6832	3,732.42	85.0444	3,732.42	84.0737	3,732.42	84.4462	3,732.42	84.7945	3,732.42	83.9972	3,732.42	85.1902	3,732.42	84.2805	3,732.42	82.5231	3,732.42	84.883	3,732.42	84.5698	3,732.42	85.2587	3,732.42	81.319	3,732.42	75.2993	3,732.42	68.1771
3,864.26	99.7186	3,864.26	100.061	3,864.26	99.3015	3,864.26	99.7379	3,864.26	98.5482	3,864.26	98.3672	3,864.26	98.7967	3,864.26	97.5144	3,864.26	98.69	3,864.26	96.2856	3,864.26	97.8806	3,864.26	94.3146	3,864.26	96.5662	3,864.26	91.3289	3,864.26	94.7063	3,864.26	89.5017	3,864.26	92.286	3,864.26	89.2967	3,864.26	90.585	3,864.26	87.7407	3,864.26	87.9679	3,864.26	84.9567	3,864.26	85.5216	3,864.26	82.5685	3,864.26	84.7011	3,864.26	83.7084	3,864.26	83.2286	3,864.26	86.1943	3,864.26	84.9359	3,864.26	81.7331	3,864.26	84.977	3,864.26	84.2591	3,864.26	84.0707	3,864.26	83.6346	3,864.26	76.3951	3,864.26	77.3376
4,000.49	100.085	4,000.49	100.602	4,000.49	99.1236	4,000.49	99.8123	4,000.49	98.8565	4,000.49	98.9444	4,000.49	98.5838	4,000.49	98.0844	4,000.49	98.1832	4,000.49	96.0383	4,000.49	97.6613	4,000.49	93.6853	4,000.49	96.3463	4,000.49	92.007	4,000.49	94.6271	4,000.49	89.9785	4,000.49	91.8719	4,000.49	88.3815	4,000.49	89.9378	4,000.49	88.2554	4,000.49	86.5103	4,000.49	85.7725	4,000.49	84.6707	4,000.49	83.6552	4,000.49	83.5494	4,000.49	83.4159	4,000.49	82.1469	4,000.49	85.1496	4,000.49	84.5164	4,000.49	83.4805	4,000.49	84.3259	4,000.49	85.505	4,000.49	84.0309	4,000.49	83.4692	4,000.49	76.3008	4,000.49	74.6053
4,141.11	100.572	4,141.11	100.678	4,141.11	100.061	4,141.11	99.8348	4,141.11	99.5127	4,141.11	99.5573	4,141.11	98.8133	4,141.11	98.1857	4,141.11	99.185	4,141.11	96.6216	4,141.11	98.3989	4,141.11	95.5196	4,141.11	96.7865	4,141.11	94.2601	4,141.11	94.4729	4,141.11	91.5158	4,141.11	92.6469	4,141.11	88.4186	4,141.11	90.5391	4,141.11	84.5095	4,141.11	88.0356	4,141.11	85.6435	4,141.11	84.611	4,141.11	84.3431	4,141.11	83.5625	4,141.11	82.6015	4,141.11	82.7662	4,141.11	86.1701	4,141.11	83.2093	4,141.11	83.6311	4,141.11	83.1677	4,141.11	83.7168	4,141.11	84.6757	4,141.11	83.283	4,141.11	74.5727	4,141.11	68.3176
4,287.6	100.921	4,287.6	100.074	4,287.6	101.476	4,287.6	100.042	4,287.6	100.441	4,287.6	98.4834	4,287.6	100.323	4,287.6	97.1742	4,287.6	99.9091	4,287.6	96.9263	4,287.6	98.9542	4,287.6	96.1977	4,287.6	97.5846	4,287.6	93.7588	4,287.6	95.1102	4,287.6	91.3424	4,287.6	92.2667	4,287.6	89.7456	4,287.6	90.0214	4,287.6	87.717	4,287.6	87.4149	4,287.6	86.0034	4,287.6	85.2952	4,287.6	85.8605	4,287.6	83.4885	4,287.6	83.8743	4,287.6	82.9605	4,287.6	85.9173	4,287.6	83.6536	4,287.6	84.8476	4,287.6	84.3317	4,287.6	84.6286	4,287.6	83.6509	4,287.6	83.7848	4,287.6	74.6237	4,287.6	69.1303
4,438.48	101.552	4,438.48	101.634	4,438.48	100.731	4,438.48	100.725	4,438.48	100.61	4,438.48	99.726	4,438.48	100.593	4,438.48	98.8894	4,438.48	99.6718	4,438.48	97.1041	4,438.48	98.734	4,438.48	93.9536	4,438.48	97.0933	4,438.48	91.5113	4,438.48	95.1422	4,438.48	90.314	4,438.48	92.6975	4,438.48	88.7501	4,438.48	90.2719	4,438.48	87.9397	4,438.48	87.0674	4,438.48	84.6121	4,438.48	84.2699	4,438.48	80.7254	4,438.48	84.0687	4,438.48	83.0603	4,438.48	84.6059	4,438.48	84.1333	4,438.48	87.4933	4,438.48	84.442	4,438.48	84.7023	4,438.48	84.2887	4,438.48	84.4982	4,438.48	85.9928	4,438.48	74.5236	4,438.48	75.532
4,595.21	100.18	4,595.21	99.7638	4,595.21	100.025	4,595.21	98.4631	4,595.21	100.172	4,595.21	98.6012	4,595.21	99.3709	4,595.21	97.4922	4,595.21	99.346	4,595.21	95.4569	4,595.21	98.9955	4,595.21	93.9624	4,595.21	97.5768	4,595.21	92.6884	4,595.21	95.4818	4,595.21	89.9953	4,595.21	92.9236	4,595.21	88.5543	4,595.21	89.9975	4,595.21	86.4719	4,595.21	88.1481	4,595.21	85.8875	4,595.21	85.0499	4,595.21	83.4813	4,595.21	83.3667	4,595.21	81.562	4,595.21	83.4477	4,595.21	85.36	4,595.21	83.5894	4,595.21	82.886	4,595.21	85.1892	4,595.21	85.2868	4,595.21	83.3539	4,595.21	84.7645	4,595.21	73.8854	4,595.21	73.2096
4,756.35	99.5093	4,756.35	98.0276	4,756.35	100.886	4,756.35	98.5585	4,756.35	99.9093	4,756.35	97.5205	4,756.35	99.7352	4,756.35	96.427	4,756.35	99.8299	4,756.35	96.5708	4,756.35	98.5079	4,756.35	95.9752	4,756.35	96.9549	4,756.35	92.8892	4,756.35	94.6047	4,756.35	89.6492	4,756.35	91.3347	4,756.35	87.9268	4,756.35	89.6391	4,756.35	85.129	4,756.35	87.031	4,756.35	82.2483	4,756.35	84.295	4,756.35	84.8243	4,756.35	84.0553	4,756.35	82.7257	4,756.35	83.6171	4,756.35	83.8353	4,756.35	83.9802	4,756.35	85.3385	4,756.35	84.2048	4,756.35	83.4921	4,756.35	84.9551	4,756.35	83.5836	4,756.35	75.7201	4,756.35	70.271
4,924.8	99.3441	4,924.8	98.8035	4,924.8	99.6039	4,924.8	97.3648	4,924.8	99.8414	4,924.8	96.7472	4,924.8	99.0495	4,924.8	96.587	4,924.8	98.438	4,924.8	95.7067	4,924.8	97.6487	4,924.8	93.0634	4,924.8	96.2658	4,924.8	90.743	4,924.8	93.9061	4,924.8	89.4081	4,924.8	92.285	4,924.8	87.7066	4,924.8	90.0447	4,924.8	83.9164	4,924.8	87.6795	4,924.8	83.9043	4,924.8	84.789	4,924.8	81.069	4,924.8	82.6823	4,924.8	81.043	4,924.8	83.5233	4,924.8	83.4526	4,924.8	84.8616	4,924.8	84.031	4,924.8	83.7392	4,924.8	81.6475	4,924.8	84.7328	4,924.8	83.1383	4,924.8	71.4844	4,924.8	61.0068
5,097.66	98.5112	5,097.66	97.3776	5,097.66	99.2937	5,097.66	97.1201	5,097.66	98.6221	5,097.66	97.7026	5,097.66	97.3141	5,097.66	97.3414	5,097.66	96.9706	5,097.66	94.872	5,097.66	96.8805	5,097.66	93.1953	5,097.66	95.6596	5,097.66	92.287	5,097.66	93.4185	5,097.66	90.7725	5,097.66	91.2752	5,097.66	86.5863	5,097.66	89.1143	5,097.66	85.5391	5,097.66	86.0965	5,097.66	82.8099	5,097.66	83.2826	5,097.66	81.3968	5,097.66	82.5794	5,097.66	81.6348	5,097.66	81.2611	5,097.66	84.0954	5,097.66	83.5088	5,097.66	83.076	5,097.66	82.5913	5,097.66	82.1871	5,097.66	80.606	5,097.66	83.0027	5,097.66	74.7206	5,097.66	70.3988
5,277.83	98.4215	5,277.83	97.0003	5,277.83	99.3841	5,277.83	97.1123	5,277.83	98.3529	5,277.83	96.9234	5,277.83	97.4065	5,277.83	95.8032	5,277.83	97.1046	5,277.83	95.4076	5,277.83	96.1895	5,277.83	94.3143	5,277.83	94.9968	5,277.83	91.9741	5,277.83	93.2885	5,277.83	88.2526	5,277.83	90.6885	5,277.83	87.5743	5,277.83	87.692	5,277.83	85.6699	5,277.83	85.0939	5,277.83	81.9743	5,277.83	82.0713	5,277.83	82.5188	5,277.83	81.8181	5,277.83	80.7527	5,277.83	79.6604	5,277.83	80.5663	5,277.83	78.569	5,277.83	85.4444	5,277.83	83.031	5,277.83	81.6952	5,277.83	82.2721	5,277.83	81.3128	5,277.83	76.572	5,277.83	65.3668
5,463.87	98.0906	5,463.87	97.2895	5,463.87	98.4235	5,463.87	96.1696	5,463.87	98.4641	5,463.87	96.2116	5,463.87	97.0096	5,463.87	96.0744	5,463.87	95.8441	5,463.87	94.9031	5,463.87	95.5179	5,463.87	93.1998	5,463.87	94.6313	5,463.87	90.5711	5,463.87	92.6423	5,463.87	88.48	5,463.87	90.681	5,463.87	87.1543	5,463.87	87.9183	5,463.87	84.6915	5,463.87	85.1389	5,463.87	84.031	5,463.87	82.678	5,463.87	81.2579	5,463.87	80.994	5,463.87	80.5943	5,463.87	82.0896	5,463.87	79.2946	5,463.87	80.5407	5,463.87	82.6034	5,463.87	82.5581	5,463.87	81.8444	5,463.87	80.6973	5,463.87	79.2896	5,463.87	70.1525	5,463.87	55.976
5,657.23	97.566	5,657.23	96.7175	5,657.23	98.6471	5,657.23	97.3175	5,657.23	97.5532	5,657.23	97.3449	5,657.23	95.754	5,657.23	96.6711	5,657.23	94.7377	5,657.23	95.3728	5,657.23	94.473	5,657.23	93.4054	5,657.23	93.6047	5,657.23	91.5046	5,657.23	91.8493	5,657.23	89.9493	5,657.23	88.4172	5,657.23	85.8466	5,657.23	86.0577	5,657.23	84.2882	5,657.23	82.5832	5,657.23	82.7158	5,657.23	80.1615	5,657.23	78.8016	5,657.23	78.9408	5,657.23	77.6842	5,657.23	79.9121	5,657.23	79.7438	5,657.23	82.3639	5,657.23	79.8817	5,657.23	80.3198	5,657.23	80.8661	5,657.23	78.6855	5,657.23	80.3332	5,657.23	62.6365	5,657.23	67.8825
5,856.45	98.0807	5,856.45	97.4087	5,856.45	98.4902	5,856.45	96.8148	5,856.45	98.1634	5,856.45	96.576	5,856.45	96.59	5,856.45	95.8241	5,856.45	95.1139	5,856.45	94.74	5,856.45	94.1971	5,856.45	92.7186	5,856.45	93.3494	5,856.45	90.9562	5,856.45	91.4347	5,856.45	87.3672	5,856.45	89.4061	5,856.45	86.1415	5,856.45	85.4655	5,856.45	82.8364	5,856.45	83.6697	5,856.45	81.8966	5,856.45	82.6698	5,856.45	78.5669	5,856.45	79.1511	5,856.45	76.9761	5,856.45	79.8214	5,856.45	78.8362	5,856.45	81.1265	5,856.45	82.3478	5,856.45	82.0237	5,856.45	79.6849	5,856.45	79.8013	5,856.45	80.7158	5,856.45	56.6036	5,856.45	66.6969
6,062.99	98.4039	6,062.99	97.3419	6,062.99	99.2798	6,062.99	97.144	6,062.99	98.7374	6,062.99	96.7353	6,062.99	96.699	6,062.99	95.856	6,062.99	95.0704	6,062.99	94.3748	6,062.99	94.7221	6,062.99	93.4073	6,062.99	93.8466	6,062.99	90.6388	6,062.99	92.645	6,062.99	88.5666	6,062.99	89.5392	6,062.99	86.4407	6,062.99	86.5242	6,062.99	84.0761	6,062.99	83.4862	6,062.99	80.6348	6,062.99	81.1718	6,062.99	79.1162	6,062.99	78.8008	6,062.99	80.9075	6,062.99	77.8963	6,062.99	80.7318	6,062.99	79.6318	6,062.99	81.5828	6,062.99	81.7784	6,062.99	81.6693	6,062.99	78.4695	6,062.99	78.5189	6,062.99	66.1263	6,062.99	64.9147
6,276.86	98.2378	6,276.86	97.7343	6,276.86	98.84	6,276.86	96.9419	6,276.86	98.738	6,276.86	96.7757	6,276.86	96.7216	6,276.86	95.9868	6,276.86	95.36	6,276.86	94.8412	6,276.86	94.3501	6,276.86	93.0059	6,276.86	93.9266	6,276.86	91.3826	6,276.86	92.074	6,276.86	88.9217	6,276.86	89.5888	6,276.86	85.7849	6,276.86	86.6272	6,276.86	82.8194	6,276.86	82.4097	6,276.86	81.0395	6,276.86	81.5487	6,276.86	78.4537	6,276.86	79.9371	6,276.86	76.7103	6,276.86	78.0295	6,276.86	80.2251	6,276.86	78.3422	6,276.86	80.3219	6,276.86	80.8683	6,276.86	79.7284	6,276.86	80.907	6,276.86	80.5031	6,276.86	68.7765	6,276.86	67.0867
6,498.05	98.8199	6,498.05	97.8331	6,498.05	99.4456	6,498.05	97.1884	6,498.05	98.8512	6,498.05	96.7536	6,498.05	97.2253	6,498.05	96.0932	6,498.05	95.8871	6,498.05	94.7729	6,498.05	94.5714	6,498.05	93.4271	6,498.05	94.1469	6,498.05	90.328	6,498.05	91.8229	6,498.05	87.3966	6,498.05	90.057	6,498.05	86.1576	6,498.05	86.4691	6,498.05	83.4794	6,498.05	84.6343	6,498.05	79.1177	6,498.05	81.6014	6,498.05	79.8869	6,498.05	78.842	6,498.05	79.4935	6,498.05	79.3083	6,498.05	77.7196	6,498.05	80.2695	6,498.05	81.1533	6,498.05	79.7128	6,498.05	79.0484	6,498.05	80.4585	6,498.05	79.8418	6,498.05	70.8385	6,498.05	68.7406
6,726.56	98.9349	6,726.56	98.1789	6,726.56	99.3781	6,726.56	97.0999	6,726.56	98.8928	6,726.56	96.6681	6,726.56	97.1116	6,726.56	95.7443	6,726.56	95.4046	6,726.56	94.8444	6,726.56	94.3615	6,726.56	93.1226	6,726.56	93.8871	6,726.56	90.2652	6,726.56	92.3507	6,726.56	87.8977	6,726.56	89.5981	6,726.56	84.9243	6,726.56	86.5578	6,726.56	81.6365	6,726.56	82.6431	6,726.56	81.1099	6,726.56	79.7562	6,726.56	80.2377	6,726.56	78.5149	6,726.56	79.2553	6,726.56	76.545	6,726.56	79.577	6,726.56	77.0817	6,726.56	79.9103	6,726.56	80.7552	6,726.56	78.9228	6,726.56	79.8808	6,726.56	77.8997	6,726.56	66.2422	6,726.56	64.777
6,963.87	98.9742	6,963.87	98.2123	6,963.87	99.1971	6,963.87	96.9685	6,963.87	98.7171	6,963.87	96.053	6,963.87	97.253	6,963.87	95.4813	6,963.87	95.7577	6,963.87	94.4155	6,963.87	94.5451	6,963.87	92.5313	6,963.87	93.8667	6,963.87	89.9905	6,963.87	91.1437	6,963.87	87.6408	6,963.87	89.1439	6,963.87	84.8409	6,963.87	86.4805	6,963.87	82.4147	6,963.87	84.0288	6,963.87	80.2898	6,963.87	80.174	6,963.87	79.5113	6,963.87	76.8181	6,963.87	77.2894	6,963.87	78.8068	6,963.87	75.1422	6,963.87	78.9666	6,963.87	79.2376	6,963.87	79.6482	6,963.87	78.3256	6,963.87	79.5283	6,963.87	77.8743	6,963.87	60.7282	6,963.87	65.7104
7,209.96	99.1295	7,209.96	98.2155	7,209.96	99.1193	7,209.96	96.9013	7,209.96	98.4287	7,209.96	96.3755	7,209.96	96.9065	7,209.96	95.3679	7,209.96	94.8778	7,209.96	93.9574	7,209.96	93.7501	7,209.96	92.4296	7,209.96	92.8217	7,209.96	89.8553	7,209.96	91.2896	7,209.96	87.3042	7,209.96	88.4305	7,209.96	84.5503	7,209.96	86.1288	7,209.96	81.9231	7,209.96	82.8266	7,209.96	79.4797	7,209.96	80.0899	7,209.96	77.6841	7,209.96	77.0143	7,209.96	75.9591	7,209.96	78.2003	7,209.96	77.1914	7,209.96	79.5448	7,209.96	80.094	7,209.96	77.7184	7,209.96	78.9895	7,209.96	77.0212	7,209.96	77.9651	7,209.96	54.2607	7,209.96	66.0754
7,464.84	99.1247	7,464.84	98.4193	7,464.84	98.6879	7,464.84	96.7422	7,464.84	98.0705	7,464.84	95.8739	7,464.84	96.5811	7,464.84	94.6738	7,464.84	94.8103	7,464.84	93.4415	7,464.84	93.0536	7,464.84	91.4568	7,464.84	92.5469	7,464.84	88.931	7,464.84	90.0382	7,464.84	86.8553	7,464.84	88.5827	7,464.84	84.3945	7,464.84	85.8089	7,464.84	80.9901	7,464.84	82.4556	7,464.84	79.6828	7,464.84	78.9383	7,464.84	78.2093	7,464.84	76.2499	7,464.84	72.4762	7,464.84	77.3475	7,464.84	74.3654	7,464.84	76.9828	7,464.84	78.2138	7,464.84	78.0851	7,464.84	77.383	7,464.84	76.2126	7,464.84	74.9511	7,464.84	62.7349	7,464.84	64.5635
7,727.05	99.1675	7,727.05	98.3461	7,727.05	98.7169	7,727.05	96.9169	7,727.05	98.1939	7,727.05	95.8491	7,727.05	96.8143	7,727.05	94.545	7,727.05	94.3672	7,727.05	93.3062	7,727.05	92.6234	7,727.05	91.4422	7,727.05	91.9333	7,727.05	89.0936	7,727.05	89.949	7,727.05	86.9674	7,727.05	87.919	7,727.05	84.1122	7,727.05	84.4293	7,727.05	82.2394	7,727.05	80.6596	7,727.05	79.4168	7,727.05	79.5859	7,727.05	78.0247	7,727.05	76.0897	7,727.05	75.7276	7,727.05	76.9581	7,727.05	76.1463	7,727.05	79.4262	7,727.05	77.8676	7,727.05	75.8661	7,727.05	76.6077	7,727.05	74.8769	7,727.05	72.658	7,727.05	60.3089	7,727.05	61.7585
7,999.51	99.616	7,999.51	98.8574	7,999.51	98.9968	7,999.51	97.3262	7,999.51	98.3389	7,999.51	96.0971	7,999.51	97.0496	7,999.51	94.8432	7,999.51	94.8048	7,999.51	93.6729	7,999.51	92.9417	7,999.51	92.106	7,999.51	91.9218	7,999.51	90.0099	7,999.51	90.6845	7,999.51	87.0235	7,999.51	88.6941	7,999.51	84.0679	7,999.51	84.8398	7,999.51	82.1852	7,999.51	82.1294	7,999.51	79.9123	7,999.51	79.827	7,999.51	77.0245	7,999.51	75.4336	7,999.51	73.3435	7,999.51	74.3777	7,999.51	76.4554	7,999.51	77.1742	7,999.51	79.2742	7,999.51	76.6568	7,999.51	78.1943	7,999.51	75.972	7,999.51	74.0901	7,999.51	48.4685	7,999.51	64.7645
8,282.23	100.16	8,282.23	99.3572	8,282.23	99.5591	8,282.23	97.9929	8,282.23	99.0739	8,282.23	96.5159	8,282.23	97.7023	8,282.23	95.4191	8,282.23	94.9878	8,282.23	93.89	8,282.23	93.0289	8,282.23	92.2386	8,282.23	92.4751	8,282.23	89.3639	8,282.23	91.6718	8,282.23	87.1349	8,282.23	89.1559	8,282.23	85.1108	8,282.23	85.3224	8,282.23	82.2442	8,282.23	82.8195	8,282.23	79.0553	8,282.23	81.3855	8,282.23	77.1295	8,282.23	75.9847	8,282.23	74.6695	8,282.23	76.2075	8,282.23	76.0749	8,282.23	78.8512	8,282.23	78.1762	8,282.23	75.8175	8,282.23	76.1172	8,282.23	74.9475	8,282.23	71.8788	8,282.23	62.9696	8,282.23	62.2621
8,573.73	100.441	8,573.73	99.5882	8,573.73	99.9308	8,573.73	98.1433	8,573.73	99.2634	8,573.73	96.3503	8,573.73	97.8922	8,573.73	95.2617	8,573.73	95.3858	8,573.73	93.7343	8,573.73	93.4296	8,573.73	92.5183	8,573.73	92.7708	8,573.73	89.8072	8,573.73	92.0973	8,573.73	87.1191	8,573.73	89.5464	8,573.73	84.5587	8,573.73	85.9551	8,573.73	81.6228	8,573.73	83.6803	8,573.73	79.7872	8,573.73	80.777	8,573.73	77.1823	8,573.73	77.0696	8,573.73	72.217	8,573.73	75.7902	8,573.73	76.439	8,573.73	77.2732	8,573.73	78.3693	8,573.73	75.2271	8,573.73	75.8025	8,573.73	73.6425	8,573.73	71.0614	8,573.73	65.6118	8,573.73	60.094
8,876.95	100.289	8,876.95	99.4238	8,876.95	99.7867	8,876.95	97.7919	8,876.95	99.1416	8,876.95	95.9282	8,876.95	97.5406	8,876.95	94.9043	8,876.95	94.958	8,876.95	93.3983	8,876.95	92.4511	8,876.95	92.0577	8,876.95	92.4171	8,876.95	89.0904	8,876.95	91.34	8,876.95	87.3368	8,876.95	89.6423	8,876.95	84.7412	8,876.95	86.4082	8,876.95	80.6887	8,876.95	82.8618	8,876.95	78.1754	8,876.95	81.0532	8,876.95	75.937	8,876.95	76.5325	8,876.95	71.0071	8,876.95	76.8179	8,876.95	75.8206	8,876.95	75.227	8,876.95	76.2897	8,876.95	73.9139	8,876.95	73.7649	8,876.95	70.9322	8,876.95	68.6854	8,876.95	71.942	8,876.95	64.3343
9,188.96	100.044	9,188.96	99.3405	9,188.96	99.3902	9,188.96	97.7251	9,188.96	98.6556	9,188.96	95.8182	9,188.96	97.1076	9,188.96	94.5145	9,188.96	94.7305	9,188.96	93.2179	9,188.96	92.4707	9,188.96	91.8293	9,188.96	92.2215	9,188.96	89.1407	9,188.96	90.6765	9,188.96	86.1081	9,188.96	89.2376	9,188.96	83.478	9,188.96	85.3993	9,188.96	79.8077	9,188.96	81.8095	9,188.96	78.2428	9,188.96	79.3596	9,188.96	76.7829	9,188.96	74.2434	9,188.96	73.3236	9,188.96	76.7291	9,188.96	74.7783	9,188.96	72.47	9,188.96	76.8297	9,188.96	74.8255	9,188.96	75.7546	9,188.96	70.5295	9,188.96	68.2181	9,188.96	67.9572	9,188.96	65.4833
9,514.16	99.9179	9,514.16	99.2728	9,514.16	99.3968	9,514.16	97.7557	9,514.16	98.5528	9,514.16	95.8707	9,514.16	96.8609	9,514.16	94.3743	9,514.16	94.5715	9,514.16	93.1542	9,514.16	92.3376	9,514.16	91.591	9,514.16	91.5411	9,514.16	89.0882	9,514.16	89.6054	9,514.16	86.8838	9,514.16	88.7724	9,514.16	83.7294	9,514.16	84.9906	9,514.16	80.9378	9,514.16	80.5543	9,514.16	78.1077	9,514.16	78.4302	9,514.16	75.3703	9,514.16	73.7471	9,514.16	73.4241	9,514.16	74.4895	9,514.16	73.2543	9,514.16	72.7362	9,514.16	75.5264	9,514.16	72.2777	9,514.16	73.702	9,514.16	69.4657	9,514.16	69.9217	9,514.16	70.2086	9,514.16	63.9175
9,849.61	100.078	9,849.61	99.4097	9,849.61	99.6121	9,849.61	97.9277	9,849.61	98.617	9,849.61	95.9343	9,849.61	96.7152	9,849.61	94.3968	9,849.61	94.7239	9,849.61	92.7714	9,849.61	92.6453	9,849.61	91.4841	9,849.61	91.4578	9,849.61	88.9015	9,849.61	89.0769	9,849.61	86.498	9,849.61	88.2061	9,849.61	83.3896	9,849.61	84.6445	9,849.61	81.2687	9,849.61	80.2673	9,849.61	77.69	9,849.61	75.6581	9,849.61	75.3425	9,849.61	71.7933	9,849.61	72.9337	9,849.61	73.8505	9,849.61	73.5035	9,849.61	71.1347	9,849.61	74.4444	9,849.61	72.6295	9,849.61	74.1088	9,849.61	67.6971	9,849.61	68.3044	9,849.61	68.6316	9,849.61	63.0345
10,196.8	100.394	10,196.8	99.7306	10,196.8	99.946	10,196.8	98.2842	10,196.8	98.7663	10,196.8	96.3961	10,196.8	96.8466	10,196.8	94.614	10,196.8	94.8959	10,196.8	93.2211	10,196.8	92.7799	10,196.8	91.7192	10,196.8	91.0223	10,196.8	88.9877	10,196.8	88.946	10,196.8	86.1533	10,196.8	87.816	10,196.8	83.2698	10,196.8	84.2336	10,196.8	80.7932	10,196.8	79.2554	10,196.8	77.4134	10,196.8	74.8097	10,196.8	74.83	10,196.8	72.8047	10,196.8	70.9016	10,196.8	71.5169	10,196.8	72.407	10,196.8	72.1883	10,196.8	72.6088	10,196.8	70.9744	10,196.8	73.4511	10,196.8	67.1893	10,196.8	63.9914	10,196.8	69.2436	10,196.8	64.7093
10,555.7	100.561	10,555.7	99.9335	10,555.7	100.161	10,555.7	98.4757	10,555.7	99.0122	10,555.7	96.3796	10,555.7	97.112	10,555.7	94.5149	10,555.7	95.2269	10,555.7	93.3754	10,555.7	92.8561	10,555.7	91.7212	10,555.7	90.582	10,555.7	88.4099	10,555.7	88.5023	10,555.7	86.1602	10,555.7	87.3247	10,555.7	82.7677	10,555.7	83.6649	10,555.7	79.4828	10,555.7	79.1054	10,555.7	77.2557	10,555.7	75.0187	10,555.7	73.9568	10,555.7	73.5465	10,555.7	69.4085	10,555.7	69.9858	10,555.7	72.5343	10,555.7	72.3127	10,555.7	72.2604	10,555.7	69.3541	10,555.7	73.2302	10,555.7	66.655	10,555.7	63.3746	10,555.7	66.9997	10,555.7	64.794
10,927.7	100.59	10,927.7	99.9323	10,927.7	100.257	10,927.7	98.4115	10,927.7	98.9765	10,927.7	96.1637	10,927.7	97.0186	10,927.7	94.2375	10,927.7	95.0481	10,927.7	92.5458	10,927.7	92.52	10,927.7	90.8267	10,927.7	90.1104	10,927.7	87.751	10,927.7	88.1111	10,927.7	85.9661	10,927.7	86.718	10,927.7	81.678	10,927.7	83.6082	10,927.7	78.9399	10,927.7	79.333	10,927.7	75.5743	10,927.7	73.9812	10,927.7	74.0918	10,927.7	72.8356	10,927.7	70.5403	10,927.7	69.0474	10,927.7	71.6261	10,927.7	72.2887	10,927.7	72.286	10,927.7	69.2551	10,927.7	73.453	10,927.7	65.7169	10,927.7	62.0018	10,927.7	67.9873	10,927.7	63.8411
11,313	100.448	11,313	99.7327	11,313	100.104	11,313	98.1693	11,313	98.8066	11,313	95.8353	11,313	96.7957	11,313	93.6761	11,313	94.6295	11,313	91.7115	11,313	92.0583	11,313	90.216	11,313	89.5268	11,313	87.8452	11,313	87.848	11,313	85.0139	11,313	85.983	11,313	81.2977	11,313	82.6581	11,313	78.9223	11,313	78.0873	11,313	74.9885	11,313	73.244	11,313	73.7261	11,313	71.7989	11,313	72.1106	11,313	68.596	11,313	68.5324	11,313	67.6372	11,313	70.8671	11,313	66.3035	11,313	72.5264	11,313	59.2347	11,313	64.3266	11,313	67.5208	11,313	58.0785
11,712.9	100.29	11,712.9	99.4711	11,712.9	100.003	11,712.9	97.8804	11,712.9	98.5774	11,712.9	95.1918	11,712.9	96.545	11,712.9	93.3588	11,712.9	94.3224	11,712.9	91.4674	11,712.9	91.5556	11,712.9	90.0636	11,712.9	89.066	11,712.9	86.8793	11,712.9	87.3696	11,712.9	84.0203	11,712.9	85.4463	11,712.9	80.8432	11,712.9	81.9661	11,712.9	78.4523	11,712.9	75.1135	11,712.9	74.9912	11,712.9	71.2877	11,712.9	72.8686	11,712.9	71.1872	11,712.9	71.8616	11,712.9	64.6607	11,712.9	70.5353	11,712.9	63.4448	11,712.9	68.8679	11,712.9	63.5619	11,712.9	73.7575	11,712.9	54.2982	11,712.9	58.5817	11,712.9	69.1361	11,712.9	57.2816
12,126	100.301	12,126	99.4694	12,126	100.032	12,126	97.7842	12,126	98.4927	12,126	95.0811	12,126	96.5531	12,126	93.2439	12,126	94.4268	12,126	91.1609	12,126	91.6057	12,126	89.7364	12,126	89.3109	12,126	86.2947	12,126	87.2299	12,126	84.2934	12,126	85.373	12,126	80.0818	12,126	82.0479	12,126	77.1166	12,126	75.5279	12,126	74.5793	12,126	72.1183	12,126	70.5398	12,126	71.5718	12,126	72.3458	12,126	65.9071	12,126	66.8912	12,126	66.624	12,126	66.8575	12,126	65.4626	12,126	71.7149	12,126	58.6314	12,126	51.659	12,126	66.8058	12,126	60.8104
12,553.7	100.282	12,553.7	99.4973	12,553.7	99.9812	12,553.7	97.7108	12,553.7	98.6622	12,553.7	95.3183	12,553.7	96.9278	12,553.7	93.108	12,553.7	94.8262	12,553.7	90.9291	12,553.7	92.0787	12,553.7	88.9324	12,553.7	89.6857	12,553.7	86.4214	12,553.7	87.6132	12,553.7	84.0089	12,553.7	85.7877	12,553.7	79.6918	12,553.7	82.4517	12,553.7	77.072	12,553.7	77.9897	12,553.7	75.6942	12,553.7	72.6914	12,553.7	71.6169	12,553.7	71.2358	12,553.7	70.7778	12,553.7	67.4222	12,553.7	67.0108	12,553.7	65.0523	12,553.7	65.4796	12,553.7	66.797	12,553.7	68.8097	12,553.7	60.0786	12,553.7	56.0585	12,553.7	62.7362	12,553.7	61.6397
12,996.1	100.025	12,996.1	99.2024	12,996.1	99.7254	12,996.1	97.3691	12,996.1	98.5176	12,996.1	94.8709	12,996.1	96.8897	12,996.1	92.5111	12,996.1	94.8681	12,996.1	90.1198	12,996.1	92.2332	12,996.1	88.526	12,996.1	89.4024	12,996.1	85.8908	12,996.1	87.816	12,996.1	82.8382	12,996.1	85.1219	12,996.1	79.0544	12,996.1	81.8844	12,996.1	76.495	12,996.1	77.8459	12,996.1	75.0255	12,996.1	71.3695	12,996.1	69.2461	12,996.1	69.9363	12,996.1	68.915	12,996.1	70.6571	12,996.1	65.0673	12,996.1	64.6378	12,996.1	65.9103	12,996.1	63.8344	12,996.1	68.7473	12,996.1	62.0338	12,996.1	52.0477	12,996.1	63.4669	12,996.1	57.6042
13,454.6	99.6721	13,454.6	98.7733	13,454.6	99.4456	13,454.6	97.0565	13,454.6	98.1864	13,454.6	94.4987	13,454.6	96.6837	13,454.6	92.2989	13,454.6	94.6929	13,454.6	89.5519	13,454.6	91.8617	13,454.6	88.5182	13,454.6	89.2594	13,454.6	84.8811	13,454.6	87.397	13,454.6	82.3358	13,454.6	84.3999	13,454.6	78.2398	13,454.6	81.2124	13,454.6	74.3552	13,454.6	75.6385	13,454.6	74.0128	13,454.6	70.2469	13,454.6	66.2274	13,454.6	69.2212	13,454.6	69.182	13,454.6	70.1995	13,454.6	58.8205	13,454.6	66.5048	13,454.6	63.4782	13,454.6	64.6935	13,454.6	69.484	13,454.6	54.2638	13,454.6	56.1236	13,454.6	66.4649	13,454.6	59.2489
13,929.2	99.3134	13,929.2	98.401	13,929.2	99.0583	13,929.2	96.5807	13,929.2	98.0551	13,929.2	94.0641	13,929.2	96.4407	13,929.2	91.6864	13,929.2	94.4898	13,929.2	89.0008	13,929.2	91.2511	13,929.2	87.6332	13,929.2	89.1518	13,929.2	84.2956	13,929.2	86.6767	13,929.2	81.2039	13,929.2	83.8193	13,929.2	76.3428	13,929.2	80.4486	13,929.2	72.9094	13,929.2	75.7491	13,929.2	73.2884	13,929.2	69.9763	13,929.2	66.1513	13,929.2	68.1212	13,929.2	68.1646	13,929.2	65.8904	13,929.2	50.9055	13,929.2	63.607	13,929.2	61.2228	13,929.2	64.3222	13,929.2	67.0549	13,929.2	53.5007	13,929.2	45.9943	13,929.2	64.5738	13,929.2	59.0637
14,419.9	98.8886	14,419.9	97.9094	14,419.9	98.6659	14,419.9	96.0879	14,419.9	97.7175	14,419.9	93.369	14,419.9	96.0443	14,419.9	90.8339	14,419.9	94.0081	14,419.9	88.3892	14,419.9	90.6921	14,419.9	86.8412	14,419.9	88.2873	14,419.9	83.3361	14,419.9	85.2931	14,419.9	79.4725	14,419.9	82.341	14,419.9	76.6987	14,419.9	78.6111	14,419.9	72.3244	14,419.9	73.8056	14,419.9	70.4892	14,419.9	65.9763	14,419.9	63.7323	14,419.9	65.2758	14,419.9	66.9801	14,419.9	65.8396	14,419.9	51.5154	14,419.9	63.1736	14,419.9	61.2679	14,419.9	64.7323	14,419.9	67.0682	14,419.9	43.7172	14,419.9	52.5379	14,419.9	60.9426	14,419.9	59.6051
14,928.2	98.6786	14,928.2	97.5877	14,928.2	98.5246	14,928.2	95.8156	14,928.2	97.6073	14,928.2	93.0676	14,928.2	95.8421	14,928.2	90.3887	14,928.2	93.7148	14,928.2	88.3347	14,928.2	89.9875	14,928.2	85.3418	14,928.2	87.0555	14,928.2	81.7002	14,928.2	83.6541	14,928.2	79.0088	14,928.2	79.7539	14,928.2	74.3715	14,928.2	75.7431	14,928.2	69.5591	14,928.2	71.7027	14,928.2	68.0111	14,928.2	62.8235	14,928.2	63.698	14,928.2	62.2914	14,928.2	66.0902	14,928.2	63.2799	14,928.2	44.2853	14,928.2	58.5549	14,928.2	60.8966	14,928.2	60.695	14,928.2	66.054	14,928.2	52.208	14,928.2	53.2311	14,928.2	56.0785	14,928.2	61.1136
15,455.6	98.7987	15,455.6	97.7211	15,455.6	98.5743	15,455.6	95.9626	15,455.6	97.49	15,455.6	92.9696	15,455.6	95.8209	15,455.6	90.5439	15,455.6	93.3623	15,455.6	87.4275	15,455.6	89.6054	15,455.6	84.0915	15,455.6	86.0063	15,455.6	81.0063	15,455.6	81.949	15,455.6	76.4363	15,455.6	78.0816	15,455.6	72.815	15,455.6	75.7455	15,455.6	68.6031	15,455.6	70.0318	15,455.6	67.0453	15,455.6	56.9765	15,455.6	60.8923	15,455.6	61.3632	15,455.6	66.0185	15,455.6	64.3205	15,455.6	47.1497	15,455.6	58.1757	15,455.6	58.1773	15,455.6	62.9739	15,455.6	64.4635	15,455.6	56.7157	15,455.6	51.8998	15,455.6	57.8787	15,455.6	59.3391
16,000.5	98.8605	16,000.5	97.7791	16,000.5	98.5024	16,000.5	96.2536	16,000.5	97.4279	16,000.5	93.5273	16,000.5	95.7948	16,000.5	90.7608	16,000.5	93.0602	16,000.5	87.5241	16,000.5	89.2224	16,000.5	83.7285	16,000.5	85.0175	16,000.5	79.8303	16,000.5	80.5293	16,000.5	75.3198	16,000.5	77.1773	16,000.5	71.7876	16,000.5	74.7432	16,000.5	66.708	16,000.5	69.8693	16,000.5	67.3412	16,000.5	60.3867	16,000.5	61.1289	16,000.5	58.9259	16,000.5	65.6628	16,000.5	64.3683	16,000.5	30.3925	16,000.5	58.3797	16,000.5	58.7443	16,000.5	56.8397	16,000.5	62.6638	16,000.5	51.3433	16,000.5	56.4364	16,000.5	62.4552	16,000.5	60.5561
16,564.5	98.7805	16,564.5	97.8972	16,564.5	98.4543	16,564.5	96.6673	16,564.5	97.6286	16,564.5	93.9472	16,564.5	95.9677	16,564.5	91.0324	16,564.5	93.1062	16,564.5	87.4601	16,564.5	88.5212	16,564.5	83.3052	16,564.5	84.4255	16,564.5	79.7446	16,564.5	78.3545	16,564.5	74.8703	16,564.5	75.2224	16,564.5	71.6103	16,564.5	74.2005	16,564.5	66.5198	16,564.5	69.6385	16,564.5	64.1035	16,564.5	55.9056	16,564.5	63.9552	16,564.5	64.5859	16,564.5	63.6264	16,564.5	64.6881	16,564.5	51.9544	16,564.5	58.1987	16,564.5	54.5611	16,564.5	54.5281	16,564.5	61.4166	16,564.5	55.158	16,564.5	59.7294	16,564.5	65.8143	16,564.5	62.3896
17,148.9	99.0501	17,148.9	98.3197	17,148.9	98.7511	17,148.9	97.3088	17,148.9	98.0046	17,148.9	94.4342	17,148.9	96.1818	17,148.9	91.1501	17,148.9	92.8925	17,148.9	87.2322	17,148.9	87.8547	17,148.9	82.7191	17,148.9	82.919	17,148.9	78.5344	17,148.9	75.8272	17,148.9	73.8315	17,148.9	74.4303	17,148.9	72.0373	17,148.9	74.4864	17,148.9	66.2684	17,148.9	70.5539	17,148.9	63.1373	17,148.9	52.4051	17,148.9	65.1002	17,148.9	66.1237	17,148.9	63.4211	17,148.9	66.0753	17,148.9	52.8009	17,148.9	56.5599	17,148.9	54.4034	17,148.9	41.7893	17,148.9	63.1282	17,148.9	55.357	17,148.9	62.1157	17,148.9	66.9673	17,148.9	63.8108
17,752.4	99.3278	17,752.4	98.7709	17,752.4	99.0375	17,752.4	97.7776	17,752.4	98.2272	17,752.4	94.6678	17,752.4	96.1706	17,752.4	90.8357	17,752.4	92.4228	17,752.4	86.7716	17,752.4	86.7611	17,752.4	81.5989	17,752.4	81.551	17,752.4	77.1073	17,752.4	74.2954	17,752.4	73.089	17,752.4	73.739	17,752.4	70.5577	17,752.4	74.7552	17,752.4	65.4964	17,752.4	71.1517	17,752.4	62.0261	17,752.4	61.4372	17,752.4	66.782	17,752.4	67.3324	17,752.4	59.78	17,752.4	67.0121	17,752.4	55.9216	17,752.4	55.5183	17,752.4	57.2765	17,752.4	51.3648	17,752.4	59.4571	17,752.4	56.5585	17,752.4	63.3595	17,752.4	68.1763	17,752.4	66.2104
18,379.4	99.0332	18,379.4	98.5393	18,379.4	98.8647	18,379.4	97.4729	18,379.4	97.8857	18,379.4	94.0537	18,379.4	95.3494	18,379.4	89.943	18,379.4	90.9859	18,379.4	85.5685	18,379.4	84.8294	18,379.4	79.7383	18,379.4	78.7847	18,379.4	75.6566	18,379.4	70.6887	18,379.4	70.2485	18,379.4	71.5867	18,379.4	71.3927	18,379.4	73.7159	18,379.4	67.9524	18,379.4	71.2577	18,379.4	60.1677	18,379.4	64.5133	18,379.4	67.5772	18,379.4	67.2954	18,379.4	58.4657	18,379.4	67.1387	18,379.4	54.8286	18,379.4	50.862	18,379.4	57.9893	18,379.4	37.5375	18,379.4	60.5662	18,379.4	54.7094	18,379.4	64.5156	18,379.4	68.6823	18,379.4	66.723
19,026.9	98.3864	19,026.9	97.7547	19,026.9	98.2605	19,026.9	96.4153	19,026.9	97.1238	19,026.9	92.586	19,026.9	94.1608	19,026.9	88.6126	19,026.9	89.4221	19,026.9	83.4254	19,026.9	82.4519	19,026.9	77.8963	19,026.9	75.4113	19,026.9	74.5735	19,026.9	67.9507	19,026.9	69.2239	19,026.9	70.0172	19,026.9	71.0345	19,026.9	72.4294	19,026.9	68.8553	19,026.9	69.7391	19,026.9	59.9527	19,026.9	66.4221	19,026.9	67.4451	19,026.9	65.8923	19,026.9	54.4415	19,026.9	66.5675	19,026.9	56.8422	19,026.9	53.8986	19,026.9	52.2586	19,026.9	54.9687	19,026.9	61.5009	19,026.9	55.2804	19,026.9	65.4512	19,026.9	67.6015	19,026.9	67.3783
19,697.8	97.9803	19,697.8	97.255	19,697.8	97.8868	19,697.8	95.6323	19,697.8	96.4069	19,697.8	91.3145	19,697.8	92.8136	19,697.8	87.0058	19,697.8	87.4779	19,697.8	81.4266	19,697.8	79.8257	19,697.8	75.5334	19,697.8	70.2185	19,697.8	72.9097	19,697.8	62.9622	19,697.8	67.8135	19,697.8	68.9086	19,697.8	69.5777	19,697.8	71.4035	19,697.8	68.4794	19,697.8	69.1797	19,697.8	62.66	19,697.8	68.53	19,697.8	66.6976	19,697.8	64.802	19,697.8	49.8951	19,697.8	67.271	19,697.8	55.352	19,697.8	56.4129	19,697.8	49.3986	19,697.8	56.6581	19,697.8	62.8563	19,697.8	57.637	19,697.8	64.5141	19,697.8	66.5649	19,697.8	67.0629
19,999.5	97.8005	19,999.5	97.0299	19,999.5	97.7136	19,999.5	95.2301	19,999.5	96.1057	19,999.5	90.6648	19,999.5	92.0438	19,999.5	86.2954	19,999.5	86.3979	19,999.5	80.0747	19,999.5	78.1335	19,999.5	74.5517	19,999.5	68.5079	19,999.5	72.6041	19,999.5	59.3099	19,999.5	67.813	19,999.5	68.2482	19,999.5	69.0331	19,999.5	73.0359	19,999.5	67.4436	19,999.5	68.0801	19,999.5	66.4269	19,999.5	68.8559	19,999.5	69.1067	19,999.5	64.2147	19,999.5	59.6033	19,999.5	65.2091	19,999.5	47.5086	19,999.5	64.6209	19,999.5	59.3636	19,999.5	61.2835	19,999.5	61.8601	19,999.5	64.0278	19,999.5	68.013	19,999.5	65.9504	19,999.5	67.2994
