"Early Reflections"											
"Floor Bounce"		"Ceiling Bounce"		"Front Wall Bounce"		"Side Wall Bounce"		"Rear Wall Bounce"		"Total Early Reflection"	
"Frequency [Hz]"	"Sound Pessure Level [dB]  / [2.83V 1m] "	"Frequency [Hz]"	"Sound Pessure Level [dB]  / [2.83V 1m] "	"Frequency [Hz]"	"Sound Pessure Level [dB]  / [2.83V 1m] "	"Frequency [Hz]"	"Sound Pessure Level [dB]  / [2.83V 1m] "	"Frequency [Hz]"	"Sound Pessure Level [dB]  / [2.83V 1m] "	"Frequency [Hz]"	"Sound Pessure Level [dB]  / [2.83V 1m] "
20.5078	51.8518	20.5078	53.5207	20.5078	52.5133	20.5078	52.654	20.5078	52.9037	20.5078	52.6725
21.9727	54.3659	21.9727	55.6736	21.9727	54.8975	21.9727	54.8979	21.9727	54.8369	21.9727	54.9309
23.4375	56.2803	23.4375	57.7461	23.4375	56.9136	23.4375	56.8875	23.4375	56.7778	23.4375	56.926
24.9023	58.662	24.9023	59.7926	24.9023	59.1548	24.9023	59.0981	24.9023	58.9456	24.9023	59.135
26.3672	60.7176	26.3672	61.6859	26.3672	61.1538	26.3672	61.0593	26.3672	60.8356	26.3672	61.0996
27.832	63.1386	27.832	63.804	27.832	63.4399	27.832	63.3521	27.832	63.1635	27.832	63.3855
29.2969	65.0886	29.2969	65.667	29.2969	65.3667	29.2969	65.2519	29.2969	64.9964	29.2969	65.2862
30.7617	67.1018	30.7617	67.5119	30.7617	67.312	30.7617	67.1951	30.7617	66.9599	30.7617	67.2277
32.2266	68.6993	32.2266	68.9701	32.2266	68.8608	32.2266	68.7191	32.2266	68.4395	32.2266	68.7541
33.6914	70.1036	33.6914	70.2585	33.6914	70.2201	33.6914	70.0696	33.6914	69.7751	33.6914	70.104
35.1563	71.1832	35.1563	71.237	35.1563	71.259	35.1563	71.1091	35.1563	70.8198	35.1563	71.1414
36.6211	71.8336	36.6211	71.812	36.6211	71.883	36.6211	71.7223	36.6211	71.4194	36.6211	71.756
38.0859	72.39	38.0859	72.2873	38.0859	72.4087	38.0859	72.243	38.0859	71.9323	38.0859	72.2761
39.5508	72.7458	39.5508	72.5756	39.5508	72.7378	39.5508	72.5708	39.5508	72.2646	39.5508	72.6036
41.0156	72.9782	41.0156	72.7601	41.0156	72.9552	41.0156	72.7781	41.0156	72.4604	41.0156	72.8128
42.4805	73.3071	42.4805	73.0245	42.4805	73.259	42.4805	73.0793	42.4805	72.756	42.4805	73.1133
43.9453	73.4612	43.9453	73.1388	43.9453	73.3988	43.9453	73.2146	43.9453	72.8908	43.9453	73.2497
45.4102	73.6201	45.4102	73.2703	45.4102	73.5511	45.4102	73.3576	45.4102	73.0204	45.4102	73.3945
46.875	73.8705	46.875	73.4692	46.875	73.7834	46.875	73.582	46.875	73.228	46.875	73.6197
48.3398	74.0623	48.3398	73.623	48.3398	73.9577	48.3398	73.7598	48.3398	73.4118	48.3398	73.7962
51.2695	74.4665	51.2695	73.9804	51.2695	74.3409	51.2695	74.1513	51.2695	73.836	51.2695	74.1866
52.7344	74.6679	52.7344	74.1533	52.7344	74.5318	52.7344	74.3422	52.7344	74.0309	52.7344	74.3773
54.1992	74.8066	54.1992	74.281	54.1992	74.6644	54.1992	74.4794	54.1992	74.1836	54.1992	74.514
55.6641	75.0096	55.6641	74.4617	55.6641	74.8646	55.6641	74.6664	55.6641	74.3642	55.6641	74.7053
58.5938	75.6102	58.5938	74.9914	58.5938	75.4462	58.5938	75.2145	58.5938	74.8402	58.5938	75.2597
60.0586	75.8307	60.0586	75.1925	60.0586	75.6596	60.0586	75.4286	60.0586	75.0603	60.0586	75.4736
62.9883	76.3017	62.9883	75.6198	62.9883	76.1141	62.9883	75.8824	62.9883	75.5117	62.9883	75.9266
64.4531	76.5137	64.4531	75.817	64.4531	76.3181	64.4531	76.0909	64.4531	75.7391	64.4531	76.1351
67.3828	77.0061	67.3828	76.2741	67.3828	76.7964	67.3828	76.5691	67.3828	76.2322	67.3828	76.6144
68.8477	77.2437	68.8477	76.4864	68.8477	77.0256	68.8477	76.7933	68.8477	76.4569	68.8477	76.8405
71.7773	77.7274	71.7773	76.9402	71.7773	77.504	71.7773	77.2542	71.7773	76.9009	71.7773	77.3067
74.707	78.2831	74.707	77.4874	74.707	78.0579	74.707	77.8019	74.707	77.4356	74.707	77.8557
77.6367	78.7528	77.6367	77.9231	77.6367	78.5164	77.6367	78.2545	77.6367	77.8904	77.6367	78.3106
79.1016	78.9336	79.1016	78.092	79.1016	78.6937	79.1016	78.4281	79.1016	78.0643	79.1016	78.4857
82.0313	79.358	82.0313	78.5086	82.0313	79.113	82.0313	78.8465	82.0313	78.4893	82.0313	78.9057
84.9609	79.7995	84.9609	78.9179	84.9609	79.5396	84.9609	79.2802	84.9609	78.9669	84.9609	79.3404
87.8906	80.1823	87.8906	79.2793	87.8906	79.9299	87.8906	79.6363	87.8906	79.2833	87.8906	79.706
90.8203	80.5926	90.8203	79.6673	90.8203	80.3402	90.8203	80.0265	90.8203	79.6425	90.8203	80.101
95.2148	81.1291	95.2148	80.1906	95.2148	80.8729	95.2148	80.548	95.2148	80.1277	95.2148	80.6241
98.1445	81.4838	98.1445	80.5298	98.1445	81.2227	98.1445	80.8864	98.1445	80.4809	98.1445	80.9695
101.074	81.7925	101.074	80.8191	101.074	81.53	101.074	81.1754	101.074	80.748	101.074	81.264
105.469	82.2851	105.469	81.2775	105.469	82.0146	105.469	81.6414	105.469	81.2001	105.469	81.7366
108.398	82.6434	108.398	81.6539	108.398	82.3824	108.398	82.0143	108.398	81.5622	108.398	82.1054
112.793	83.0334	112.793	81.9887	112.793	82.7486	112.793	82.3748	112.793	81.9686	112.793	82.4734
117.188	83.347	117.188	82.2699	117.188	83.0627	117.188	82.6443	117.188	82.2015	117.188	82.7591
120.117	83.5707	120.117	82.4747	120.117	83.2853	120.117	82.8499	120.117	82.3986	120.117	82.971
124.512	83.9236	124.512	82.8048	124.512	83.6337	124.512	83.1833	124.512	82.7206	124.512	83.3099
128.906	84.0602	128.906	82.8981	128.906	83.7621	128.906	83.2823	128.906	82.7763	128.906	83.4175
133.301	84.1957	133.301	83.0083	133.301	83.8828	133.301	83.4068	133.301	82.9221	133.301	83.5431
139.16	84.3524	139.16	83.096	139.16	84.0258	139.16	83.5177	139.16	83.0291	139.16	83.6667
143.555	84.4031	143.555	83.1043	143.555	84.072	143.555	83.5248	143.555	82.9933	143.555	83.6871
147.949	84.4372	147.949	83.0618	147.949	84.0867	147.949	83.4988	147.949	82.9226	147.949	83.6753
153.809	84.4196	153.809	82.9983	153.809	84.0659	153.809	83.4602	153.809	82.824	153.809	83.6366
159.668	84.5141	159.668	83.0609	159.668	84.1489	159.668	83.5477	159.668	82.9483	159.668	83.7248
165.527	84.5266	165.527	83.0833	165.527	84.1753	165.527	83.5496	165.527	82.992	165.527	83.7415
171.387	84.4257	171.387	82.9405	171.387	84.0743	171.387	83.3902	171.387	82.8085	171.387	83.607
177.246	84.2851	177.246	82.7796	177.246	83.9363	177.246	83.2176	177.246	82.5979	177.246	83.4468
183.105	84.1174	183.105	82.4384	183.105	83.7305	183.105	82.9252	183.105	82.2567	183.105	83.1889
188.965	84.0288	188.965	82.2899	188.965	83.643	188.965	82.7696	188.965	81.8719	188.965	83.0438
196.289	83.7644	196.289	82.0853	196.289	83.3727	196.289	82.5673	196.289	81.7809	196.289	82.8214
203.613	83.4407	203.613	81.7645	203.613	83.0741	203.613	82.1799	203.613	81.4173	203.613	82.4791
210.938	83.3687	210.938	81.4216	210.938	82.9334	210.938	81.9432	210.938	81.0289	210.938	82.2727
218.262	83.0142	218.262	81.0634	218.262	82.5763	218.262	81.5643	218.262	80.6254	218.262	81.9041
225.586	82.7922	225.586	80.6223	225.586	82.2994	225.586	81.2066	225.586	80.235	225.586	81.5817
232.91	82.8135	232.91	80.4715	232.91	82.2523	232.91	81.0985	232.91	79.8574	232.91	81.4871
241.699	82.3249	241.699	79.4167	241.699	81.4925	241.699	80.3527	241.699	78.9287	241.699	80.7369
250.488	82.4733	250.488	77.6993	250.488	81.2011	250.488	79.8239	250.488	78.3166	250.488	80.3121
259.277	84.5234	259.277	80.4258	259.277	83.5729	259.277	82.232	259.277	80.5747	259.277	82.6526
268.066	85.195	268.066	81.9018	268.066	84.5296	268.066	83.2145	268.066	81.7122	268.066	83.6207
276.855	85.006	276.855	82.5996	276.855	84.709	276.855	83.4183	276.855	81.8354	276.855	83.7887
287.109	84.242	287.109	82.3021	287.109	84.1149	287.109	82.7433	287.109	81.1682	287.109	83.1623
297.363	83.8019	297.363	81.8996	297.363	83.6632	297.363	82.1792	297.363	80.557	297.363	82.6666
307.617	83.555	307.617	81.5633	307.617	83.3625	307.617	82.0047	307.617	80.4017	307.617	82.4248
319.336	83.0598	319.336	81.0897	319.336	82.8875	319.336	81.4694	319.336	79.875	319.336	81.9221
329.59	83.081	329.59	80.9107	329.59	82.8602	329.59	81.3819	329.59	79.4678	329.59	81.8407
341.309	82.728	341.309	80.3983	341.309	82.3866	341.309	81.0388	341.309	79.3171	341.309	81.4498
353.027	82.4375	353.027	79.855	353.027	82.1309	353.027	80.4956	353.027	78.6038	353.027	81.0325
366.211	82.3029	366.211	79.6786	366.211	81.9934	366.211	80.4473	366.211	78.1083	366.211	80.9
379.395	82.6502	379.395	80.0786	379.395	82.3992	379.395	80.9411	379.395	78.7259	379.395	81.3399
392.578	82.5947	392.578	79.9343	392.578	82.263	392.578	80.8934	392.578	79.0354	392.578	81.2761
405.762	82.0239	405.762	79.602	405.762	81.9286	405.762	80.0815	405.762	78.7971	405.762	80.7492
420.41	82.9358	420.41	80.1036	420.41	82.9068	420.41	80.3597	420.41	78.2141	420.41	81.3517
435.059	82.4271	435.059	80.3043	435.059	82.5197	435.059	80.5609	435.059	78.1271	435.059	81.2027
451.172	82.4729	451.172	80.085	451.172	82.5373	451.172	80.5399	451.172	78.0728	451.172	81.1861
465.82	82.4953	465.82	80.5293	465.82	82.6809	465.82	80.8042	465.82	78.11	465.82	81.3734
483.398	82.4091	483.398	80.6435	483.398	82.7232	483.398	80.9647	483.398	78.3867	483.398	81.457
499.512	82.1815	499.512	80.6748	499.512	82.4517	499.512	80.9036	499.512	78.4997	499.512	81.3168
517.09	82.642	517.09	80.851	517.09	82.8077	517.09	81.1011	517.09	78.5118	517.09	81.595
536.133	81.9261	536.133	79.8782	536.133	82.1168	536.133	80.4302	536.133	78.2204	536.133	80.9046
555.176	82.5377	555.176	79.8884	555.176	82.8913	555.176	81.1786	555.176	78.2624	555.176	81.5388
574.219	82.6171	574.219	80.3242	574.219	83.0073	574.219	81.5107	574.219	78.7516	574.219	81.7736
594.727	81.3872	594.727	80.0124	594.727	82.0775	594.727	81.1268	594.727	79.0178	594.727	81.1377
615.234	82.0589	615.234	79.8128	615.234	82.6326	615.234	80.9693	615.234	78.6086	615.234	81.3163
637.207	82.6479	637.207	79.4867	637.207	82.799	637.207	81.4013	637.207	79.1831	637.207	81.6268
659.18	82.9311	659.18	79.9757	659.18	83.3259	659.18	81.2519	659.18	78.9239	659.18	81.8286
682.617	83.1413	682.617	80.295	682.617	83.5642	682.617	81.6542	682.617	79.5684	682.617	82.1496
707.52	84.0081	707.52	80.6784	707.52	84.4771	707.52	82.3792	707.52	80.3676	707.52	82.9465
732.422	84.5303	732.422	81.582	732.422	85.396	732.422	82.6702	732.422	80.6974	732.422	83.566
757.324	84.979	757.324	82.5804	757.324	85.916	757.324	82.6856	757.324	80.6057	757.324	83.9268
785.156	85.7385	785.156	83.307	785.156	86.5095	785.156	83.1455	785.156	80.2439	785.156	84.4722
811.523	84.5795	811.523	83.5084	811.523	86.3166	811.523	82.9577	811.523	80.0442	811.523	84.1821
840.82	83.8603	840.82	83.759	840.82	85.5049	840.82	82.1737	840.82	80.2739	840.82	83.5575
870.117	83.9376	870.117	82.9529	870.117	85.1333	870.117	81.5596	870.117	78.7946	870.117	83.074
900.879	84.1539	900.879	82.725	900.879	85.6672	900.879	81.5492	900.879	78.353	900.879	83.2992
933.105	83.249	933.105	82.4399	933.105	85.3803	933.105	81.6517	933.105	78.1794	933.105	83.0405
965.332	83.2036	965.332	82.659	965.332	85.0435	965.332	80.9506	965.332	76.4789	965.332	82.6578
1,000.49	82.2521	1,000.49	81.3983	1,000.49	84.593	1,000.49	80.3894	1,000.49	75.9753	1,000.49	82.0265
1,035.64	81.0549	1,035.64	80.8467	1,035.64	84.0295	1,035.64	79.7078	1,035.64	74.9627	1,035.64	81.3481
1,072.27	80.1774	1,072.27	80.0984	1,072.27	83.118	1,072.27	78.9279	1,072.27	73.8633	1,072.27	80.4874
1,108.89	79.4948	1,108.89	80.1877	1,108.89	82.3652	1,108.89	78.1219	1,108.89	72.7404	1,108.89	79.8164
1,148.44	79.5145	1,148.44	80.2695	1,148.44	81.8959	1,148.44	77.807	1,148.44	72.2689	1,148.44	79.514
1,189.45	79.5439	1,189.45	79.6199	1,189.45	81.7334	1,189.45	77.5057	1,189.45	71.927	1,189.45	79.2708
1,230.47	80.3229	1,230.47	79.7465	1,230.47	82.1183	1,230.47	78.2542	1,230.47	72.5983	1,230.47	79.7768
1,274.41	81.2643	1,274.41	78.7332	1,274.41	82.3969	1,274.41	78.2152	1,274.41	72.2455	1,274.41	79.9231
1,319.82	81.2691	1,319.82	76.9252	1,319.82	83.2611	1,319.82	78.628	1,319.82	71.4474	1,319.82	80.3278
1,366.7	80.323	1,366.7	77.9755	1,366.7	83.5545	1,366.7	78.333	1,366.7	71.555	1,366.7	80.3565
1,413.57	80.0789	1,413.57	79.1989	1,413.57	83.7586	1,413.57	78.5287	1,413.57	71.9387	1,413.57	80.5891
1,463.38	79.7979	1,463.38	79.2072	1,463.38	84.0966	1,463.38	78.2869	1,463.38	71.4104	1,463.38	80.6929
1,516.11	80.053	1,516.11	78.757	1,516.11	84.2133	1,516.11	78.6461	1,516.11	71.8242	1,516.11	80.8384
1,568.85	80.1435	1,568.85	77.511	1,568.85	83.9175	1,568.85	78.6426	1,568.85	72.4227	1,568.85	80.6047
1,624.51	79.8655	1,624.51	77.1992	1,624.51	83.1268	1,624.51	77.8343	1,624.51	71.6802	1,624.51	79.8949
1,681.64	78.7163	1,681.64	75.5971	1,681.64	83.0424	1,681.64	77.9355	1,681.64	71.037	1,681.64	79.6564
1,741.7	78.5398	1,741.7	74.535	1,741.7	83.9633	1,741.7	79.1945	1,741.7	72.6194	1,741.7	80.5169
1,803.22	78.8047	1,803.22	72.7887	1,803.22	83.731	1,803.22	79.4728	1,803.22	73.2058	1,803.22	80.4532
1,866.21	78.0054	1,866.21	71.6869	1,866.21	83.9289	1,866.21	78.7868	1,866.21	71.7105	1,866.21	80.2661
1,932.13	77.9728	1,932.13	69.5904	1,932.13	84.4105	1,932.13	78.8384	1,932.13	72.0712	1,932.13	80.5656
1,999.51	77.7391	1,999.51	68.4018	1,999.51	84.4053	1,999.51	79.1627	1,999.51	73.133	1,999.51	80.6441
2,069.82	77.2464	2,069.82	69.3876	2,069.82	84.0872	2,069.82	79.2703	2,069.82	73.4955	2,069.82	80.4617
2,143.07	76.78	2,143.07	69.7489	2,143.07	83.747	2,143.07	79.1178	2,143.07	73.5012	2,143.07	80.1855
2,219.24	75.1877	2,219.24	71.9417	2,219.24	83.7719	2,219.24	79.6996	2,219.24	72.7109	2,219.24	80.3273
2,296.88	76.147	2,296.88	73.9612	2,296.88	83.1817	2,296.88	78.8778	2,296.88	71.8317	2,296.88	79.7818
2,378.91	75.3842	2,378.91	75.5378	2,378.91	83.4975	2,378.91	78.9439	2,378.91	71.4262	2,378.91	80.005
2,462.4	76.7937	2,462.4	76.6103	2,462.4	83.5748	2,462.4	79.2369	2,462.4	70.3572	2,462.4	80.2382
2,548.83	76.1374	2,548.83	76.7587	2,548.83	82.1461	2,548.83	78.6256	2,548.83	70.0611	2,548.83	79.2189
2,639.65	75.2993	2,639.65	77.5682	2,639.65	82.8213	2,639.65	79.4635	2,639.65	70.6185	2,639.65	79.8845
2,731.93	75.2047	2,731.93	78.2879	2,731.93	82.7885	2,731.93	78.6562	2,731.93	69.958	2,731.93	79.6444
2,828.61	76.0405	2,828.61	79.2368	2,828.61	82.7326	2,828.61	77.7148	2,828.61	68.0572	2,828.61	79.4591
2,928.22	76.4187	2,928.22	78.3135	2,928.22	83.2088	2,928.22	78.7375	2,928.22	69.3122	2,928.22	79.956
3,030.76	76.7502	3,030.76	78.2384	3,030.76	83.377	3,030.76	78.8438	3,030.76	68.8094	3,030.76	80.0898
3,137.7	76.7044	3,137.7	79.1752	3,137.7	83.5733	3,137.7	78.5512	3,137.7	69.6593	3,137.7	80.2062
3,249.02	77.3811	3,249.02	79.3124	3,249.02	83.8054	3,249.02	78.1902	3,249.02	69.7364	3,249.02	80.3046
3,363.28	79.709	3,363.28	79.444	3,363.28	84.0493	3,363.28	78.4912	3,363.28	70.257	3,363.28	80.7093
3,481.93	79.9856	3,481.93	78.8232	3,481.93	84.3485	3,481.93	79.3171	3,481.93	70.4552	3,481.93	81.0628
3,604.98	79.6463	3,604.98	79.2784	3,604.98	84.7647	3,604.98	80.1454	3,604.98	71.3037	3,604.98	81.5347
3,732.42	80.2846	3,732.42	79.6358	3,732.42	84.571	3,732.42	80.0703	3,732.42	71.4734	3,732.42	81.4851
3,864.26	81.2919	3,864.26	79.1277	3,864.26	84.7539	3,864.26	80.6092	3,864.26	72.528	3,864.26	81.811
4,000.49	81.625	4,000.49	78.7124	4,000.49	83.772	4,000.49	79.7618	4,000.49	70.352	4,000.49	81.0442
4,141.11	81.747	4,141.11	79.4408	4,141.11	83.5679	4,141.11	80.2169	4,141.11	70.4443	4,141.11	81.1504
4,287.6	82.114	4,287.6	79.0441	4,287.6	82.8719	4,287.6	79.9948	4,287.6	70.1319	4,287.6	80.7844
4,438.48	82.4001	4,438.48	80.2562	4,438.48	82.8066	4,438.48	80.1106	4,438.48	70.4229	4,438.48	80.9481
4,595.21	82.9766	4,595.21	79.4991	4,595.21	82.5301	4,595.21	79.5819	4,595.21	68.0529	4,595.21	80.684
4,756.35	83.2209	4,756.35	80.168	4,756.35	82.6503	4,756.35	79.7856	4,756.35	69.6008	4,756.35	80.9146
4,924.8	83.2295	4,924.8	80.0106	4,924.8	82.4977	4,924.8	79.6958	4,924.8	70.3128	4,924.8	80.8203
5,097.66	83.132	5,097.66	80.139	5,097.66	82.7607	5,097.66	79.2986	5,097.66	69.1596	5,097.66	80.7976
5,277.83	83.3596	5,277.83	80.783	5,277.83	83.2866	5,277.83	79.6102	5,277.83	70.1887	5,277.83	81.2246
5,463.87	83.3594	5,463.87	80.487	5,463.87	83.0731	5,463.87	79.4414	5,463.87	71.2251	5,463.87	81.0686
5,657.23	82.9839	5,657.23	80.6536	5,657.23	83.326	5,657.23	79.6584	5,657.23	71.8421	5,657.23	81.1916
5,856.45	83.4529	5,856.45	80.9112	5,856.45	83.395	5,856.45	79.9204	5,856.45	71.3443	5,856.45	81.3973
6,062.99	82.7939	6,062.99	80.5949	6,062.99	83.5225	6,062.99	80.1703	6,062.99	71.5361	6,062.99	81.3804
6,276.86	82.6101	6,276.86	80.7847	6,276.86	83.4663	6,276.86	80.3248	6,276.86	70.5947	6,276.86	81.3814
6,498.05	82.0751	6,498.05	81.1038	6,498.05	83.7315	6,498.05	80.3669	6,498.05	70.4108	6,498.05	81.4668
6,726.56	82.0525	6,726.56	81.0289	6,726.56	83.5299	6,726.56	80.2912	6,726.56	68.976	6,726.56	81.331
6,963.87	81.7796	6,963.87	81.4246	6,963.87	83.583	6,963.87	80.0368	6,963.87	68.7018	6,963.87	81.2866
7,209.96	81.8727	7,209.96	81.1968	7,209.96	83.6781	7,209.96	79.9282	7,209.96	68.8089	7,209.96	81.286
7,464.84	82.2183	7,464.84	81.0236	7,464.84	83.5699	7,464.84	79.674	7,464.84	68.8778	7,464.84	81.1944
7,727.05	82.851	7,727.05	80.9181	7,727.05	83.7741	7,727.05	79.4127	7,727.05	69.9959	7,727.05	81.3178
7,999.51	82.9288	7,999.51	80.6102	7,999.51	83.9565	7,999.51	79.4473	7,999.51	69.7677	7,999.51	81.3937
8,282.23	83.4642	8,282.23	80.7309	8,282.23	84.0507	8,282.23	79.3251	8,282.23	69.0397	8,282.23	81.5089
8,573.73	83.4421	8,573.73	80.5715	8,573.73	84.0175	8,573.73	79.1958	8,573.73	67.9435	8,573.73	81.4373
8,876.95	83.3973	8,876.95	80.4939	8,876.95	83.9274	8,876.95	79.25	8,876.95	66.9928	8,876.95	81.3862
9,188.96	83.2392	9,188.96	80.5714	9,188.96	84.0024	9,188.96	79.3178	9,188.96	67.0789	9,188.96	81.418
9,514.16	82.9977	9,514.16	80.3606	9,514.16	83.8187	9,514.16	79.5461	9,514.16	67.3938	9,514.16	81.3254
9,849.61	82.237	9,849.61	80.2304	9,849.61	83.8011	9,849.61	79.7631	9,849.61	67.8562	9,849.61	81.2452
10,196.8	81.9352	10,196.8	79.939	10,196.8	83.6854	10,196.8	79.7711	10,196.8	67.7883	10,196.8	81.1219
10,555.7	81.7334	10,555.7	79.7098	10,555.7	83.3637	10,555.7	79.6364	10,555.7	66.5592	10,555.7	80.8742
10,927.7	81.572	10,927.7	79.4377	10,927.7	82.8608	10,927.7	79.3032	10,927.7	66.2753	10,927.7	80.4915
11,313	81.2434	11,313	79.2579	11,313	82.5703	11,313	78.6405	11,313	65.9077	11,313	80.0997
11,712.9	81.0265	11,712.9	79.0207	11,712.9	82.438	11,712.9	78.3999	11,712.9	64.5466	11,712.9	79.9104
12,126	81.0249	12,126	78.8735	12,126	82.4434	12,126	78.2164	12,126	64.6339	12,126	79.8503
12,553.7	80.7959	12,553.7	78.9766	12,553.7	82.5116	12,553.7	78.1987	12,553.7	63.852	12,553.7	79.8526
12,996.1	80.6836	12,996.1	78.9129	12,996.1	82.6366	12,996.1	78.1168	12,996.1	63.6547	12,996.1	79.8719
13,454.6	80.7455	13,454.6	78.6293	13,454.6	82.6123	13,454.6	77.8924	13,454.6	65.2273	13,454.6	79.7911
13,929.2	80.76	13,929.2	78.3887	13,929.2	82.5575	13,929.2	78.0069	13,929.2	65.3862	13,929.2	79.7739
14,419.9	80.8454	14,419.9	78.2331	14,419.9	82.4752	14,419.9	77.859	14,419.9	63.7534	14,419.9	79.6881
14,928.2	80.5669	14,928.2	78.1767	14,928.2	82.4802	14,928.2	77.4268	14,928.2	60.9372	14,928.2	79.5327
15,455.6	80.0032	15,455.6	78.053	15,455.6	82.3978	15,455.6	77.3655	15,455.6	61.7782	15,455.6	79.3863
16,000.5	79.4804	16,000.5	77.7535	16,000.5	82.097	16,000.5	77.4402	16,000.5	65.2577	16,000.5	79.1629
16,564.5	78.8947	16,564.5	77.4539	16,564.5	81.7362	16,564.5	77.2268	16,564.5	65.957	16,564.5	78.8245
17,148.9	78.6977	17,148.9	77.109	17,148.9	81.4619	17,148.9	76.4387	17,148.9	63.2666	17,148.9	78.4112
17,752.4	78.7447	17,752.4	76.6765	17,752.4	81.5759	17,752.4	75.9625	17,752.4	58.8923	17,752.4	78.3238
18,379.4	78.4379	18,379.4	76.5678	18,379.4	81.7302	18,379.4	76.0975	18,379.4	60.509	18,379.4	78.3996
19,026.9	78.316	19,026.9	76.5257	19,026.9	81.4865	19,026.9	75.9901	19,026.9	62.8634	19,026.9	78.2234
19,697.8	77.9303	19,697.8	76.1417	19,697.8	81.153	19,697.8	75.6282	19,697.8	60.0112	19,697.8	77.8669
19,999.5	77.8273	19,999.5	75.9366	19,999.5	81.0012	19,999.5	75.54	19,999.5	57.4761	19,999.5	77.7279
