"SPL Vertical"																																																																							
"On-Axis"		"10°"		"-10°"		"20°"		"-20°"		"30°"		"-30°"		"40°"		"-40°"		"50°"		"-50°"		"60°"		"-60°"		"70°"		"-70°"		"80°"		"-80°"		"90°"		"-90°"		"100°"		"-100°"		"110°"		"-110°"		"120°"		"-120°"		"130°"		"-130°"		"140°"		"-140°"		"150°"		"-150°"		"160°"		"-160°"		"170°"		"-170°"		"180°"	
"Frequency [Hz]"	"Sound Pessure Level [dB]  / [2.83V 1m] "	"Frequency [Hz]"	"Sound Pessure Level [dB]  / [2.83V 1m] "	"Frequency [Hz]"	"Sound Pessure Level [dB]  / [2.83V 1m] "	"Frequency [Hz]"	"Sound Pessure Level [dB]  / [2.83V 1m] "	"Frequency [Hz]"	"Sound Pessure Level [dB]  / [2.83V 1m] "	"Frequency [Hz]"	"Sound Pessure Level [dB]  / [2.83V 1m] "	"Frequency [Hz]"	"Sound Pessure Level [dB]  / [2.83V 1m] "	"Frequency [Hz]"	"Sound Pessure Level [dB]  / [2.83V 1m] "	"Frequency [Hz]"	"Sound Pessure Level [dB]  / [2.83V 1m] "	"Frequency [Hz]"	"Sound Pessure Level [dB]  / [2.83V 1m] "	"Frequency [Hz]"	"Sound Pessure Level [dB]  / [2.83V 1m] "	"Frequency [Hz]"	"Sound Pessure Level [dB]  / [2.83V 1m] "	"Frequency [Hz]"	"Sound Pessure Level [dB]  / [2.83V 1m] "	"Frequency [Hz]"	"Sound Pessure Level [dB]  / [2.83V 1m] "	"Frequency [Hz]"	"Sound Pessure Level [dB]  / [2.83V 1m] "	"Frequency [Hz]"	"Sound Pessure Level [dB]  / [2.83V 1m] "	"Frequency [Hz]"	"Sound Pessure Level [dB]  / [2.83V 1m] "	"Frequency [Hz]"	"Sound Pessure Level [dB]  / [2.83V 1m] "	"Frequency [Hz]"	"Sound Pessure Level [dB]  / [2.83V 1m] "	"Frequency [Hz]"	"Sound Pessure Level [dB]  / [2.83V 1m] "	"Frequency [Hz]"	"Sound Pessure Level [dB]  / [2.83V 1m] "	"Frequency [Hz]"	"Sound Pessure Level [dB]  / [2.83V 1m] "	"Frequency [Hz]"	"Sound Pessure Level [dB]  / [2.83V 1m] "	"Frequency [Hz]"	"Sound Pessure Level [dB]  / [2.83V 1m] "	"Frequency [Hz]"	"Sound Pessure Level [dB]  / [2.83V 1m] "	"Frequency [Hz]"	"Sound Pessure Level [dB]  / [2.83V 1m] "	"Frequency [Hz]"	"Sound Pessure Level [dB]  / [2.83V 1m] "	"Frequency [Hz]"	"Sound Pessure Level [dB]  / [2.83V 1m] "	"Frequency [Hz]"	"Sound Pessure Level [dB]  / [2.83V 1m] "	"Frequency [Hz]"	"Sound Pessure Level [dB]  / [2.83V 1m] "	"Frequency [Hz]"	"Sound Pessure Level [dB]  / [2.83V 1m] "	"Frequency [Hz]"	"Sound Pessure Level [dB]  / [2.83V 1m] "	"Frequency [Hz]"	"Sound Pessure Level [dB]  / [2.83V 1m] "	"Frequency [Hz]"	"Sound Pessure Level [dB]  / [2.83V 1m] "	"Frequency [Hz]"	"Sound Pessure Level [dB]  / [2.83V 1m] "	"Frequency [Hz]"	"Sound Pessure Level [dB]  / [2.83V 1m] "
20.5078	52.4943	20.5078	52.73	20.5078	52.2605	20.5078	52.9584	20.5078	52.0387	20.5078	53.1713	20.5078	51.839	20.5078	53.3628	20.5078	51.6697	20.5078	53.5285	20.5078	51.537	20.5078	53.6655	20.5078	51.4446	20.5078	53.7724	20.5078	51.3944	20.5078	53.8488	20.5078	51.3877	20.5078	53.895	20.5078	51.4253	20.5078	53.9118	20.5078	51.5076	20.5078	53.9003	20.5078	51.6337	20.5078	53.8619	20.5078	51.7995	20.5078	53.7973	20.5078	51.9977	20.5078	53.7077	20.5078	52.2181	20.5078	53.5934	20.5078	52.4494	20.5078	53.4548	20.5078	52.6803	20.5078	53.2924	20.5078	52.9019	20.5078	53.1074
21.9727	54.8956	21.9727	55.0859	21.9727	54.7045	21.9727	55.2666	21.9727	54.5219	21.9727	55.4301	21.9727	54.3562	21.9727	55.5704	21.9727	54.2143	21.9727	55.683	21.9727	54.1001	21.9727	55.7652	21.9727	54.0152	21.9727	55.8155	21.9727	53.9584	21.9727	55.8337	21.9727	53.9278	21.9727	55.8205	21.9727	53.9212	21.9727	55.7777	21.9727	53.9371	21.9727	55.7074	21.9727	53.9749	21.9727	55.6126	21.9727	54.034	21.9727	55.4969	21.9727	54.1138	21.9727	55.3643	21.9727	54.2128	21.9727	55.2192	21.9727	54.329	21.9727	55.066	21.9727	54.4599	21.9727	54.9093	21.9727	54.6025	21.9727	54.7535
23.4375	56.9151	23.4375	57.1259	23.4375	56.6964	23.4375	57.3211	23.4375	56.4788	23.4375	57.4942	23.4375	56.2712	23.4375	57.6404	23.4375	56.0819	23.4375	57.7561	23.4375	55.918	23.4375	57.8394	23.4375	55.7842	23.4375	57.8894	23.4375	55.6836	23.4375	57.9058	23.4375	55.6176	23.4375	57.8896	23.4375	55.587	23.4375	57.8421	23.4375	55.5918	23.4375	57.7652	23.4375	55.6317	23.4375	57.6612	23.4375	55.7057	23.4375	57.533	23.4375	55.8112	23.4375	57.3836	23.4375	55.9448	23.4375	57.2169	23.4375	56.1014	23.4375	57.0368	23.4375	56.2758	23.4375	56.8478	23.4375	56.462	23.4375	56.6544
24.9023	59.1607	24.9023	59.3241	24.9023	58.9903	24.9023	59.4744	24.9023	58.8198	24.9023	59.6065	24.9023	58.6558	24.9023	59.7164	24.9023	58.5046	24.9023	59.8011	24.9023	58.3712	24.9023	59.859	24.9023	58.2593	24.9023	59.8892	24.9023	58.1709	24.9023	59.8916	24.9023	58.1071	24.9023	59.8671	24.9023	58.0686	24.9023	59.8167	24.9023	58.0557	24.9023	59.7424	24.9023	58.0688	24.9023	59.6464	24.9023	58.108	24.9023	59.5313	24.9023	58.1726	24.9023	59.4003	24.9023	58.2611	24.9023	59.2568	24.9023	58.3711	24.9023	59.1049	24.9023	58.4991	24.9023	58.9486	24.9023	58.641	24.9023	58.7924
26.3672	61.1647	26.3672	61.3049	26.3672	61.0158	26.3672	61.4317	26.3672	60.8636	26.3672	61.5408	26.3672	60.7136	26.3672	61.629	26.3672	60.5708	26.3672	61.694	26.3672	60.4394	26.3672	61.7342	26.3672	60.3229	26.3672	61.7492	26.3672	60.2237	26.3672	61.7387	26.3672	60.1435	26.3672	61.7035	26.3672	60.084	26.3672	61.6447	26.3672	60.0467	26.3672	61.5638	26.3672	60.0333	26.3672	61.463	26.3672	60.0454	26.3672	61.3448	26.3672	60.0838	26.3672	61.2123	26.3672	60.1482	26.3672	61.0689	26.3672	60.2371	26.3672	60.9189	26.3672	60.3477	26.3672	60.7668	26.3672	60.476	26.3672	60.6174
27.832	63.4503	27.832	63.5478	27.832	63.3466	27.832	63.6355	27.832	63.2406	27.832	63.71	27.832	63.1362	27.832	63.7689	27.832	63.0367	27.832	63.8102	27.832	62.9448	27.832	63.8327	27.832	62.8626	27.832	63.836	27.832	62.7917	27.832	63.8203	27.832	62.7331	27.832	63.7863	27.832	62.6879	27.832	63.7354	27.832	62.6573	27.832	63.6693	27.832	62.6425	27.832	63.5901	27.832	62.6445	27.832	63.5002	27.832	62.6639	27.832	63.4026	27.832	62.7007	27.832	63.3	27.832	62.7538	27.832	63.1956	27.832	62.8219	27.832	63.0926	27.832	62.9028	27.832	62.994
29.2969	65.3804	29.2969	65.4662	29.2969	65.2864	29.2969	65.5407	29.2969	65.1876	29.2969	65.6013	29.2969	65.0873	29.2969	65.646	29.2969	64.9885	29.2969	65.6731	29.2969	64.8938	29.2969	65.6818	29.2969	64.8054	29.2969	65.6719	29.2969	64.7251	29.2969	65.6436	29.2969	64.6541	29.2969	65.5978	29.2969	64.5938	29.2969	65.5358	29.2969	64.5459	29.2969	65.4594	29.2969	64.512	29.2969	65.3708	29.2969	64.4937	29.2969	65.2727	29.2969	64.4925	29.2969	65.168	29.2969	64.5096	29.2969	65.06	29.2969	64.5453	29.2969	64.9525	29.2969	64.5989	29.2969	64.8491	29.2969	64.669	29.2969	64.7534
30.7617	67.3265	30.7617	67.3888	30.7617	67.2561	30.7617	67.4406	30.7617	67.1802	30.7617	67.4801	30.7617	67.1015	30.7617	67.5058	30.7617	67.0224	30.7617	67.5169	30.7617	66.9454	30.7617	67.513	30.7617	66.8721	30.7617	67.4942	30.7617	66.8044	30.7617	67.4614	30.7617	66.7434	30.7617	67.4156	30.7617	66.6905	30.7617	67.3583	30.7617	66.647	30.7617	67.2914	30.7617	66.6143	30.7617	67.2169	30.7617	66.5936	30.7617	67.1373	30.7617	66.5861	30.7617	67.055	30.7617	66.5923	30.7617	66.9726	30.7617	66.6125	30.7617	66.8928	30.7617	66.6463	30.7617	66.818	30.7617	66.6928	30.7617	66.7507
32.2266	68.8786	32.2266	68.9219	32.2266	68.826	32.2266	68.9542	32.2266	68.7658	32.2266	68.9743	32.2266	68.7001	32.2266	68.9812	32.2266	68.631	32.2266	68.9746	32.2266	68.5602	32.2266	68.9545	32.2266	68.4897	32.2266	68.9213	32.2266	68.4211	32.2266	68.8761	32.2266	68.3559	32.2266	68.82	32.2266	68.2957	32.2266	68.7549	32.2266	68.2418	32.2266	68.6827	32.2266	68.1958	32.2266	68.6058	32.2266	68.159	32.2266	68.5267	32.2266	68.1329	32.2266	68.4482	32.2266	68.1186	32.2266	68.373	32.2266	68.117	32.2266	68.3037	32.2266	68.1288	32.2266	68.2428	32.2266	68.1541	32.2266	68.1924
33.6914	70.2391	33.6914	70.2661	33.6914	70.2024	33.6914	70.2825	33.6914	70.1574	33.6914	70.2876	33.6914	70.1053	33.6914	70.2808	33.6914	70.0474	33.6914	70.2623	33.6914	69.9853	33.6914	70.2322	33.6914	69.9202	33.6914	70.1913	33.6914	69.8537	33.6914	70.1407	33.6914	69.7873	33.6914	70.0816	33.6914	69.7226	33.6914	70.0159	33.6914	69.6615	33.6914	69.9455	33.6914	69.6061	33.6914	69.8725	33.6914	69.5582	33.6914	69.7994	33.6914	69.5199	33.6914	69.7287	33.6914	69.4928	33.6914	69.6626	33.6914	69.4783	33.6914	69.6037	33.6914	69.4772	33.6914	69.5542	33.6914	69.4898	33.6914	69.5157
35.1563	71.278	35.1563	71.2908	35.1563	71.2557	35.1563	71.2936	35.1563	71.2245	35.1563	71.286	35.1563	71.1854	35.1563	71.268	35.1563	71.1393	35.1563	71.2401	35.1563	71.0872	35.1563	71.2027	35.1563	71.0302	35.1563	71.1568	35.1563	70.9698	35.1563	71.1036	35.1563	70.9072	35.1563	71.0446	35.1563	70.8442	35.1563	70.9815	35.1563	70.7826	35.1563	70.9161	35.1563	70.7244	35.1563	70.8506	35.1563	70.6719	35.1563	70.7869	35.1563	70.627	35.1563	70.7272	35.1563	70.5915	35.1563	70.6737	35.1563	70.5671	35.1563	70.6281	35.1563	70.5546	35.1563	70.5922	35.1563	70.5547	35.1563	70.5674
36.6211	71.9036	36.6211	71.9061	36.6211	71.8909	36.6211	71.8982	36.6211	71.8683	36.6211	71.8801	36.6211	71.8364	36.6211	71.852	36.6211	71.7959	36.6211	71.8146	36.6211	71.7478	36.6211	71.7689	36.6211	71.693	36.6211	71.716	36.6211	71.6328	36.6211	71.6573	36.6211	71.5689	36.6211	71.5944	36.6211	71.503	36.6211	71.5293	36.6211	71.4373	36.6211	71.4639	36.6211	71.3739	36.6211	71.4001	36.6211	71.3151	36.6211	71.3401	36.6211	71.2631	36.6211	71.2859	36.6211	71.2199	36.6211	71.2392	36.6211	71.187	36.6211	71.2017	36.6211	71.1656	36.6211	71.1748	36.6211	71.1563	36.6211	71.1594
38.0859	72.43	38.0859	72.4213	38.0859	72.4282	38.0859	72.4024	38.0859	72.4158	38.0859	72.3736	38.0859	72.3933	38.0859	72.3356	38.0859	72.3608	38.0859	72.2895	38.0859	72.3192	38.0859	72.2362	38.0859	72.2692	38.0859	72.1773	38.0859	72.2121	38.0859	72.1142	38.0859	72.1494	38.0859	72.0488	38.0859	72.0828	38.0859	71.9829	38.0859	72.0145	38.0859	71.9186	38.0859	71.9467	38.0859	71.8577	38.0859	71.8818	38.0859	71.8024	38.0859	71.8222	38.0859	71.7545	38.0859	71.7699	38.0859	71.7156	38.0859	71.7268	38.0859	71.6872	38.0859	71.6945	38.0859	71.6704	38.0859	71.674	38.0859	71.6659
39.5508	72.7594	39.5508	72.7413	39.5508	72.767	39.5508	72.7131	39.5508	72.7637	39.5508	72.6757	39.5508	72.7494	39.5508	72.63	39.5508	72.7243	39.5508	72.5772	39.5508	72.6888	39.5508	72.5188	39.5508	72.6439	39.5508	72.4563	39.5508	72.5904	39.5508	72.3914	39.5508	72.5301	39.5508	72.3261	39.5508	72.4647	39.5508	72.2622	39.5508	72.3964	39.5508	72.2016	39.5508	72.3274	39.5508	72.1462	39.5508	72.2601	39.5508	72.0978	39.5508	72.1969	39.5508	72.058	39.5508	72.14	39.5508	72.0281	39.5508	72.0911	39.5508	72.0092	39.5508	72.0519	39.5508	72.0019	39.5508	72.0235	39.5508	72.0067
41.0156	72.9782	41.0156	72.9537	41.0156	72.9914	41.0156	72.9187	41.0156	72.9927	41.0156	72.8742	41.0156	72.9822	41.0156	72.8213	41.0156	72.9597	41.0156	72.7616	41.0156	72.9259	41.0156	72.6967	41.0156	72.8817	41.0156	72.6283	41.0156	72.8282	41.0156	72.5586	41.0156	72.7671	41.0156	72.4895	41.0156	72.7003	41.0156	72.423	41.0156	72.6301	41.0156	72.3614	41.0156	72.5586	41.0156	72.3065	41.0156	72.4882	41.0156	72.2601	41.0156	72.421	41.0156	72.2238	41.0156	72.359	41.0156	72.1988	41.0156	72.3043	41.0156	72.1859	41.0156	72.2583	41.0156	72.1857	41.0156	72.2225	41.0156	72.198
42.4805	73.2824	42.4805	73.2489	42.4805	73.3045	42.4805	73.2051	42.4805	73.3143	42.4805	73.1522	42.4805	73.3114	42.4805	73.0918	42.4805	73.2956	42.4805	73.0255	42.4805	73.267	42.4805	72.9551	42.4805	73.2264	42.4805	72.8827	42.4805	73.1747	42.4805	72.8102	42.4805	73.1137	42.4805	72.7398	42.4805	73.0453	42.4805	72.6735	42.4805	72.9718	42.4805	72.6134	42.4805	72.8957	42.4805	72.5613	42.4805	72.8196	42.4805	72.5188	42.4805	72.746	42.4805	72.4874	42.4805	72.6771	42.4805	72.4681	42.4805	72.6152	42.4805	72.4615	42.4805	72.5619	42.4805	72.4679	42.4805	72.5188	42.4805	72.4872
43.9453	73.423	43.9453	73.3841	43.9453	73.4502	43.9453	73.3346	43.9453	73.4646	43.9453	73.2762	43.9453	73.4657	43.9453	73.2105	43.9453	73.4531	43.9453	73.1395	43.9453	73.4272	43.9453	73.0651	43.9453	73.3884	43.9453	72.9895	43.9453	73.3381	43.9453	72.915	43.9453	73.2779	43.9453	72.8437	43.9453	73.2098	43.9453	72.7778	43.9453	73.1362	43.9453	72.7192	43.9453	73.0595	43.9453	72.6698	43.9453	72.9821	43.9453	72.6312	43.9453	72.9066	43.9453	72.6044	43.9453	72.8351	43.9453	72.5904	43.9453	72.7696	43.9453	72.5895	43.9453	72.7121	43.9453	72.6018	43.9453	72.6641	43.9453	72.6269
45.4102	73.5766	45.4102	73.5341	45.4102	73.6065	45.4102	73.4805	45.4102	73.6229	45.4102	73.4175	45.4102	73.6249	45.4102	73.3469	45.4102	73.6124	45.4102	73.2709	45.4102	73.5856	45.4102	73.1916	45.4102	73.5453	45.4102	73.1116	45.4102	73.4928	45.4102	73.033	45.4102	73.43	45.4102	72.9584	45.4102	73.359	45.4102	72.8899	45.4102	73.2823	45.4102	72.8296	45.4102	73.2025	45.4102	72.7794	45.4102	73.122	45.4102	72.7408	45.4102	73.0433	45.4102	72.715	45.4102	72.9687	45.4102	72.7027	45.4102	72.9	45.4102	72.7042	45.4102	72.8391	45.4102	72.7193	45.4102	72.7878	45.4102	72.7474
46.875	73.8099	46.875	73.7603	46.875	73.8465	46.875	73.6995	46.875	73.8687	46.875	73.6293	46.875	73.8758	46.875	73.5518	46.875	73.867	46.875	73.4695	46.875	73.8426	46.875	73.3846	46.875	73.8032	46.875	73.2996	46.875	73.7501	46.875	73.2169	46.875	73.6852	46.875	73.1389	46.875	73.6106	46.875	73.068	46.875	73.5292	46.875	73.0061	46.875	73.4435	46.875	72.9552	46.875	73.3564	46.875	72.9168	46.875	73.2705	46.875	72.8921	46.875	73.1882	46.875	72.8819	46.875	73.1118	46.875	72.8864	46.875	73.0436	46.875	72.9056	46.875	72.9854	46.875	72.9389
48.3398	73.9837	48.3398	73.9285	48.3398	74.0263	48.3398	73.8627	48.3398	74.0547	48.3398	73.7882	48.3398	74.0677	48.3398	73.7075	48.3398	74.0644	48.3398	73.623	48.3398	74.0448	48.3398	73.537	48.3398	74.0091	48.3398	73.452	48.3398	73.9585	48.3398	73.3704	48.3398	73.8948	48.3398	73.2946	48.3398	73.8202	48.3398	73.2267	48.3398	73.7374	48.3398	73.1685	48.3398	73.6496	48.3398	73.1216	48.3398	73.5598	48.3398	73.0875	48.3398	73.471	48.3398	73.0669	48.3398	73.3858	48.3398	73.0606	48.3398	73.3069	48.3398	73.0686	48.3398	73.2363	48.3398	73.0909	48.3398	73.1758	48.3398	73.1269
51.2695	74.3663	51.2695	74.3043	51.2695	74.4159	51.2695	74.2322	51.2695	74.4516	51.2695	74.1523	51.2695	74.4719	51.2695	74.0672	51.2695	74.4759	51.2695	73.9797	51.2695	74.4635	51.2695	73.8924	51.2695	74.4352	51.2695	73.8082	51.2695	74.3918	51.2695	73.7295	51.2695	74.3352	51.2695	73.6588	51.2695	74.2676	51.2695	73.5982	51.2695	74.1917	51.2695	73.5495	51.2695	74.1102	51.2695	73.514	51.2695	74.0261	51.2695	73.4925	51.2695	73.9418	51.2695	73.4853	51.2695	73.8599	51.2695	73.4923	51.2695	73.7822	51.2695	73.5129	51.2695	73.7105	51.2695	73.5463	51.2695	73.6464	51.2695	73.5912
52.7344	74.5573	52.7344	74.4914	52.7344	74.6108	52.7344	74.4154	52.7344	74.6499	52.7344	74.3317	52.7344	74.6734	52.7344	74.243	52.7344	74.6804	52.7344	74.1524	52.7344	74.6706	52.7344	74.0626	52.7344	74.6446	52.7344	73.9765	52.7344	74.6035	52.7344	73.8968	52.7344	74.549	52.7344	73.826	52.7344	74.4835	52.7344	73.7662	52.7344	74.4094	52.7344	73.7192	52.7344	74.3293	52.7344	73.6863	52.7344	74.2458	52.7344	73.6683	52.7344	74.1612	52.7344	73.6653	52.7344	74.0777	52.7344	73.6771	52.7344	73.9973	52.7344	73.7029	52.7344	73.9217	52.7344	73.7418	52.7344	73.8528	52.7344	73.7923
54.1992	74.6894	54.1992	74.6218	54.1992	74.7449	54.1992	74.5442	54.1992	74.7863	54.1992	74.4595	54.1992	74.8121	54.1992	74.3704	54.1992	74.8214	54.1992	74.2799	54.1992	74.814	54.1992	74.1909	54.1992	74.7905	54.1992	74.1063	54.1992	74.7519	54.1992	74.0289	54.1992	74.7001	54.1992	73.9612	54.1992	74.6372	54.1992	73.9051	54.1992	74.5659	54.1992	73.8624	54.1992	74.4887	54.1992	73.834	54.1992	74.4081	54.1992	73.8207	54.1992	74.3262	54.1992	73.8222	54.1992	74.2451	54.1992	73.8382	54.1992	74.1664	54.1992	73.8677	54.1992	74.0919	54.1992	73.9094	54.1992	74.0231	54.1992	73.9618
55.6641	74.8917	55.6641	74.8215	55.6641	74.9486	55.6641	74.7403	55.6641	74.9903	55.6641	74.651	55.6641	75.0153	55.6641	74.5567	55.6641	75.0231	55.6641	74.4605	55.6641	75.0137	55.6641	74.3658	55.6641	74.988	55.6641	74.276	55.6641	74.9474	55.6641	74.194	55.6641	74.894	55.6641	74.1228	55.6641	74.8305	55.6641	74.0647	55.6641	74.7592	55.6641	74.0214	55.6641	74.6827	55.6641	73.9942	55.6641	74.6032	55.6641	73.9836	55.6641	74.5224	55.6641	73.9892	55.6641	74.4419	55.6641	74.0102	55.6641	74.3629	55.6641	74.0452	55.6641	74.2868	55.6641	74.0924	55.6641	74.2152	55.6641	74.1498
58.5938	75.4775	58.5938	75.3979	58.5938	75.542	58.5938	75.3062	58.5938	75.589	58.5938	75.2053	58.5938	75.6169	58.5938	75.0988	58.5938	75.6245	58.5938	74.9901	58.5938	75.6116	58.5938	74.8827	58.5938	75.5787	58.5938	74.78	58.5938	75.5274	58.5938	74.6853	58.5938	75.4599	58.5938	74.6014	58.5938	75.3792	58.5938	74.5307	58.5938	75.2886	58.5938	74.4752	58.5938	75.1914	58.5938	74.4363	58.5938	75.0908	58.5938	74.4148	58.5938	74.9897	58.5938	74.4109	58.5938	74.8907	58.5938	74.4241	58.5938	74.7959	58.5938	74.4537	58.5938	74.7074	58.5938	74.4985	58.5938	74.6271	58.5938	74.5568
60.0586	75.6909	60.0586	75.6086	60.0586	75.758	60.0586	75.514	60.0586	75.8075	60.0586	75.4105	60.0586	75.8375	60.0586	75.3016	60.0586	75.8469	60.0586	75.1909	60.0586	75.8355	60.0586	75.0821	60.0586	75.804	60.0586	74.9787	60.0586	75.7539	60.0586	74.8839	60.0586	75.6876	60.0586	74.8008	60.0586	75.6082	60.0586	74.7318	60.0586	75.5188	60.0586	74.6788	60.0586	75.4229	60.0586	74.643	60.0586	75.3235	60.0586	74.625	60.0586	75.2233	60.0586	74.625	60.0586	75.1247	60.0586	74.6423	60.0586	75.0298	60.0586	74.6759	60.0586	74.9403	60.0586	74.7242	60.0586	74.8583	60.0586	74.7857
62.9883	76.1454	62.9883	76.057	62.9883	76.2185	62.9883	75.9564	62.9883	76.2736	62.9883	75.8471	62.9883	76.3087	62.9883	75.733	62.9883	76.3225	62.9883	75.6178	62.9883	76.3147	62.9883	75.5055	62.9883	76.2859	62.9883	75.3996	62.9883	76.2375	62.9883	75.3034	62.9883	76.172	62.9883	75.22	62.9883	76.0922	62.9883	75.1517	62.9883	76.0015	62.9883	75.1003	62.9883	75.9032	62.9883	75.0669	62.9883	75.8005	62.9883	75.052	62.9883	75.6963	62.9883	75.0555	62.9883	75.593	62.9883	75.0766	62.9883	75.4929	62.9883	75.1144	62.9883	75.3982	62.9883	75.1672	62.9883	75.3111	62.9883	75.2334
64.4531	76.3492	64.4531	76.2585	64.4531	76.4248	64.4531	76.156	64.4531	76.4826	64.4531	76.0453	64.4531	76.5206	64.4531	75.9303	64.4531	76.5376	64.4531	75.8148	64.4531	76.5333	64.4531	75.7029	64.4531	76.5081	64.4531	75.5983	64.4531	76.4637	64.4531	75.5045	64.4531	76.4024	64.4531	75.4242	64.4531	76.3271	64.4531	75.3599	64.4531	76.2409	64.4531	75.3134	64.4531	76.147	64.4531	75.2854	64.4531	76.0483	64.4531	75.2764	64.4531	75.9474	64.4531	75.2859	64.4531	75.8465	64.4531	75.3129	64.4531	75.7476	64.4531	75.3561	64.4531	75.6528	64.4531	75.4137	64.4531	75.5642	64.4531	75.4838
67.3828	76.8278	67.3828	76.7321	67.3828	76.9083	67.3828	76.6246	67.3828	76.9708	67.3828	76.5092	67.3828	77.0132	67.3828	76.3901	67.3828	77.034	67.3828	76.2715	67.3828	77.0331	67.3828	76.1575	67.3828	77.0111	67.3828	76.0522	67.3828	76.9695	67.3828	75.9591	67.3828	76.911	67.3828	75.8812	67.3828	76.8384	67.3828	75.8208	67.3828	76.7549	67.3828	75.7796	67.3828	76.6638	67.3828	75.7582	67.3828	76.5677	67.3828	75.7566	67.3828	76.4689	67.3828	75.774	67.3828	76.3694	67.3828	75.8089	67.3828	76.2709	67.3828	75.8597	67.3828	76.1751	67.3828	75.924	67.3828	76.0839	67.3828	75.9995
68.8477	77.0579	68.8477	76.9588	68.8477	77.1415	68.8477	76.8476	68.8477	77.2066	68.8477	76.7284	68.8477	77.251	68.8477	76.6056	68.8477	77.2732	68.8477	76.4836	68.8477	77.2731	68.8477	76.3668	68.8477	77.2514	68.8477	76.2593	68.8477	77.2097	68.8477	76.1648	68.8477	77.1507	68.8477	76.0865	68.8477	77.0775	68.8477	76.0268	68.8477	76.9936	68.8477	75.9872	68.8477	76.902	68.8477	75.9684	68.8477	76.8055	68.8477	75.9701	68.8477	76.7066	68.8477	75.9913	68.8477	76.6068	68.8477	76.0303	68.8477	76.5077	68.8477	76.085	68.8477	76.411	68.8477	76.1529	68.8477	76.3182	68.8477	76.2315
71.7773	77.5388	71.7773	77.436	71.7773	77.6249	71.7773	77.3201	71.7773	77.691	71.7773	77.1952	71.7773	77.7351	71.7773	77.066	71.7773	77.7559	71.7773	76.9373	71.7773	77.7531	71.7773	76.8136	71.7773	77.7278	71.7773	76.6995	71.7773	77.682	71.7773	76.5992	71.7773	77.6186	71.7773	76.516	71.7773	77.5411	71.7773	76.4527	71.7773	77.4532	71.7773	76.411	71.7773	77.3584	71.7773	76.3916	71.7773	77.2594	71.7773	76.3942	71.7773	77.1584	71.7773	76.4177	71.7773	77.057	71.7773	76.4599	71.7773	76.9563	71.7773	76.5184	71.7773	76.8576	71.7773	76.5902	71.7773	76.7624	71.7773	76.6724
74.707	78.0936	74.707	77.9894	74.707	78.1805	74.707	77.8719	74.707	78.2471	74.707	77.7454	74.707	78.291	74.707	77.6147	74.707	78.3108	74.707	77.4844	74.707	78.3064	74.707	77.3594	74.707	78.2787	74.707	77.2442	74.707	78.2298	74.707	77.1427	74.707	78.1628	74.707	77.0583	74.707	78.0814	74.707	76.9936	74.707	77.9896	74.707	76.9503	74.707	77.8909	74.707	76.9289	74.707	77.7883	74.707	76.9292	74.707	77.6843	74.707	76.95	74.707	77.5805	74.707	76.9895	74.707	77.4783	74.707	77.0453	74.707	77.3789	74.707	77.1148	74.707	77.2839	74.707	77.1951
77.6367	78.5531	77.6367	78.4441	77.6367	78.6444	77.6367	78.3214	77.6367	78.7145	77.6367	78.1898	77.6367	78.761	77.6367	78.0542	77.6367	78.7825	77.6367	77.9198	77.6367	78.7789	77.6367	77.7915	77.6367	78.7513	77.6367	77.6742	77.6367	78.702	77.6367	77.5719	77.6367	78.6344	77.6367	77.4882	77.6367	78.5524	77.6367	77.4255	77.6367	78.4601	77.6367	77.3853	77.6367	78.3611	77.6367	77.3681	77.6367	78.2585	77.6367	77.3731	77.6367	78.1545	77.6367	77.3989	77.6367	78.0506	77.6367	77.4433	77.6367	77.948	77.6367	77.5035	77.6367	77.8477	77.6367	77.5767	77.6367	77.7512	77.6367	77.6602
79.1016	78.7311	79.1016	78.6204	79.1016	78.8237	79.1016	78.4958	79.1016	78.8948	79.1016	78.3622	79.1016	78.9419	79.1016	78.2247	79.1016	78.9637	79.1016	78.0885	79.1016	78.9599	79.1016	77.9589	79.1016	78.9319	79.1016	77.8406	79.1016	78.882	79.1016	77.7379	79.1016	78.8138	79.1016	77.6543	79.1016	78.7314	79.1016	77.5923	79.1016	78.6388	79.1016	77.5533	79.1016	78.5398	79.1016	77.5376	79.1016	78.4374	79.1016	77.5444	79.1016	78.3337	79.1016	77.572	79.1016	78.2302	79.1016	77.6182	79.1016	78.1278	79.1016	77.68	79.1016	78.0275	79.1016	77.7546	79.1016	77.9307	79.1016	77.8391
82.0313	79.1506	82.0313	79.0387	82.0313	79.2447	82.0313	78.9132	82.0313	79.3175	82.0313	78.779	82.0313	79.3663	82.0313	78.6411	82.0313	79.3898	82.0313	78.505	82.0313	79.3877	82.0313	78.3757	82.0313	79.3611	82.0313	78.2582	82.0313	79.3125	82.0313	78.1567	82.0313	79.2451	82.0313	78.0746	82.0313	79.1632	82.0313	78.0145	82.0313	79.071	82.0313	77.9776	82.0313	78.9723	82.0313	77.9641	82.0313	78.8703	82.0313	77.9732	82.0313	78.7672	82.0313	78.003	82.0313	78.6643	82.0313	78.0511	82.0313	78.5627	82.0313	78.1144	82.0313	78.4631	82.0313	78.19	82.0313	78.3667	82.0313	78.2749
84.9609	79.5771	84.9609	79.4601	84.9609	79.6763	84.9609	79.3299	84.9609	79.7541	84.9609	79.1916	84.9609	79.8078	84.9609	79.0509	84.9609	79.8362	84.9609	78.9136	84.9609	79.839	84.9609	78.7852	84.9609	79.8178	84.9609	78.6709	84.9609	79.775	84.9609	78.5752	84.9609	79.7144	84.9609	78.5017	84.9609	79.6402	84.9609	78.4524	84.9609	79.5565	84.9609	78.4284	84.9609	79.4672	84.9609	78.4293	84.9609	79.3748	84.9609	78.4533	84.9609	79.2812	84.9609	78.4978	84.9609	79.1871	84.9609	78.5593	84.9609	79.0925	84.9609	78.6342	84.9609	78.9975	84.9609	78.7186	84.9609	78.9027	84.9609	78.809
87.8906	79.9721	87.8906	79.8532	87.8906	80.0704	87.8906	79.7182	87.8906	80.1442	87.8906	79.5728	87.8906	80.1914	87.8906	79.423	87.8906	80.2109	87.8906	79.275	87.8906	80.2033	87.8906	79.1352	87.8906	80.1708	87.8906	79.0093	87.8906	80.1171	87.8906	78.9026	87.8906	80.0467	87.8906	78.819	87.8906	79.9643	87.8906	78.7614	87.8906	79.8746	87.8906	78.7309	87.8906	79.7812	87.8906	78.7273	87.8906	79.6862	87.8906	78.7489	87.8906	79.591	87.8906	78.7927	87.8906	79.4955	87.8906	78.8549	87.8906	79.3996	87.8906	78.9314	87.8906	79.303	87.8906	79.0178	87.8906	79.2063	87.8906	79.1105
90.8203	80.3852	90.8203	80.2639	90.8203	80.4842	90.8203	80.1252	90.8203	80.5573	90.8203	79.9746	90.8203	80.6022	90.8203	79.8184	90.8203	80.618	90.8203	79.663	90.8203	80.6055	90.8203	79.5152	90.8203	80.567	90.8203	79.381	90.8203	80.5064	90.8203	79.2662	90.8203	80.4287	90.8203	79.1751	90.8203	80.3391	90.8203	79.111	90.8203	80.2425	90.8203	79.0752	90.8203	80.1428	90.8203	79.0677	90.8203	80.0426	90.8203	79.0866	90.8203	79.9427	90.8203	79.1288	90.8203	79.8434	90.8203	79.1905	90.8203	79.7442	90.8203	79.2671	90.8203	79.6449	90.8203	79.3544	90.8203	79.5459	90.8203	79.4483
95.2148	80.919	95.2148	80.7957	95.2148	81.0197	95.2148	80.6549	95.2148	81.094	95.2148	80.5023	95.2148	81.1391	95.2148	80.344	95.2148	81.154	95.2148	80.1864	95.2148	81.1391	95.2148	80.0358	95.2148	81.0969	95.2148	79.8978	95.2148	81.0312	95.2148	79.7775	95.2148	80.9473	95.2148	79.6793	95.2148	80.8507	95.2148	79.606	95.2148	80.7467	95.2148	79.5597	95.2148	80.6393	95.2148	79.5407	95.2148	80.5312	95.2148	79.5483	95.2148	80.4233	95.2148	79.5806	95.2148	80.3156	95.2148	79.6348	95.2148	80.2079	95.2148	79.7072	95.2148	80.1002	95.2148	79.7938	95.2148	79.9938	95.2148	79.8906
98.1445	81.271	98.1445	81.1448	98.1445	81.3739	98.1445	81.0007	98.1445	81.4493	98.1445	80.8449	98.1445	81.4943	98.1445	80.6841	98.1445	81.5076	98.1445	80.5251	98.1445	81.4899	98.1445	80.3748	98.1445	81.4438	98.1445	80.2392	98.1445	81.3737	98.1445	80.1236	98.1445	81.2853	98.1445	80.0322	98.1445	81.185	98.1445	79.9676	98.1445	81.0789	98.1445	79.931	98.1445	80.9718	98.1445	79.9218	98.1445	80.8668	98.1445	79.9382	98.1445	80.7649	98.1445	79.9774	98.1445	80.6657	98.1445	80.0355	98.1445	80.5684	98.1445	80.1083	98.1445	80.4719	98.1445	80.1918	98.1445	80.3761	98.1445	80.2821
101.074	81.581	101.074	81.4524	101.074	81.6851	101.074	81.3048	101.074	81.7602	101.074	81.1445	101.074	81.8035	101.074	80.9786	101.074	81.8136	101.074	80.8143	101.074	81.7911	101.074	80.6585	101.074	81.7388	101.074	80.5178	101.074	81.6611	101.074	80.3978	101.074	81.5641	101.074	80.3028	101.074	81.4547	101.074	80.2357	101.074	81.3398	101.074	80.1973	101.074	81.2251	101.074	80.1872	101.074	81.1142	101.074	80.2032	101.074	81.0089	101.074	80.2418	101.074	80.9089	101.074	80.2989	101.074	80.8129	101.074	80.37	101.074	80.7195	101.074	80.4508	101.074	80.6277	101.074	80.5376
105.469	82.0681	105.469	81.9354	105.469	82.1751	105.469	81.7827	105.469	82.2522	105.469	81.6165	105.469	82.2963	105.469	81.4439	105.469	82.3065	105.469	81.2725	105.469	82.2834	105.469	81.1095	105.469	82.23	105.469	80.962	105.469	82.1508	105.469	80.8359	105.469	82.0521	105.469	80.736	105.469	81.9409	105.469	80.6656	105.469	81.8239	105.469	80.6261	105.469	81.7069	105.469	80.6169	105.469	81.5937	105.469	80.6358	105.469	81.486	105.469	80.6791	105.469	81.3836	105.469	80.742	105.469	81.285	105.469	80.8194	105.469	81.1886	105.469	80.9063	105.469	81.0931	105.469	80.9985
108.398	82.435	108.398	82.3043	108.398	82.5396	108.398	82.1535	108.398	82.6139	108.398	81.9891	108.398	82.6548	108.398	81.8184	108.398	82.6614	108.398	81.6489	108.398	82.6346	108.398	81.488	108.398	82.5774	108.398	81.3425	108.398	82.4947	108.398	81.218	108.398	82.3929	108.398	81.1189	108.398	82.2789	108.398	81.0482	108.398	82.1594	108.398	81.0068	108.398	82.0401	108.398	80.9941	108.398	81.9248	108.398	81.0079	108.398	81.8152	108.398	81.0446	108.398	81.7115	108.398	81.1001	108.398	81.6127	108.398	81.1698	108.398	81.5175	108.398	81.2493	108.398	81.425	108.398	81.3352
112.793	82.8035	112.793	82.6643	112.793	82.9163	112.793	82.5051	112.793	82.9979	112.793	82.333	112.793	83.0451	112.793	82.1562	112.793	83.0569	112.793	81.9827	112.793	83.0343	112.793	81.8206	112.793	82.9807	112.793	81.6771	112.793	82.9016	112.793	81.5582	112.793	82.8041	112.793	81.4682	112.793	82.6958	112.793	81.4096	112.793	82.5839	112.793	81.3829	112.793	82.4741	112.793	81.3867	112.793	82.3697	112.793	81.4176	112.793	82.2714	112.793	81.4714	112.793	82.178	112.793	81.5428	112.793	82.0871	112.793	81.6265	112.793	81.9965	112.793	81.7172	112.793	81.9045	112.793	81.8109
117.188	83.124	117.188	82.9807	117.188	83.2379	117.188	82.8149	117.188	83.3176	117.188	82.6342	117.188	83.3598	117.188	82.4475	117.188	83.3634	117.188	82.2636	117.188	83.3301	117.188	82.0914	117.188	83.2636	117.188	81.9389	117.188	83.1702	117.188	81.8127	117.188	83.058	117.188	81.7177	117.188	82.9358	117.188	81.6562	117.188	82.8119	117.188	81.6285	117.188	82.6932	117.188	81.6325	117.188	82.5834	117.188	81.6643	117.188	82.4837	117.188	81.7188	117.188	82.3923	117.188	81.7901	117.188	82.306	117.188	81.8721	117.188	82.2216	117.188	81.9597	117.188	82.1361	117.188	82.0486
120.117	83.349	120.117	83.2034	120.117	83.464	120.117	83.0341	120.117	83.5433	120.117	82.849	120.117	83.5838	120.117	82.6572	120.117	83.5847	120.117	82.4682	120.117	83.5475	120.117	82.2911	120.117	83.4764	120.117	82.1345	120.117	83.3782	120.117	82.0056	120.117	83.2612	120.117	81.9095	120.117	83.1348	120.117	81.8487	120.117	83.0078	120.117	81.8234	120.117	82.8871	120.117	81.8311	120.117	82.777	120.117	81.8672	120.117	82.6783	120.117	81.9258	120.117	82.5893	120.117	82.0004	120.117	82.5066	120.117	82.0844	120.117	82.426	120.117	82.1722	120.117	82.3443	120.117	82.2596
124.512	83.6994	124.512	83.5513	124.512	83.8161	124.512	83.3786	124.512	83.8964	124.512	83.1895	124.512	83.9371	124.512	82.9928	124.512	83.9372	124.512	82.7982	124.512	83.8985	124.512	82.6151	124.512	83.8253	124.512	82.4523	124.512	83.7243	124.512	82.3176	124.512	83.6042	124.512	82.2165	124.512	83.4748	124.512	82.1522	124.512	83.3452	124.512	82.1253	124.512	83.2227	124.512	82.1334	124.512	83.1115	124.512	82.1719	124.512	83.0123	124.512	82.2346	124.512	82.9233	124.512	82.3141	124.512	82.8402	124.512	82.4034	124.512	82.7588	124.512	82.4962	124.512	82.6753	124.512	82.5876
128.906	83.8315	128.906	83.6781	128.906	83.9519	128.906	83.4986	128.906	84.034	128.906	83.3014	128.906	84.0744	128.906	83.0958	128.906	84.0722	128.906	82.8914	128.906	84.0288	128.906	82.698	128.906	83.9488	128.906	82.5249	128.906	83.8391	128.906	82.3799	128.906	83.7088	128.906	82.2692	128.906	83.5683	128.906	82.1963	128.906	83.4273	128.906	82.1622	128.906	83.2939	128.906	82.1648	128.906	83.1729	128.906	82.1997	128.906	83.0657	128.906	82.2606	128.906	82.9702	128.906	82.34	128.906	82.8822	128.906	82.4306	128.906	82.7969	128.906	82.5254	128.906	82.71	128.906	82.6195
133.301	83.9521	133.301	83.794	133.301	84.0776	133.301	83.6107	133.301	84.1648	133.301	83.4109	133.301	84.21	133.301	83.2043	133.301	84.2122	133.301	83.0009	133.301	84.1729	133.301	82.8107	133.301	84.0965	133.301	82.6427	133.301	83.9903	133.301	82.5044	133.301	83.8635	133.301	82.4013	133.301	83.7265	133.301	82.3364	133.301	83.589	133.301	82.3099	133.301	83.459	133.301	82.3193	133.301	83.341	133.301	82.3597	133.301	83.2361	133.301	82.4248	133.301	83.142	133.301	82.5072	133.301	83.0548	133.301	82.5998	133.301	82.9695	133.301	82.696	133.301	82.8823	133.301	82.7911
139.16	84.1002	139.16	83.9327	139.16	84.2321	139.16	83.7377	139.16	84.3226	139.16	83.5247	139.16	84.3678	139.16	83.3044	139.16	84.3667	139.16	83.0877	139.16	84.3213	139.16	82.8859	139.16	84.2369	139.16	82.709	139.16	84.1216	139.16	82.5656	139.16	83.9861	139.16	82.4619	139.16	83.8419	139.16	82.4009	139.16	83.7001	139.16	82.3825	139.16	83.5692	139.16	82.4032	139.16	83.454	139.16	82.4572	139.16	83.355	139.16	82.5363	139.16	83.2687	139.16	82.6318	139.16	83.1894	139.16	82.7351	139.16	83.1109	139.16	82.8387	139.16	83.0279	139.16	82.9373
143.555	84.1517	143.555	83.9789	143.555	84.2865	143.555	83.7764	143.555	84.377	143.555	83.5542	143.555	84.4194	143.555	83.3234	143.555	84.4128	143.555	83.0956	143.555	84.3595	143.555	82.8826	143.555	84.265	143.555	82.695	143.555	84.1382	143.555	82.5419	143.555	83.9903	143.555	82.4297	143.555	83.8341	143.555	82.362	143.555	83.6812	143.555	82.3385	143.555	83.5411	143.555	82.3561	143.555	83.4187	143.555	82.4084	143.555	83.3146	143.555	82.4872	143.555	83.2253	143.555	82.5832	143.555	83.1444	143.555	82.6874	143.555	83.0653	143.555	82.7919	143.555	82.982	143.555	82.891
147.949	84.172	147.949	83.989	147.949	84.3147	147.949	83.7745	147.949	84.4103	147.949	83.539	147.949	84.4547	147.949	83.2942	147.949	84.4465	147.949	83.0524	147.949	84.3876	147.949	82.8261	147.949	84.2836	147.949	82.6266	147.949	84.1436	147.949	82.4634	147.949	83.9799	147.949	82.3433	147.949	83.8066	147.949	82.27	147.949	83.6376	147.949	82.2432	147.949	83.4838	147.949	82.2594	147.949	83.3516	147.949	82.3122	147.949	83.2417	147.949	82.3929	147.949	83.1497	147.949	82.492	147.949	83.0679	147.949	82.5998	147.949	82.9882	147.949	82.708	147.949	82.9036	147.949	82.8103
153.809	84.1524	153.809	83.9648	153.809	84.2976	153.809	83.7434	153.809	84.3939	153.809	83.4988	153.809	84.4375	153.809	83.243	153.809	84.4274	153.809	82.9888	153.809	84.3658	153.809	82.7493	153.809	84.258	153.809	82.5368	153.809	84.1128	153.809	82.3616	153.809	83.9414	153.809	82.2312	153.809	83.757	153.809	82.1494	153.809	83.5727	153.809	82.116	153.809	83.4002	153.809	82.1271	153.809	83.2478	153.809	82.1756	153.809	83.1184	153.809	82.2523	153.809	83.0103	153.809	82.3474	153.809	82.9175	153.809	82.451	153.809	82.8318	153.809	82.5551	153.809	82.7458	153.809	82.6541
159.668	84.2357	159.668	84.0445	159.668	84.3841	159.668	83.8191	159.668	84.4837	159.668	83.5699	159.668	84.5314	159.668	83.3093	159.668	84.5271	159.668	83.0508	159.668	84.4738	159.668	82.8079	159.668	84.3778	159.668	82.5937	159.668	84.248	159.668	82.4189	159.668	84.0953	159.668	82.2917	159.668	83.9313	159.668	82.216	159.668	83.7665	159.668	82.1915	159.668	83.6099	159.668	82.2137	159.668	83.467	159.668	82.275	159.668	83.3399	159.668	82.3655	159.668	83.2274	159.668	82.4745	159.668	83.1252	159.668	82.5921	159.668	83.0274	159.668	82.7099	159.668	82.9279	159.668	82.8226
165.527	84.2672	165.527	84.0769	165.527	84.4123	165.527	83.8503	165.527	84.5059	165.527	83.5987	165.527	84.5447	165.527	83.3349	165.527	84.5291	165.527	83.0729	165.527	84.4633	165.527	82.8271	165.527	84.3552	165.527	82.6109	165.527	84.2165	165.527	82.4361	165.527	84.061	165.527	82.3111	165.527	83.9029	165.527	82.2405	165.527	83.7541	165.527	82.224	165.527	83.6223	165.527	82.2573	165.527	83.51	165.527	82.3324	165.527	83.4147	165.527	82.4386	165.527	83.3301	165.527	82.5645	165.527	83.2485	165.527	82.6986	165.527	83.1621	165.527	82.8311	165.527	83.0652	165.527	82.9547
171.387	84.1742	171.387	83.9774	171.387	84.322	171.387	83.7415	171.387	84.4138	171.387	83.4787	171.387	84.4457	171.387	83.2029	171.387	84.4175	171.387	82.9292	171.387	84.3334	171.387	82.6734	171.387	84.2018	171.387	82.4503	171.387	84.0355	171.387	82.2725	171.387	83.8509	171.387	82.1494	171.387	83.6653	171.387	82.085	171.387	83.495	171.387	82.0784	171.387	83.3513	171.387	82.1235	171.387	83.2392	171.387	82.2102	171.387	83.1562	171.387	82.3259	171.387	83.0937	171.387	82.4569	171.387	83.04	171.387	82.5904	171.387	82.9831	171.387	82.7155	171.387	82.9131	171.387	82.8243
177.246	84.0408	177.246	83.8418	177.246	84.1886	177.246	83.6016	177.246	84.2782	177.246	83.3327	177.246	84.3058	177.246	83.0496	177.246	84.2713	177.246	82.768	177.246	84.179	177.246	82.504	177.246	84.0376	177.246	82.273	177.246	83.86	177.246	82.0883	177.246	83.6628	177.246	81.9592	177.246	83.4642	177.246	81.8904	177.246	83.2811	177.246	81.8811	177.246	83.1262	177.246	81.9249	177.246	83.0055	177.246	82.011	177.246	82.9176	177.246	82.126	177.246	82.8542	177.246	82.2555	177.246	82.8034	177.246	82.3858	177.246	82.7521	177.246	82.5059	177.246	82.6894	177.246	82.608
183.105	83.8471	183.105	83.6267	183.105	84.0103	183.105	83.3595	183.105	84.1091	183.105	83.059	183.105	84.14	183.105	82.7412	183.105	84.1031	183.105	82.4245	183.105	84.003	183.105	82.1279	183.105	83.8488	183.105	81.8699	183.105	83.6539	183.105	81.6664	183.105	83.4361	183.105	81.5286	183.105	83.2153	183.105	81.4617	183.105	83.0109	183.105	81.4636	183.105	82.8384	183.105	81.5261	183.105	82.7061	183.105	81.6355	183.105	82.6135	183.105	81.7754	183.105	82.5517	183.105	81.9282	183.105	82.5064	183.105	82.0779	183.105	82.4615	183.105	82.2115	183.105	82.4028	183.105	82.3207
188.965	83.763	188.965	83.5411	188.965	83.926	188.965	83.269	188.965	84.0236	188.965	82.9584	188.965	84.052	188.965	82.6228	188.965	84.0108	188.965	82.2781	188.965	83.9031	188.965	81.9421	188.965	83.7361	188.965	81.6333	188.965	83.5219	188.965	81.3698	188.965	83.2769	188.965	81.167	188.965	83.021	188.965	81.0357	188.965	82.7749	188.965	80.9796	188.965	82.5564	188.965	80.995	188.965	82.3763	188.965	81.0708	188.965	82.2364	188.965	81.1907	188.965	82.1295	188.965	81.3361	188.965	82.0426	188.965	81.4889	188.965	81.9606	188.965	81.6343	188.965	81.8703	188.965	81.7625
196.289	83.4875	196.289	83.2679	196.289	83.6516	196.289	83.003	196.289	83.7528	196.289	82.7053	196.289	83.7869	196.289	82.3898	196.289	83.7535	196.289	82.0727	196.289	83.6556	196.289	81.7713	196.289	83.5003	196.289	81.5021	196.289	83.2991	196.289	81.2799	196.289	83.067	196.289	81.1157	196.289	82.8226	196.289	81.0154	196.289	82.5859	196.289	80.9792	196.289	82.3756	196.289	81.0018	196.289	82.2047	196.289	81.0732	196.289	82.0767	196.289	81.1802	196.289	81.9848	196.289	81.3079	196.289	81.9146	196.289	81.442	196.289	81.8492	196.289	81.5697	196.289	81.7745	196.289	81.682
203.613	83.2021	203.613	82.9831	203.613	83.3594	203.613	82.7134	203.613	83.4477	203.613	82.4067	203.613	83.4641	203.613	82.0797	203.613	83.4102	203.613	81.7508	203.613	83.2926	203.613	81.4395	203.613	83.1231	203.613	81.1647	203.613	82.9173	203.613	80.9434	203.613	82.6933	203.613	80.7879	203.613	82.4688	203.613	80.7042	203.613	82.2596	203.613	80.6909	203.613	82.0775	203.613	80.7399	203.613	81.9297	203.613	80.8374	203.613	81.8178	203.613	80.9667	203.613	81.7373	203.613	81.1101	203.613	81.6776	203.613	81.2516	203.613	81.6243	203.613	81.3783	203.613	81.5629	203.613	81.4827
210.938	83.0705	210.938	82.8182	210.938	83.2556	210.938	82.5101	210.938	83.3656	210.938	82.1603	210.938	83.3955	210.938	81.7856	210.938	83.3449	210.938	81.4056	210.938	83.2176	210.938	81.0419	210.938	83.0232	210.938	80.7166	210.938	82.7765	210.938	80.4504	210.938	82.4978	210.938	80.2595	210.938	82.2109	210.938	80.153	210.938	81.941	210.938	80.1308	210.938	81.7101	210.938	80.1844	210.938	81.5326	210.938	80.2981	210.938	81.4108	210.938	80.4522	210.938	81.3347	210.938	80.6256	210.938	81.2844	210.938	80.7983	210.938	81.2373	210.938	80.9535	210.938	81.1733	210.938	81.0801
218.262	82.7162	218.262	82.4628	218.262	82.9024	218.262	82.1537	218.262	83.0125	218.262	81.8032	218.262	83.0415	218.262	81.428	218.262	82.9883	218.262	81.0475	218.262	82.8571	218.262	80.6828	218.262	82.6572	218.262	80.3562	218.262	82.4039	218.262	80.0887	218.262	82.1174	218.262	79.897	218.262	81.8213	218.262	79.7906	218.262	81.5402	218.262	79.7695	218.262	81.2965	218.262	79.824	218.262	81.1058	218.262	79.9375	218.262	80.9732	218.262	80.089	218.262	80.8915	218.262	80.2566	218.262	80.8429	218.262	80.42	218.262	80.804	218.262	80.5629	218.262	80.7531	218.262	80.6749
225.586	82.4477	225.586	82.1657	225.586	82.657	225.586	81.8237	225.586	82.7839	225.586	81.437	225.586	82.8223	225.586	81.0234	225.586	82.7704	225.586	80.6036	225.586	82.6319	225.586	80.2009	225.586	82.417	225.586	79.8408	225.586	82.1423	225.586	79.5488	225.586	81.8311	225.586	79.3466	225.586	81.5109	225.586	79.2471	225.586	81.2111	225.586	79.2513	225.586	80.9575	225.586	79.3466	225.586	80.7678	225.586	79.5106	225.586	80.6464	225.586	79.7147	225.586	80.5832	225.586	79.9302	225.586	80.5558	225.586	80.1315	225.586	80.5362	225.586	80.2992	225.586	80.4979	225.586	80.4219
232.91	82.4051	232.91	82.1	232.91	82.6382	232.91	81.7364	232.91	82.7877	232.91	81.3296	232.91	82.8455	232.91	80.8961	232.91	82.8072	232.91	80.4535	232.91	82.6739	232.91	80.021	232.91	82.4523	232.91	79.6197	232.91	82.1558	232.91	79.2726	232.91	81.8046	232.91	79.0022	232.91	81.4247	232.91	78.8276	232.91	81.0462	232.91	78.7589	232.91	80.7003	232.91	78.7936	232.91	80.4141	232.91	78.9151	232.91	80.204	232.91	79.096	232.91	80.0698	232.91	79.3036	232.91	79.9936	232.91	79.5063	232.91	79.9453	232.91	79.6791	232.91	79.8921	232.91	79.8079
241.699	81.6451	241.699	81.2491	241.699	81.9721	241.699	80.8034	241.699	82.2139	241.699	80.3301	241.699	82.3588	241.699	79.8517	241.699	82.4	241.699	79.3897	241.699	82.3358	241.699	78.9632	241.699	82.1696	241.699	78.5878	241.699	81.9102	241.699	78.2754	241.699	81.5712	241.699	78.034	241.699	81.1717	241.699	77.8684	241.699	80.7359	241.699	77.7796	241.699	80.2928	241.699	77.7642	241.699	79.8728	241.699	77.8135	241.699	79.5026	241.699	77.9135	241.699	79.1982	241.699	78.0466	241.699	78.9606	241.699	78.1947	241.699	78.7766	241.699	78.3432	241.699	78.6252	241.699	78.4855
250.488	81.3871	250.488	80.7678	250.488	81.8909	250.488	80.0516	250.488	82.268	250.488	79.2647	250.488	82.5138	250.488	78.4427	250.488	82.6303	250.488	77.6312	250.488	82.6266	250.488	76.8842	250.488	82.5173	250.488	76.2578	250.488	82.3213	250.488	75.7986	250.488	82.0583	250.488	75.5314	250.488	81.7457	250.488	75.4531	250.488	81.3965	250.488	75.5383	250.488	81.0196	250.488	75.7512	250.488	80.622	250.488	76.0555	250.488	80.2103	250.488	76.4201	250.488	79.7906	250.488	76.8208	250.488	79.3676	250.488	77.2401	250.488	78.9439	250.488	77.6665	250.488	78.5195	250.488	78.0937
259.277	83.7466	259.277	83.235	259.277	84.1438	259.277	82.6224	259.277	84.4177	259.277	81.9264	259.277	84.5644	259.277	81.1691	259.277	84.5862	259.277	80.3778	259.277	84.4926	259.277	79.5867	259.277	84.3008	259.277	78.8374	259.277	84.0349	259.277	78.1783	259.277	83.7227	259.277	77.66	259.277	83.3911	259.277	77.3266	259.277	83.0607	259.277	77.2042	259.277	82.7429	259.277	77.2936	259.277	82.4385	259.277	77.5711	259.277	82.1403	259.277	77.9953	259.277	81.8342	259.277	78.5167	259.277	81.5025	259.277	79.0861	259.277	81.1272	259.277	79.6596	259.277	80.6953	259.277	80.2033
268.066	84.7007	268.066	84.2919	268.066	84.9987	268.066	83.7847	268.066	85.1777	268.066	83.196	268.066	85.2347	268.066	82.5475	268.066	85.1725	268.066	81.8662	268.066	85.0013	268.066	81.1849	268.066	84.7397	268.066	80.543	268.066	84.4147	268.066	79.9849	268.066	84.0592	268.066	79.5558	268.066	83.707	268.066	79.2933	268.066	83.3852	268.066	79.2166	268.066	83.1094	268.066	79.3203	268.066	82.8813	268.066	79.5753	268.066	82.6909	268.066	79.9375	268.066	82.5198	268.066	80.3588	268.066	82.3445	268.066	80.7949	268.066	82.141	268.066	81.2098	268.066	81.8895	268.066	81.579
276.855	84.8741	276.855	84.5945	276.855	85.0422	276.855	84.2105	276.855	85.0966	276.855	83.7339	276.855	85.0397	276.855	83.182	276.855	84.8788	276.855	82.5781	276.855	84.6259	276.855	81.9517	276.855	84.2986	276.855	81.3393	276.855	83.9208	276.855	80.7833	276.855	83.5229	276.855	80.3288	276.855	83.1395	276.855	80.0159	276.855	82.8035	276.855	79.8697	276.855	82.5384	276.855	79.8919	276.855	82.3499	276.855	80.0596	276.855	82.2251	276.855	80.3321	276.855	82.1376	276.855	80.6615	276.855	82.0557	276.855	81.0027	276.855	81.9501	276.855	81.3199	276.855	81.7987	276.855	81.589
287.109	84.3001	287.109	84.0802	287.109	84.4072	287.109	83.7552	287.109	84.3982	287.109	83.3371	287.109	84.2749	287.109	82.8414	287.109	84.0456	287.109	82.2882	287.109	83.7258	287.109	81.7022	287.109	83.338	287.109	81.1143	287.109	82.9122	287.109	80.562	287.109	82.4828	287.109	80.0869	287.109	82.0857	287.109	79.7308	287.109	81.7531	287.109	79.5258	287.109	81.5079	287.109	79.4853	287.109	81.3573	287.109	79.5974	287.109	81.289	287.109	79.8277	287.109	81.2728	287.109	80.1277	287.109	81.2684	287.109	80.447	287.109	81.2358	287.109	80.7416	287.109	81.1448	287.109	80.9798
297.363	83.8639	297.363	83.6463	297.363	83.9698	297.363	83.3255	297.363	83.9599	297.363	82.9138	297.363	83.8352	297.363	82.4271	297.363	83.6032	297.363	81.8859	297.363	83.2787	297.363	81.3148	297.363	82.8841	297.363	80.7438	297.363	82.4481	297.363	80.2074	297.363	82.0025	297.363	79.7429	297.363	81.5802	297.363	79.3864	297.363	81.2127	297.363	79.1671	297.363	80.9285	297.363	79.0993	297.363	80.747	297.363	79.1777	297.363	80.6679	297.363	79.3759	297.363	80.6639	297.363	79.6518	297.363	80.687	297.363	79.9561	297.363	80.6853	297.363	80.2414	297.363	80.6191	297.363	80.47
307.617	83.5292	307.617	83.2888	307.617	83.6657	307.617	82.9567	307.617	83.6888	307.617	82.5462	307.617	83.5926	307.617	82.0716	307.617	83.378	307.617	81.55	307.617	83.0545	307.617	81.0026	307.617	82.6422	307.617	80.4575	307.617	82.172	307.617	79.9502	307.617	81.683	307.617	79.5213	307.617	81.2172	307.617	79.21	307.617	80.8139	307.617	79.0444	307.617	80.5052	307.617	79.033	307.617	80.3123	307.617	79.1609	307.617	80.2391	307.617	79.3922	307.617	80.2646	307.617	79.6776	307.617	80.343	307.617	79.9645	307.617	80.417	307.617	80.2059	307.617	80.4359	307.617	80.3681
319.336	83.0646	319.336	82.8245	319.336	83.1951	319.336	82.4885	319.336	83.2069	319.336	82.0728	319.336	83.0967	319.336	81.5954	319.336	82.8689	319.336	81.0753	319.336	82.5364	319.336	80.5335	319.336	82.122	319.336	79.9957	319.336	81.6577	319.336	79.4944	319.336	81.1814	319.336	79.0693	319.336	80.7319	319.336	78.7614	319.336	80.3427	319.336	78.6032	319.336	80.041	319.336	78.6063	319.336	79.8471	319.336	78.755	319.336	79.7702	319.336	79.0094	319.336	79.7983	319.336	79.3145	319.336	79.8918	319.336	79.6122	319.336	79.992	319.336	79.852	319.336	80.0411	319.336	79.9991
329.59	83.041	329.59	82.7744	329.59	83.1937	329.59	82.4083	329.59	83.2221	329.59	81.9601	329.59	83.1213	329.59	81.4487	329.59	82.8929	329.59	80.8938	329.59	82.5466	329.59	80.3158	329.59	82.1013	329.59	79.7383	329.59	81.5856	329.59	79.1901	329.59	81.036	329.59	78.7078	329.59	80.4933	329.59	78.334	329.59	79.9995	329.59	78.1083	329.59	79.5953	329.59	78.0534	329.59	79.3158	329.59	78.1623	329.59	79.1807	329.59	78.3958	329.59	79.1784	329.59	78.6935	329.59	79.2616	329.59	78.9901	329.59	79.3619	329.59	79.2297	329.59	79.4143	329.59	79.3753
341.309	82.5612	341.309	82.2633	341.309	82.7511	341.309	81.8744	341.309	82.8215	341.309	81.4153	341.309	82.7677	341.309	80.909	341.309	82.5915	341.309	80.3779	341.309	82.3029	341.309	79.8427	341.309	81.9199	341.309	79.3232	341.309	81.4684	341.309	78.8403	341.309	80.9803	341.309	78.4194	341.309	80.4904	341.309	78.0913	341.309	80.0334	341.309	77.888	341.309	79.6419	341.309	77.8322	341.309	79.3453	341.309	77.9257	341.309	79.1636	341.309	78.141	341.309	79.0961	341.309	78.4263	341.309	79.1132	341.309	78.7188	341.309	79.1606	341.309	78.962	341.309	79.1778	341.309	79.1183
353.027	82.3412	353.027	82.0219	353.027	82.5289	353.027	81.5863	353.027	82.5761	353.027	81.0557	353.027	82.4808	353.027	80.4575	353.027	82.2491	353.027	79.8242	353.027	81.896	353.027	79.1912	353.027	81.4463	353.027	78.5934	353.027	80.9321	353.027	78.0625	353.027	80.3893	353.027	77.6258	353.027	79.8529	353.027	77.3076	353.027	79.3579	353.027	77.1316	353.027	78.9426	353.027	77.1169	353.027	78.6491	353.027	77.2653	353.027	78.5076	353.027	77.5486	353.027	78.512	353.027	77.9071	353.027	78.6109	353.027	78.266	353.027	78.7266	353.027	78.5568	353.027	78.7847	353.027	78.7345
366.211	82.1902	366.211	81.8738	366.211	82.3784	366.211	81.4423	366.211	82.4306	366.211	80.9129	366.211	82.3451	366.211	80.3074	366.211	82.1275	366.211	79.6513	366.211	81.7926	366.211	78.9752	366.211	81.3637	366.211	78.3139	366.211	80.8706	366.211	77.7049	366.211	80.343	366.211	77.1841	366.211	79.8025	366.211	76.7791	366.211	79.2614	366.211	76.5061	366.211	78.7324	366.211	76.3713	366.211	78.2435	366.211	76.3725	366.211	77.8434	366.211	76.4955	366.211	77.5785	366.211	76.7073	366.211	77.4549	366.211	76.9548	366.211	77.4232	366.211	77.1784	366.211	77.4045	366.211	77.3326
379.395	82.5788	379.395	82.2708	379.395	82.7572	379.395	81.8464	379.395	82.7965	379.395	81.3222	379.395	82.6935	379.395	80.7171	379.395	82.4535	379.395	80.0537	379.395	82.0932	379.395	79.3592	379.395	81.6427	379.395	78.666	379.395	81.1429	379.395	78.0105	379.395	80.6376	379.395	77.4288	379.395	80.1609	379.395	76.9528	379.395	79.729	379.395	76.6089	379.395	79.3453	379.395	76.4182	379.395	79.0123	379.395	76.3939	379.395	78.7376	379.395	76.5313	379.395	78.5246	379.395	76.7975	379.395	78.3586	379.395	77.1349	379.395	78.205	379.395	77.48	379.395	78.0232	379.395	77.7836
392.578	82.4516	392.578	82.1048	392.578	82.6663	392.578	81.6488	392.578	82.7324	392.578	81.1109	392.578	82.6428	392.578	80.5202	392.578	82.4023	392.578	79.9048	392.578	82.0311	392.578	79.2911	392.578	81.568	392.578	78.7055	392.578	81.0675	392.578	78.1752	392.578	80.5874	392.578	77.7264	392.578	80.1683	392.578	77.3792	392.578	79.8194	392.578	77.145	392.578	79.5271	392.578	77.03	392.578	79.2791	392.578	77.0414	392.578	79.0791	392.578	77.1842	392.578	78.9371	392.578	77.4457	392.578	78.8445	392.578	77.7831	392.578	78.7621	392.578	78.1312	392.578	78.6361	392.578	78.4273
405.762	82.2269	405.762	81.9205	405.762	82.3572	405.762	81.457	405.762	82.304	405.762	80.8705	405.762	82.0708	405.762	80.212	405.762	81.6737	405.762	79.5485	405.762	81.146	405.762	78.9544	405.762	80.5445	405.762	78.4932	405.762	79.9522	405.762	78.1967	405.762	79.4648	405.762	78.0558	405.762	79.154	405.762	78.0301	405.762	79.0295	405.762	78.069	405.762	79.0368	405.762	78.1326	405.762	79.0964	405.762	78.2028	405.762	79.1449	405.762	78.2822	405.762	79.152	405.762	78.3832	405.762	79.1145	405.762	78.5121	405.762	79.0405	405.762	78.66	405.762	78.9369	405.762	78.8073
420.41	83.2111	420.41	82.9063	420.41	83.3336	420.41	82.4276	420.41	83.2643	420.41	81.7834	420.41	82.994	420.41	80.9858	420.41	82.5165	420.41	80.0588	420.41	81.8342	420.41	79.0525	420.41	80.967	420.41	78.0636	420.41	79.9669	420.41	77.2464	420.41	78.9362	420.41	76.7729	420.41	78.0388	420.41	76.7265	420.41	77.468	420.41	77.0333	420.41	77.3485	420.41	77.5301	420.41	77.6453	420.41	78.0751	420.41	78.1905	420.41	78.5882	420.41	78.7919	420.41	79.0365	420.41	79.308	420.41	79.4052	420.41	79.6633	420.41	79.6782	420.41	79.8346	420.41	79.8311
435.059	82.7289	435.059	82.5072	435.059	82.8	435.059	82.1427	435.059	82.7153	435.059	81.6446	435.059	82.4718	435.059	81.0228	435.059	82.0701	435.059	80.289	435.059	81.5164	435.059	79.4613	435.059	80.8267	435.059	78.5767	435.059	80.0343	435.059	77.7107	435.059	79.196	435.059	76.9896	435.059	78.3942	435.059	76.5659	435.059	77.7275	435.059	76.5307	435.059	77.2925	435.059	76.8398	435.059	77.1572	435.059	77.3486	435.059	77.3276	435.059	77.9085	435.059	77.7255	435.059	78.4157	435.059	78.215	435.059	78.8077	435.059	78.6616	435.059	79.0457	435.059	78.9731	435.059	79.1046
451.172	82.7725	451.172	82.5117	451.172	82.8672	451.172	82.0968	451.172	82.7862	451.172	81.5413	451.172	82.5238	451.172	80.8585	451.172	82.0795	451.172	80.0624	451.172	81.461	451.172	79.1712	451.172	80.6874	451.172	78.2172	451.172	79.796	451.172	77.2656	451.172	78.8476	451.172	76.437	451.172	77.9301	451.172	75.9022	451.172	77.1555	451.172	75.8049	451.172	76.6491	451.172	76.144	451.172	76.5183	451.172	76.7666	451.172	76.7851	451.172	77.4802	451.172	77.3375	451.172	78.1388	451.172	77.9814	451.172	78.653	451.172	78.5437	451.172	78.9715	451.172	78.9197	451.172	79.0648
465.82	82.9012	465.82	82.6864	465.82	82.9519	465.82	82.3215	465.82	82.8314	465.82	81.8248	465.82	82.5395	465.82	81.2162	465.82	82.0825	465.82	80.5132	465.82	81.4718	465.82	79.7322	465.82	80.724	465.82	78.8926	465.82	79.8649	465.82	78.0295	465.82	78.9375	465.82	77.2099	465.82	78.012	465.82	76.5449	465.82	77.1894	465.82	76.1694	465.82	76.5858	465.82	76.1698	465.82	76.297	465.82	76.5097	465.82	76.359	465.82	77.0452	465.82	76.7204	465.82	77.6089	465.82	77.2494	465.82	78.0696	465.82	77.7841	465.82	78.3437	465.82	78.1903	465.82	78.3869
483.398	82.9148	483.398	82.7365	483.398	82.9285	483.398	82.4038	483.398	82.7732	483.398	81.9314	483.398	82.4502	483.398	81.3356	483.398	81.9661	483.398	80.6316	483.398	81.3329	483.398	79.8344	483.398	80.5697	483.398	78.9651	483.398	79.7055	483.398	78.0652	483.398	78.7819	483.398	77.2163	483.398	77.8548	483.398	76.5539	483.398	77	483.398	76.2382	483.398	76.3324	483.398	76.3591	483.398	76.0147	483.398	76.8512	483.398	76.1792	483.398	77.532	483.398	76.7745	483.398	78.2103	483.398	77.5657	483.398	78.7465	483.398	78.3046	483.398	79.0554	483.398	78.8356	483.398	79.0908
499.512	82.6298	499.512	82.4737	499.512	82.6444	499.512	82.1883	499.512	82.509	499.512	81.7872	499.512	82.2211	499.512	81.2809	499.512	81.7838	499.512	80.6744	499.512	81.2081	499.512	79.9704	499.512	80.5146	499.512	79.1792	499.512	79.7353	499.512	78.3336	499.512	78.9126	499.512	77.5058	499.512	78.0938	499.512	76.8142	499.512	77.3298	499.512	76.4026	499.512	76.6909	499.512	76.3738	499.512	76.2932	499.512	76.7144	499.512	76.2728	499.512	77.2919	499.512	76.6641	499.512	77.9259	499.512	77.3205	499.512	78.456	499.512	78.008	499.512	78.7696	499.512	78.537	499.512	78.8025
517.09	83.0043	517.09	82.7951	517.09	83.061	517.09	82.455	517.09	82.9538	517.09	82.0083	517.09	82.6833	517.09	81.4724	517.09	82.2609	517.09	80.8493	517.09	81.7059	517.09	80.1274	517.09	81.0422	517.09	79.2944	517.09	80.2957	517.09	78.3599	517.09	79.4902	517.09	77.3835	517.09	78.6446	517.09	76.5049	517.09	77.7782	517.09	75.9393	517.09	76.9446	517.09	75.8749	517.09	76.3001	517.09	76.3129	517.09	76.1114	517.09	77.0561	517.09	76.5256	517.09	77.8579	517.09	77.334	517.09	78.5281	517.09	78.1676	517.09	78.9447	517.09	78.7709	517.09	79.0361
536.133	82.3334	536.133	82.0352	536.133	82.4288	536.133	81.576	536.133	82.3054	536.133	81.0182	536.133	81.9716	536.133	80.4281	536.133	81.4598	536.133	79.8486	536.133	80.8238	536.133	79.2824	536.133	80.1336	536.133	78.7012	536.133	79.4587	536.133	78.0775	536.133	78.8405	536.133	77.4181	536.133	78.2691	536.133	76.7909	536.133	77.6949	536.133	76.3359	536.133	77.0871	536.133	76.2277	536.133	76.5215	536.133	76.5558	536.133	76.2353	536.133	77.2228	536.133	76.4798	536.133	78.0016	536.133	77.2052	536.133	78.6681	536.133	78.0713	536.133	79.0659	536.133	78.7596	536.133	79.1061
555.176	83.1	555.176	82.7785	555.176	83.1835	555.176	82.2473	555.176	83.015	555.176	81.548	555.176	82.5943	555.176	80.7299	555.176	81.9366	555.176	79.8386	555.176	81.0769	555.176	78.9063	555.176	80.0782	555.176	77.9545	555.176	79.0416	555.176	77.0146	555.176	78.0982	555.176	76.1535	555.176	77.3519	555.176	75.4859	555.176	76.7998	555.176	75.1521	555.176	76.3408	555.176	75.257	555.176	75.9086	555.176	75.7914	555.176	75.61	555.176	76.6045	555.176	75.7073	555.176	77.4662	555.176	76.3235	555.176	78.1588	555.176	77.2175	555.176	78.5266	555.176	78.018	555.176	78.4838
574.219	83.1941	574.219	82.9219	574.219	83.2452	574.219	82.4529	574.219	83.0673	574.219	81.8271	574.219	82.6659	574.219	81.0932	574.219	82.0592	574.219	80.2906	574.219	81.2763	574.219	79.4305	574.219	80.3564	574.219	78.4931	574.219	79.346	574.219	77.453	574.219	78.2943	574.219	76.3343	574.219	77.2465	574.219	75.2897	574.219	76.2542	574.219	74.6473	574.219	75.432	574.219	74.7276	574.219	75.0156	574.219	75.4831	574.219	75.2217	574.219	76.5493	574.219	75.9728	574.219	77.5881	574.219	76.958	574.219	78.3966	574.219	77.892	574.219	78.8621	574.219	78.5867	574.219	78.9274
594.727	82.2595	594.727	82.0823	594.727	82.2045	594.727	81.7026	594.727	81.9153	594.727	81.1773	594.727	81.4157	594.727	80.5809	594.727	80.753	594.727	79.9794	594.727	79.9937	594.727	79.3962	594.727	79.2149	594.727	78.7952	594.727	78.4838	594.727	78.0988	594.727	77.8206	594.727	77.2281	594.727	77.1642	594.727	76.1571	594.727	76.3906	594.727	75.0101	594.727	75.4162	594.727	74.2046	594.727	74.3853	594.727	74.3042	594.727	73.8399	594.727	75.2923	594.727	74.3164	594.727	76.5495	594.727	75.5314	594.727	77.5779	594.727	76.812	594.727	78.161	594.727	77.7607	594.727	78.2253
615.234	82.934	615.234	82.6339	615.234	82.9434	615.234	82.0767	615.234	82.6582	615.234	81.3327	615.234	82.1005	615.234	80.5099	615.234	81.3142	615.234	79.7313	615.234	80.3595	615.234	79.0789	615.234	79.3131	615.234	78.5418	615.234	78.2778	615.234	78.0267	615.234	77.3789	615.234	77.4217	615.234	76.6895	615.234	76.6607	615.234	76.1245	615.234	75.7831	615.234	75.4668	615.234	75.0188	615.234	74.5521	615.234	74.7978	615.234	73.5362	615.234	75.3686	615.234	73.1535	615.234	76.397	615.234	74.0512	615.234	77.3371	615.234	75.6164	615.234	77.8353	615.234	76.9653	615.234	77.7286
637.207	83.0842	637.207	82.6978	637.207	83.2092	637.207	82.0705	637.207	83.076	637.207	81.2524	637.207	82.7025	637.207	80.3267	637.207	82.1113	637.207	79.3978	637.207	81.3224	637.207	78.5547	637.207	80.3631	637.207	77.8239	637.207	79.296	637.207	77.1603	637.207	78.2467	637.207	76.4981	637.207	77.363	637.207	75.8201	637.207	76.6835	637.207	75.2032	637.207	76.0927	637.207	74.8305	637.207	75.4906	637.207	74.9248	637.207	74.9895	637.207	75.552	637.207	74.9042	637.207	76.4804	637.207	75.4313	637.207	77.336	637.207	76.3599	637.207	77.8248	637.207	77.2614	637.207	77.8009
659.18	83.7126	659.18	83.3997	659.18	83.7346	659.18	82.8052	659.18	83.4781	659.18	81.9669	659.18	82.9721	659.18	80.9563	659.18	82.2572	659.18	79.8764	659.18	81.3835	659.18	78.8368	659.18	80.4133	659.18	77.9005	659.18	79.4268	659.18	77.0443	659.18	78.5163	659.18	76.1846	659.18	77.7366	659.18	75.2556	659.18	77.0332	659.18	74.3025	659.18	76.2521	659.18	73.5876	659.18	75.28	659.18	73.5713	659.18	74.2851	659.18	74.435	659.18	73.9236	659.18	75.734	659.18	74.7036	659.18	76.898	659.18	76.0459	659.18	77.5989	659.18	77.1576	659.18	77.6985
682.617	83.9663	682.617	83.6291	682.617	83.9975	682.617	83.0071	682.617	83.7283	682.617	82.1559	682.617	83.1853	682.617	81.1725	682.617	82.4106	682.617	80.1879	682.617	81.4576	682.617	79.3282	682.617	80.398	682.617	78.6469	682.617	79.3477	682.617	78.0886	682.617	78.4734	682.617	77.5277	682.617	77.8904	682.617	76.8477	682.617	77.5116	682.617	76.0154	682.617	77.0951	682.617	75.1752	682.617	76.451	682.617	74.7467	682.617	75.5923	682.617	75.1752	682.617	74.8791	682.617	76.2831	682.617	75.0091	682.617	77.4239	682.617	76.1126	682.617	78.1082	682.617	77.3703	682.617	78.1056
707.52	84.9048	707.52	84.5429	707.52	84.9282	707.52	83.8506	707.52	84.6323	707.52	82.8781	707.52	84.0516	707.52	81.728	707.52	83.2268	707.52	80.5453	707.52	82.1987	707.52	79.4681	707.52	81.0035	707.52	78.5565	707.52	79.6856	707.52	77.7742	707.52	78.3498	707.52	77.0556	707.52	77.2142	707.52	76.3859	707.52	76.4856	707.52	75.8303	707.52	76.0854	707.52	75.52	707.52	75.7389	707.52	75.6289	707.52	75.4033	707.52	76.2705	707.52	75.4559	707.52	77.2953	707.52	76.24	707.52	78.3147	707.52	77.4487	707.52	78.9649	707.52	78.5	707.52	79.0428
732.422	85.9277	732.422	85.6753	732.422	85.8023	732.422	85.0464	732.422	85.3236	732.422	84.069	732.422	84.5447	732.422	82.8126	732.422	83.5408	732.422	81.4156	732.422	82.384	732.422	80.0948	732.422	81.1196	732.422	79.0534	732.422	79.7962	732.422	78.31	732.422	78.5468	732.422	77.6854	732.422	77.5819	732.422	76.9842	732.422	76.9538	732.422	76.1399	732.422	76.4187	732.422	75.3104	732.422	75.7031	732.422	74.9785	732.422	74.8314	732.422	75.6298	732.422	74.3906	732.422	76.9794	732.422	75.2003	732.422	78.2863	732.422	76.8725	732.422	79.0657	732.422	78.3457	732.422	79.1084
757.324	86.475	757.324	86.289	757.324	86.2975	757.324	85.7469	757.324	85.7806	757.324	84.882	757.324	84.9833	757.324	83.7537	757.324	83.9899	757.324	82.4575	757.324	82.8739	757.324	81.14	757.324	81.6603	757.324	79.9833	757.324	80.3547	757.324	79.1037	757.324	79.067	757.324	78.4325	757.324	78.0681	757.324	77.7517	757.324	77.5002	757.324	76.8681	757.324	77.0632	757.324	75.8357	757.324	76.3032	757.324	75.252	757.324	75.0113	757.324	75.9146	757.324	73.6352	757.324	77.4326	757.324	73.8595	757.324	78.7951	757.324	75.9853	757.324	79.4709	757.324	78.0725	757.324	79.2608
785.156	87.0419	785.156	86.7908	785.156	86.9396	785.156	86.2121	785.156	86.4942	785.156	85.3623	785.156	85.7556	785.156	84.3253	785.156	84.8018	785.156	83.2064	785.156	83.7078	785.156	82.1075	785.156	82.5093	785.156	81.078	785.156	81.2003	785.156	80.0864	785.156	79.7956	785.156	79.0599	785.156	78.4424	785.156	77.9447	785.156	77.4285	785.156	76.6881	785.156	76.8295	785.156	75.1752	785.156	76.2474	785.156	73.4723	785.156	75.2079	785.156	72.891	785.156	73.7619	785.156	74.7538	785.156	73.4292	785.156	77.0996	785.156	75.3798	785.156	78.4945	785.156	77.5495	785.156	78.6549
811.523	86.8299	811.523	86.7963	811.523	86.4456	811.523	86.3667	811.523	85.6573	811.523	85.5925	811.523	84.5326	811.523	84.5603	811.523	83.2071	811.523	83.3984	811.523	81.8427	811.523	82.2648	811.523	80.5083	811.523	81.2926	811.523	79.1319	811.523	80.5269	811.523	77.6795	811.523	79.9272	811.523	76.4202	811.523	79.4064	811.523	75.8071	811.523	78.8286	811.523	75.7366	811.523	78.0276	811.523	75.5434	811.523	76.9876	811.523	74.7387	811.523	76.2314	811.523	73.4752	811.523	76.6201	811.523	73.3301	811.523	77.8026	811.523	75.3096	811.523	78.6646	811.523	77.4503	811.523	78.6108
840.82	86.0838	840.82	86.3116	840.82	85.4936	840.82	86.1468	840.82	84.6479	840.82	85.6022	840.82	83.7535	840.82	84.7327	840.82	83.0272	840.82	83.6668	840.82	82.492	840.82	82.6222	840.82	81.9445	840.82	81.7944	840.82	81.1543	840.82	81.1646	840.82	79.9995	840.82	80.5429	840.82	78.4937	840.82	79.8058	840.82	76.8619	840.82	78.9774	840.82	75.6657	840.82	78.09	840.82	75.285	840.82	77.1185	840.82	74.9673	840.82	76.3548	840.82	73.6066	840.82	76.6002	840.82	71.6897	840.82	77.7514	840.82	73.4255	840.82	78.6254	840.82	76.6658	840.82	78.4047
870.117	85.6516	870.117	85.8174	870.117	85.1804	870.117	85.6058	870.117	84.5326	870.117	84.9984	870.117	83.8729	870.117	84.034	870.117	83.3227	870.117	82.8382	870.117	82.8577	870.117	81.665	870.117	82.313	870.117	80.8058	870.117	81.5249	870.117	80.2859	870.117	80.4942	870.117	79.7971	870.117	79.4546	870.117	79.0281	870.117	78.6385	870.117	77.91	870.117	77.9073	870.117	76.6851	870.117	76.9675	870.117	75.8285	870.117	75.7246	870.117	75.7506	870.117	74.0418	870.117	76.4307	870.117	71.8131	870.117	77.2876	870.117	71.4882	870.117	77.5752	870.117	74.4071	870.117	76.7257
900.879	86.2175	900.879	86.4599	900.879	85.6201	900.879	86.2266	900.879	84.8406	900.879	85.4576	900.879	84.0712	900.879	84.172	900.879	83.4355	900.879	82.5194	900.879	82.8874	900.879	80.8597	900.879	82.2322	900.879	79.6874	900.879	81.2705	900.879	79.1852	900.879	79.9253	900.879	79.0354	900.879	78.3225	900.879	78.8437	900.879	76.8928	900.879	78.355	900.879	76.3104	900.879	77.367	900.879	76.6037	900.879	75.7538	900.879	76.6971	900.879	74.117	900.879	75.4563	900.879	74.5915	900.879	72.6026	900.879	76.7782	900.879	72.6322	900.879	78.2755	900.879	76.2228	900.879	78.2091
933.105	85.9005	933.105	86.2228	933.105	85.1624	933.105	86.0593	933.105	84.1493	933.105	85.3651	933.105	83.1066	933.105	84.1024	933.105	82.2901	933.105	82.2657	933.105	81.745	933.105	80.0205	933.105	81.2586	933.105	78.0155	933.105	80.574	933.105	77.1595	933.105	79.5746	933.105	77.2371	933.105	78.3351	933.105	77.3536	933.105	77.0685	933.105	77.1568	933.105	76.0855	933.105	76.7241	933.105	75.8123	933.105	76.1917	933.105	76.0446	933.105	75.7058	933.105	75.5308	933.105	75.6831	933.105	73.0619	933.105	76.291	933.105	69.8604	933.105	76.6794	933.105	72.7682	933.105	75.7654
965.332	85.5784	965.332	85.9027	965.332	84.8816	965.332	85.7797	965.332	83.9781	965.332	85.184	965.332	83.0989	965.332	84.1072	965.332	82.3872	965.332	82.5592	965.332	81.7724	965.332	80.6312	965.332	81.0545	965.332	78.646	965.332	80.0581	965.332	77.1859	965.332	78.6975	965.332	76.493	965.332	76.9999	965.332	76.1344	965.332	75.1428	965.332	75.763	965.332	73.7287	965.332	75.325	965.332	73.9306	965.332	74.6381	965.332	75.1805	965.332	73.556	965.332	75.5312	965.332	72.9133	965.332	74.0505	965.332	73.8595	965.332	71.7306	965.332	75.0239	965.332	72.7957	965.332	74.7852
1,000.49	85.2015	1,000.49	85.3675	1,000.49	84.5061	1,000.49	85.0068	1,000.49	83.3833	1,000.49	84.1684	1,000.49	82.0888	1,000.49	82.912	1,000.49	80.9405	1,000.49	81.2727	1,000.49	80.0723	1,000.49	79.2621	1,000.49	79.3717	1,000.49	77.0477	1,000.49	78.6702	1,000.49	75.3313	1,000.49	77.8676	1,000.49	74.8997	1,000.49	76.8823	1,000.49	75.1926	1,000.49	75.5116	1,000.49	75.2697	1,000.49	73.5245	1,000.49	74.9209	1,000.49	71.6478	1,000.49	74.4186	1,000.49	71.7485	1,000.49	74.1019	1,000.49	72.2606	1,000.49	74.1779	1,000.49	71.2571	1,000.49	74.5862	1,000.49	70.1452	1,000.49	74.7717	1,000.49	71.9229	1,000.49	73.9946
1,035.64	84.5958	1,035.64	85.0045	1,035.64	83.6	1,035.64	84.793	1,035.64	82.2087	1,035.64	83.9975	1,035.64	80.8164	1,035.64	82.648	1,035.64	79.8005	1,035.64	80.6978	1,035.64	79.1416	1,035.64	78.0042	1,035.64	78.5205	1,035.64	74.612	1,035.64	77.7293	1,035.64	72.2195	1,035.64	76.8721	1,035.64	73.1274	1,035.64	76.1624	1,035.64	74.6886	1,035.64	75.3215	1,035.64	75.1874	1,035.64	73.5946	1,035.64	74.5242	1,035.64	71.1306	1,035.64	73.1605	1,035.64	71.1913	1,035.64	72.3068	1,035.64	72.4601	1,035.64	73.0218	1,035.64	71.4974	1,035.64	74.3676	1,035.64	69.4627	1,035.64	75.0129	1,035.64	71.6025	1,035.64	74.216
1,072.27	83.6724	1,072.27	84.0502	1,072.27	82.7101	1,072.27	83.8262	1,072.27	81.3433	1,072.27	83.0296	1,072.27	79.9629	1,072.27	81.6942	1,072.27	78.871	1,072.27	79.9053	1,072.27	77.9471	1,072.27	77.8758	1,072.27	76.9065	1,072.27	75.9166	1,072.27	75.6498	1,072.27	74.2155	1,072.27	74.459	1,072.27	72.7197	1,072.27	73.9427	1,072.27	71.4956	1,072.27	73.8595	1,072.27	70.9387	1,072.27	73.0367	1,072.27	71.0008	1,072.27	71.0989	1,072.27	71.1854	1,072.27	70.1928	1,072.27	71.5296	1,072.27	71.0911	1,072.27	72.441	1,072.27	70.527	1,072.27	73.6271	1,072.27	68.3872	1,072.27	74.1248	1,072.27	70.0685	1,072.27	73.0656
1,108.89	82.9259	1,108.89	83.4785	1,108.89	81.8156	1,108.89	83.42	1,108.89	80.4398	1,108.89	82.7891	1,108.89	79.2861	1,108.89	81.6414	1,108.89	78.5467	1,108.89	80.0606	1,108.89	77.9716	1,108.89	78.1901	1,108.89	77.255	1,108.89	76.1923	1,108.89	76.1068	1,108.89	74.1358	1,108.89	74.3835	1,108.89	72.0755	1,108.89	72.8677	1,108.89	70.5766	1,108.89	72.786	1,108.89	70.3397	1,108.89	72.8366	1,108.89	70.4291	1,108.89	71.7328	1,108.89	69.6834	1,108.89	70.7862	1,108.89	68.5622	1,108.89	71.209	1,108.89	69.5067	1,108.89	70.4758	1,108.89	71.8654	1,108.89	68.1347	1,108.89	73.1068	1,108.89	69.4759	1,108.89	72.3458
1,148.44	82.5143	1,148.44	83.0557	1,148.44	81.4527	1,148.44	83.0106	1,148.44	80.24	1,148.44	82.4581	1,148.44	79.3592	1,148.44	81.5038	1,148.44	78.8257	1,148.44	80.2176	1,148.44	78.354	1,148.44	78.6146	1,148.44	77.7168	1,148.44	76.6869	1,148.44	76.5511	1,148.44	74.52	1,148.44	74.4973	1,148.44	72.5621	1,148.44	72.3311	1,148.44	71.4914	1,148.44	72.0084	1,148.44	71.0126	1,148.44	72.1316	1,148.44	70.2436	1,148.44	71.1972	1,148.44	69.1729	1,148.44	70.6971	1,148.44	68.9007	1,148.44	71.7369	1,148.44	70.3247	1,148.44	71.685	1,148.44	72.2905	1,148.44	69.2935	1,148.44	73.1845	1,148.44	68.8855	1,148.44	72.018
1,189.45	82.3363	1,189.45	82.8324	1,189.45	81.3328	1,189.45	82.6571	1,189.45	80.2351	1,189.45	81.8779	1,189.45	79.4158	1,189.45	80.7326	1,189.45	78.8714	1,189.45	79.4998	1,189.45	78.4883	1,189.45	78.2844	1,189.45	78.1577	1,189.45	76.9586	1,189.45	77.506	1,189.45	75.4096	1,189.45	76.0035	1,189.45	73.9015	1,189.45	73.6245	1,189.45	72.9651	1,189.45	71.7345	1,189.45	72.3399	1,189.45	70.9528	1,189.45	71.0822	1,189.45	69.8403	1,189.45	68.7331	1,189.45	69.8405	1,189.45	66.3874	1,189.45	71.1363	1,189.45	67.7694	1,189.45	70.971	1,189.45	70.7808	1,189.45	69.4051	1,189.45	72.2526	1,189.45	69.489	1,189.45	71.5896
1,230.47	82.7379	1,230.47	82.9549	1,230.47	82.005	1,230.47	82.652	1,230.47	81.0037	1,230.47	81.9181	1,230.47	80.1763	1,230.47	80.8814	1,230.47	79.6852	1,230.47	79.6648	1,230.47	79.4069	1,230.47	78.3198	1,230.47	79.0981	1,230.47	76.7789	1,230.47	78.2366	1,230.47	74.8925	1,230.47	76.3089	1,230.47	73.1576	1,230.47	73.7463	1,230.47	73.2617	1,230.47	72.4121	1,230.47	74.1939	1,230.47	71.7845	1,230.47	73.7877	1,230.47	70.4934	1,230.47	71.3698	1,230.47	70.0459	1,230.47	67.1306	1,230.47	71.1513	1,230.47	68.1041	1,230.47	71.706	1,230.47	71.9631	1,230.47	70.355	1,230.47	73.1637	1,230.47	69.4095	1,230.47	71.8311
1,274.41	83.0512	1,274.41	82.9716	1,274.41	82.6521	1,274.41	82.3298	1,274.41	82.0023	1,274.41	81.2614	1,274.41	81.2402	1,274.41	79.9795	1,274.41	80.404	1,274.41	78.6003	1,274.41	79.6179	1,274.41	77.1701	1,274.41	78.9281	1,274.41	75.6865	1,274.41	78.0013	1,274.41	73.6555	1,274.41	76.3902	1,274.41	69.9264	1,274.41	74.3077	1,274.41	67.0334	1,274.41	73.1176	1,274.41	71.0458	1,274.41	72.9793	1,274.41	73.0259	1,274.41	72.007	1,274.41	71.9427	1,274.41	68.8147	1,274.41	67.2387	1,274.41	67.7851	1,274.41	64.2205	1,274.41	70.6257	1,274.41	70.7282	1,274.41	69.9774	1,274.41	72.7615	1,274.41	68.1963	1,274.41	71.2229
1,319.82	83.9637	1,319.82	83.8727	1,319.82	83.4925	1,319.82	83.0391	1,319.82	82.5921	1,319.82	81.357	1,319.82	81.2464	1,319.82	78.9547	1,319.82	79.3921	1,319.82	76.3169	1,319.82	77.4656	1,319.82	74.2088	1,319.82	76.396	1,319.82	73.1451	1,319.82	75.9984	1,319.82	72.5731	1,319.82	74.7785	1,319.82	71.1024	1,319.82	71.7402	1,319.82	67.6186	1,319.82	68.5596	1,319.82	66.3364	1,319.82	69.0277	1,319.82	69.7284	1,319.82	69.9097	1,319.82	71.0832	1,319.82	69.5424	1,319.82	69.0267	1,319.82	68.8534	1,319.82	61.0858	1,319.82	68.8048	1,319.82	65.615	1,319.82	69.5448	1,319.82	69.6155	1,319.82	70.18	1,319.82	70.3251
1,366.7	84.394	1,366.7	84.83	1,366.7	83.3687	1,366.7	84.3624	1,366.7	81.9557	1,366.7	82.8423	1,366.7	80.1218	1,366.7	80.4233	1,366.7	78.0237	1,366.7	77.3516	1,366.7	76.5234	1,366.7	73.7362	1,366.7	76.078	1,366.7	70.7709	1,366.7	76.0456	1,366.7	70.1867	1,366.7	75.3045	1,366.7	69.3529	1,366.7	73.3377	1,366.7	66.2877	1,366.7	70.6445	1,366.7	63.4851	1,366.7	68.363	1,366.7	67.9332	1,366.7	68.6046	1,366.7	70.7749	1,366.7	69.6349	1,366.7	70.3519	1,366.7	69.3462	1,366.7	66.4185	1,366.7	68.7612	1,366.7	63.98	1,366.7	67.251	1,366.7	69.5784	1,366.7	69.0356	1,366.7	71.2252
1,413.57	84.5758	1,413.57	85.0389	1,413.57	83.1118	1,413.57	84.3651	1,413.57	81.312	1,413.57	82.8981	1,413.57	79.8585	1,413.57	81.1478	1,413.57	78.6593	1,413.57	79.0886	1,413.57	77.5552	1,413.57	75.8143	1,413.57	76.8013	1,413.57	69.9282	1,413.57	76.2592	1,413.57	59.6152	1,413.57	75.465	1,413.57	53.9831	1,413.57	73.8634	1,413.57	54.0061	1,413.57	70.3411	1,413.57	54.8533	1,413.57	65.0953	1,413.57	53.09	1,413.57	68.2545	1,413.57	66.0178	1,413.57	70.0255	1,413.57	70.8114	1,413.57	69.3798	1,413.57	70.1964	1,413.57	68.551	1,413.57	68.5799	1,413.57	69.2822	1,413.57	70.3418	1,413.57	69.3226	1,413.57	69.9353
1,463.38	85.1067	1,463.38	85.2908	1,463.38	83.647	1,463.38	84.3178	1,463.38	81.4944	1,463.38	82.7329	1,463.38	79.3613	1,463.38	80.9609	1,463.38	77.7059	1,463.38	79.0228	1,463.38	77.2877	1,463.38	76.5639	1,463.38	77.4547	1,463.38	73.3397	1,463.38	77.3534	1,463.38	69.6329	1,463.38	76.7249	1,463.38	65.4762	1,463.38	75.4097	1,463.38	65.0586	1,463.38	73.8031	1,463.38	64.9029	1,463.38	71.8478	1,463.38	57.0162	1,463.38	68.6273	1,463.38	65.8794	1,463.38	64.9038	1,463.38	69.9591	1,463.38	67.7944	1,463.38	68.4862	1,463.38	69.7482	1,463.38	66.4981	1,463.38	68.0371	1,463.38	68.7236	1,463.38	68.9536	1,463.38	70.2337
1,516.11	85.2512	1,516.11	85.4065	1,516.11	83.8686	1,516.11	84.2553	1,516.11	81.9035	1,516.11	82.4018	1,516.11	79.564	1,516.11	80.4715	1,516.11	77.6513	1,516.11	78.4924	1,516.11	77.4715	1,516.11	76.3543	1,516.11	77.6433	1,516.11	74.3437	1,516.11	77.537	1,516.11	72.2388	1,516.11	77.2953	1,516.11	69.1874	1,516.11	76.3924	1,516.11	67.4638	1,516.11	74.624	1,516.11	67.6038	1,516.11	72.7997	1,516.11	63.7904	1,516.11	70.2727	1,516.11	60.3176	1,516.11	66.7879	1,516.11	67.8414	1,516.11	66.3133	1,516.11	68.1122	1,516.11	66.7624	1,516.11	67.6752	1,516.11	66.9151	1,516.11	69.2852	1,516.11	67.3124	1,516.11	69.0135
1,568.85	84.8083	1,568.85	84.9212	1,568.85	83.824	1,568.85	84.1585	1,568.85	81.8659	1,568.85	82.4196	1,568.85	79.4561	1,568.85	79.7781	1,568.85	78.3365	1,568.85	76.8003	1,568.85	78.1288	1,568.85	74.1903	1,568.85	77.2726	1,568.85	72.4238	1,568.85	76.0423	1,568.85	71.0549	1,568.85	75.3315	1,568.85	69.7641	1,568.85	74.6452	1,568.85	70.8012	1,568.85	73.1556	1,568.85	71.4955	1,568.85	72.1208	1,568.85	68.9107	1,568.85	71.4904	1,568.85	62.18	1,568.85	69.8268	1,568.85	64.6986	1,568.85	66.925	1,568.85	65.1075	1,568.85	65.862	1,568.85	63.9956	1,568.85	68.5035	1,568.85	68.4088	1,568.85	69.283	1,568.85	70.2436
1,624.51	84.0139	1,624.51	84.3091	1,624.51	83.0594	1,624.51	83.8069	1,624.51	81.559	1,624.51	82.2825	1,624.51	79.3901	1,624.51	79.6003	1,624.51	77.8366	1,624.51	76.3506	1,624.51	77.9085	1,624.51	73.6266	1,624.51	77.5896	1,624.51	71.4708	1,624.51	76.5998	1,624.51	68.1712	1,624.51	75.8522	1,624.51	57.5042	1,624.51	75.656	1,624.51	62.4615	1,624.51	74.759	1,624.51	68.2114	1,624.51	72.7087	1,624.51	68.8202	1,624.51	70.634	1,624.51	66.0099	1,624.51	67.3122	1,624.51	63.8227	1,624.51	65.9875	1,624.51	65.3335	1,624.51	64.7307	1,624.51	65.3803	1,624.51	67.6698	1,624.51	67.5617	1,624.51	68.9243	1,624.51	68.5278
1,681.64	83.8894	1,681.64	84.0659	1,681.64	83.0362	1,681.64	83.3989	1,681.64	80.8034	1,681.64	81.3792	1,681.64	77.2905	1,681.64	78.1718	1,681.64	76.9305	1,681.64	74.4172	1,681.64	78.0641	1,681.64	71.9198	1,681.64	77.6459	1,681.64	71.6272	1,681.64	76.4378	1,681.64	69.6399	1,681.64	74.8928	1,681.64	62.3489	1,681.64	73.4161	1,681.64	53.9826	1,681.64	73.9324	1,681.64	64.2362	1,681.64	74.2554	1,681.64	67.1694	1,681.64	72.3188	1,681.64	68.0015	1,681.64	67.6161	1,681.64	65.4294	1,681.64	66.0784	1,681.64	61.5271	1,681.64	64.8666	1,681.64	60.4137	1,681.64	62.2693	1,681.64	63.3094	1,681.64	68.2351	1,681.64	67.4053
1,741.7	84.7292	1,741.7	84.2713	1,741.7	83.6826	1,741.7	82.9275	1,741.7	80.4516	1,741.7	80.2459	1,741.7	77.1545	1,741.7	76.2537	1,741.7	77.1136	1,741.7	73.7323	1,741.7	76.7909	1,741.7	72.8808	1,741.7	75.9713	1,741.7	72.2388	1,741.7	75.7654	1,741.7	71.5141	1,741.7	75.7664	1,741.7	66.8795	1,741.7	74.1825	1,741.7	47.3248	1,741.7	69.5224	1,741.7	60.8305	1,741.7	68.9437	1,741.7	66.4677	1,741.7	70.4453	1,741.7	68.5175	1,741.7	70.0916	1,741.7	67.3884	1,741.7	69.5654	1,741.7	62.9532	1,741.7	67.8557	1,741.7	58.5923	1,741.7	64.6609	1,741.7	65.6005	1,741.7	69.295	1,741.7	69.8708
1,803.22	84.3631	1,803.22	84.2217	1,803.22	83.3811	1,803.22	82.2532	1,803.22	81.1681	1,803.22	78.5981	1,803.22	77.4146	1,803.22	75.0428	1,803.22	76.2139	1,803.22	71.8416	1,803.22	76.7838	1,803.22	69.9115	1,803.22	76.774	1,803.22	70.2174	1,803.22	76.4591	1,803.22	69.1719	1,803.22	76.1018	1,803.22	67.4963	1,803.22	75.0576	1,803.22	59.7299	1,803.22	71.9117	1,803.22	55.8302	1,803.22	69.8679	1,803.22	62.8489	1,803.22	70.4728	1,803.22	67.0519	1,803.22	69.3834	1,803.22	68.6484	1,803.22	70.0845	1,803.22	66.5388	1,803.22	67.8872	1,803.22	60.0749	1,803.22	63.7712	1,803.22	63.5072	1,803.22	68.0083	1,803.22	69.2789
1,866.21	84.7077	1,866.21	83.6223	1,866.21	84.3232	1,866.21	81.7185	1,866.21	80.791	1,866.21	76.927	1,866.21	75.4858	1,866.21	70.798	1,866.21	75.3379	1,866.21	72.656	1,866.21	75.8697	1,866.21	71.3956	1,866.21	76.648	1,866.21	70.0281	1,866.21	76.5498	1,866.21	68.343	1,866.21	76.1537	1,866.21	61.7627	1,866.21	75.2548	1,866.21	59.7473	1,866.21	71.9194	1,866.21	62.9297	1,866.21	67.2834	1,866.21	58.3101	1,866.21	70.3328	1,866.21	67.2302	1,866.21	70.9583	1,866.21	68.6775	1,866.21	70.467	1,866.21	65.4601	1,866.21	68.3058	1,866.21	60.0816	1,866.21	64.058	1,866.21	62.0438	1,866.21	68.6685	1,866.21	67.2309
1,932.13	85.3257	1,932.13	83.4814	1,932.13	84.4306	1,932.13	79.8333	1,932.13	80.66	1,932.13	75.4857	1,932.13	75.1779	1,932.13	68.7623	1,932.13	75.8827	1,932.13	69.1621	1,932.13	78.3407	1,932.13	70.6201	1,932.13	78.2843	1,932.13	66.809	1,932.13	76.38	1,932.13	67.1845	1,932.13	75.5962	1,932.13	67.8213	1,932.13	75.255	1,932.13	70.7949	1,932.13	71.8724	1,932.13	72.5253	1,932.13	71.3662	1,932.13	66.295	1,932.13	71.5098	1,932.13	67.4189	1,932.13	69.2089	1,932.13	68.5248	1,932.13	70.0545	1,932.13	58.2599	1,932.13	69.4303	1,932.13	59.2911	1,932.13	58.6872	1,932.13	66.1824	1,932.13	70.091	1,932.13	66.9511
1,999.51	85.25	1,999.51	83.792	1,999.51	84.3886	1,999.51	78.9686	1,999.51	80.5866	1,999.51	70.3438	1,999.51	72.5082	1,999.51	68.8826	1,999.51	76.625	1,999.51	68.1384	1,999.51	79.0491	1,999.51	68.1413	1,999.51	79.0593	1,999.51	68.4534	1,999.51	76.7658	1,999.51	68.0619	1,999.51	74.5347	1,999.51	68.814	1,999.51	75.6884	1,999.51	69.6824	1,999.51	71.8369	1,999.51	74.1493	1,999.51	71.2202	1,999.51	72.4564	1,999.51	73.0062	1,999.51	64.9703	1,999.51	69.3345	1,999.51	67.0624	1,999.51	69.4673	1,999.51	64.6596	1,999.51	69.7622	1,999.51	55.3569	1,999.51	57.4415	1,999.51	60.4988	1,999.51	71.9708	1,999.51	68.273
2,069.82	84.8105	2,069.82	82.8096	2,069.82	84.0207	2,069.82	78.11	2,069.82	79.74	2,069.82	69.195	2,069.82	71.8033	2,069.82	65.6217	2,069.82	76.972	2,069.82	71.3734	2,069.82	79.0141	2,069.82	69.3883	2,069.82	79.3654	2,069.82	69.6732	2,069.82	78.8401	2,069.82	72.6791	2,069.82	75.8665	2,069.82	74.0553	2,069.82	76.3205	2,069.82	73.2397	2,069.82	75.3123	2,069.82	75.1647	2,069.82	65.2907	2,069.82	74.4234	2,069.82	72.3733	2,069.82	65.6722	2,069.82	73.1988	2,069.82	59.9283	2,069.82	68.7429	2,069.82	66.9492	2,069.82	69.7152	2,069.82	62.9963	2,069.82	55.8218	2,069.82	58.814	2,069.82	71.8722	2,069.82	66.283
2,143.07	84.3575	2,143.07	82.1465	2,143.07	83.4259	2,143.07	76.407	2,143.07	78.8631	2,143.07	66.4819	2,143.07	64.036	2,143.07	66.3956	2,143.07	78.0227	2,143.07	69.9733	2,143.07	79.1718	2,143.07	71.466	2,143.07	77.9666	2,143.07	73.6036	2,143.07	79.1345	2,143.07	74.9922	2,143.07	77.6426	2,143.07	75.2154	2,143.07	75.2779	2,143.07	72.0295	2,143.07	76.9666	2,143.07	69.8281	2,143.07	71.4435	2,143.07	71.3772	2,143.07	67.5574	2,143.07	58.6152	2,143.07	72.0585	2,143.07	56.0133	2,143.07	73.522	2,143.07	67.6578	2,143.07	60.9405	2,143.07	64.9194	2,143.07	59.3857	2,143.07	56.505	2,143.07	70.5458	2,143.07	69.4745
2,219.24	84.2294	2,219.24	81.2336	2,219.24	83.5845	2,219.24	75.7516	2,219.24	77.3851	2,219.24	61.0458	2,219.24	66.584	2,219.24	70.8486	2,219.24	75.9922	2,219.24	72.5431	2,219.24	78.8181	2,219.24	72.2516	2,219.24	79.0632	2,219.24	72.7927	2,219.24	79.1582	2,219.24	70.1697	2,219.24	78.2402	2,219.24	66.9579	2,219.24	73.3952	2,219.24	67.957	2,219.24	74.7879	2,219.24	64.5325	2,219.24	73.7728	2,219.24	57.9921	2,219.24	69.8566	2,219.24	68.9123	2,219.24	67.4644	2,219.24	67.5807	2,219.24	72.0781	2,219.24	63.9874	2,219.24	70.913	2,219.24	55.5901	2,219.24	55.8904	2,219.24	50.5797	2,219.24	66.647	2,219.24	67.0052
2,296.88	83.7817	2,296.88	81.5362	2,296.88	82.8639	2,296.88	74.1236	2,296.88	77.1161	2,296.88	59.3802	2,296.88	67.3413	2,296.88	67.9632	2,296.88	78.2377	2,296.88	73.6299	2,296.88	79.8108	2,296.88	76.567	2,296.88	79.614	2,296.88	74.3315	2,296.88	77.3949	2,296.88	73.7707	2,296.88	76.1843	2,296.88	71.7867	2,296.88	75.0756	2,296.88	71.8504	2,296.88	72.0225	2,296.88	72.4176	2,296.88	72.9323	2,296.88	63.1084	2,296.88	70.3299	2,296.88	67.2718	2,296.88	64.7528	2,296.88	71.077	2,296.88	67.8287	2,296.88	70.281	2,296.88	67.9226	2,296.88	63.0717	2,296.88	59.2703	2,296.88	48.8469	2,296.88	66.1376	2,296.88	62.3616
2,378.91	84.0076	2,378.91	81.0125	2,378.91	83.2774	2,378.91	75.5036	2,378.91	75.9715	2,378.91	70.6192	2,378.91	67.83	2,378.91	74.4957	2,378.91	77.6363	2,378.91	76.4926	2,378.91	80.6173	2,378.91	75.3941	2,378.91	80.0557	2,378.91	73.3252	2,378.91	76.4686	2,378.91	72.3809	2,378.91	73.9549	2,378.91	74.0777	2,378.91	70.9797	2,378.91	72.3607	2,378.91	66.6137	2,378.91	69.0133	2,378.91	64.9406	2,378.91	65.8947	2,378.91	71.4862	2,378.91	66.5575	2,378.91	69.428	2,378.91	72.6177	2,378.91	66.1276	2,378.91	70.5338	2,378.91	66.9053	2,378.91	58.7099	2,378.91	51.3064	2,378.91	55.2917	2,378.91	66.0659	2,378.91	57.5103
2,462.4	83.9741	2,462.4	81.2581	2,462.4	83.3757	2,462.4	76.5384	2,462.4	76.5796	2,462.4	68.2119	2,462.4	71.0465	2,462.4	75.0594	2,462.4	79.3024	2,462.4	77.7133	2,462.4	80.2752	2,462.4	76.6584	2,462.4	79.5975	2,462.4	75.1711	2,462.4	76.6469	2,462.4	74.487	2,462.4	73.8847	2,462.4	73.3034	2,462.4	73.9065	2,462.4	70.954	2,462.4	69.807	2,462.4	69.7088	2,462.4	68.2855	2,462.4	68.966	2,462.4	66.2915	2,462.4	68.8619	2,462.4	70.2892	2,462.4	68.9175	2,462.4	66.1902	2,462.4	67.9037	2,462.4	67.2722	2,462.4	62.2409	2,462.4	54.5729	2,462.4	54.2312	2,462.4	66.0541	2,462.4	61.5156
2,548.83	82.1508	2,548.83	80.5862	2,548.83	81.8536	2,548.83	75.483	2,548.83	76.9169	2,548.83	70.7563	2,548.83	64.1462	2,548.83	76.8273	2,548.83	78.5433	2,548.83	76.7085	2,548.83	80.6143	2,548.83	76.7393	2,548.83	79.199	2,548.83	75.3966	2,548.83	77.011	2,548.83	71.5424	2,548.83	74.9618	2,548.83	70.9048	2,548.83	73.4585	2,548.83	70.2394	2,548.83	68.0222	2,548.83	68.6717	2,548.83	62.0242	2,548.83	68.3746	2,548.83	66.1868	2,548.83	68.3149	2,548.83	69.184	2,548.83	67.073	2,548.83	66.7922	2,548.83	65.6039	2,548.83	67.5897	2,548.83	59.4882	2,548.83	54.4411	2,548.83	54.5773	2,548.83	68.4759	2,548.83	62.8019
2,639.65	82.4445	2,639.65	80.6048	2,639.65	80.9831	2,639.65	74.2319	2,639.65	74.9483	2,639.65	74.1993	2,639.65	67.1821	2,639.65	77.4497	2,639.65	78.14	2,639.65	78.0638	2,639.65	80.3494	2,639.65	77.1397	2,639.65	79.5455	2,639.65	76.199	2,639.65	77.2254	2,639.65	74.3039	2,639.65	75.831	2,639.65	71.2049	2,639.65	74.4153	2,639.65	69.3155	2,639.65	69.3979	2,639.65	65.3014	2,639.65	62.5628	2,639.65	65.8903	2,639.65	62.4988	2,639.65	68.0377	2,639.65	69.1834	2,639.65	67.1441	2,639.65	67.19	2,639.65	66.4442	2,639.65	64.8894	2,639.65	61.023	2,639.65	61.4851	2,639.65	50.7311	2,639.65	68.0821	2,639.65	60.9898
2,731.93	82.7069	2,731.93	80.9294	2,731.93	81.6174	2,731.93	76.0418	2,731.93	76.5532	2,731.93	76.5438	2,731.93	66.0763	2,731.93	78.4313	2,731.93	77.0049	2,731.93	78.7725	2,731.93	79.7465	2,731.93	77.574	2,731.93	79.4341	2,731.93	74.6937	2,731.93	76.8198	2,731.93	72.1515	2,731.93	73.443	2,731.93	69.9073	2,731.93	71.2004	2,731.93	69.1768	2,731.93	64.6595	2,731.93	69.2993	2,731.93	65.2509	2,731.93	65.7693	2,731.93	63.9381	2,731.93	68.249	2,731.93	69.8431	2,731.93	67.7504	2,731.93	67.7144	2,731.93	66.7788	2,731.93	67.2398	2,731.93	61.683	2,731.93	61.4544	2,731.93	54.3576	2,731.93	65.1106	2,731.93	59.0278
2,828.61	83.1667	2,828.61	81.5682	2,828.61	81.6852	2,828.61	77.7007	2,828.61	76.9274	2,828.61	77.4901	2,828.61	70.8647	2,828.61	79.9118	2,828.61	77.713	2,828.61	79.8431	2,828.61	79.8356	2,828.61	77.5748	2,828.61	79.4291	2,828.61	75.0028	2,828.61	77.5989	2,828.61	72.4323	2,828.61	74.1588	2,828.61	71.5321	2,828.61	71.1345	2,828.61	71.1554	2,828.61	63.6532	2,828.61	69.3227	2,828.61	64.9425	2,828.61	65.8274	2,828.61	66.8474	2,828.61	67.8051	2,828.61	70.1875	2,828.61	67.6159	2,828.61	66.271	2,828.61	65.7895	2,828.61	65.4266	2,828.61	62.7229	2,828.61	56.6104	2,828.61	51.0158	2,828.61	65.0547	2,828.61	54.8561
2,928.22	83.3506	2,928.22	82.101	2,928.22	81.5602	2,928.22	77.04	2,928.22	77.1235	2,928.22	77.511	2,928.22	72.9987	2,928.22	79.6477	2,928.22	77.7822	2,928.22	78.5385	2,928.22	80.1553	2,928.22	76.0012	2,928.22	80.1029	2,928.22	74.4979	2,928.22	79.1474	2,928.22	73.0308	2,928.22	74.8703	2,928.22	70.2811	2,928.22	67.9818	2,928.22	66.7146	2,928.22	68.5869	2,928.22	65.7654	2,928.22	69.1605	2,928.22	64.2952	2,928.22	68.5608	2,928.22	65.4128	2,928.22	70.6637	2,928.22	66.6806	2,928.22	65.6352	2,928.22	65.033	2,928.22	62.1835	2,928.22	61.5976	2,928.22	61.3606	2,928.22	55.0158	2,928.22	64.0338	2,928.22	62.2826
3,030.76	83.4429	3,030.76	81.6558	3,030.76	81.0913	3,030.76	76.358	3,030.76	77.5794	3,030.76	78.5942	3,030.76	74.0719	3,030.76	79.5999	3,030.76	77.719	3,030.76	78.1941	3,030.76	79.9278	3,030.76	76.3133	3,030.76	79.6319	3,030.76	74.7899	3,030.76	79.183	3,030.76	70.3531	3,030.76	74.48	3,030.76	68.7424	3,030.76	67.158	3,030.76	69.4899	3,030.76	68.4693	3,030.76	69.0172	3,030.76	72.1077	3,030.76	66.7114	3,030.76	69.1485	3,030.76	66.2064	3,030.76	70.9027	3,030.76	66.7798	3,030.76	66.6397	3,030.76	63.7053	3,030.76	62.3724	3,030.76	61.5841	3,030.76	59.6944	3,030.76	43.2069	3,030.76	65.396	3,030.76	59.9683
3,137.7	83.7356	3,137.7	81.5215	3,137.7	80.9221	3,137.7	77.7055	3,137.7	76.7686	3,137.7	79.9791	3,137.7	75.9995	3,137.7	80.4371	3,137.7	77.2541	3,137.7	79.0533	3,137.7	80.0542	3,137.7	77.5668	3,137.7	79.5087	3,137.7	73.9772	3,137.7	77.4998	3,137.7	73.8835	3,137.7	72.6892	3,137.7	73.9644	3,137.7	69.7844	3,137.7	69.9663	3,137.7	70.1984	3,137.7	69.1397	3,137.7	69.998	3,137.7	67.4814	3,137.7	70.1964	3,137.7	65.6974	3,137.7	71.6778	3,137.7	67.8247	3,137.7	67.3179	3,137.7	65.7445	3,137.7	58.4998	3,137.7	62.7011	3,137.7	61.2136	3,137.7	43.3778	3,137.7	65.9371	3,137.7	62.5469
3,249.02	84.1001	3,249.02	81.9294	3,249.02	81.9652	3,249.02	79.2988	3,249.02	77.774	3,249.02	81.1242	3,249.02	77.3783	3,249.02	80.4585	3,249.02	76.9523	3,249.02	79.5221	3,249.02	79.5792	3,249.02	77.432	3,249.02	80.2533	3,249.02	76.4684	3,249.02	76.6918	3,249.02	74.8097	3,249.02	72.5375	3,249.02	68.7627	3,249.02	71.9555	3,249.02	68.8518	3,249.02	72.9005	3,249.02	68.969	3,249.02	70.8048	3,249.02	67.0403	3,249.02	70.3794	3,249.02	65.2777	3,249.02	70.8651	3,249.02	67.8039	3,249.02	67.2995	3,249.02	66.6345	3,249.02	60.9444	3,249.02	62.239	3,249.02	61.1768	3,249.02	48.7938	3,249.02	65.572	3,249.02	56.4147
3,363.28	84.7398	3,363.28	82.3457	3,363.28	82.2571	3,363.28	79.8555	3,363.28	79.6849	3,363.28	81.2003	3,363.28	80.1715	3,363.28	80.6443	3,363.28	79.2181	3,363.28	79.4435	3,363.28	79.9348	3,363.28	77.7804	3,363.28	81.0827	3,363.28	75.2159	3,363.28	79.1766	3,363.28	68.9697	3,363.28	75.7523	3,363.28	70.7406	3,363.28	75.209	3,363.28	69.0378	3,363.28	73.9365	3,363.28	67.2175	3,363.28	71.6112	3,363.28	67.0422	3,363.28	69.8666	3,363.28	65.6561	3,363.28	70.2749	3,363.28	66.0788	3,363.28	65.2787	3,363.28	65.1379	3,363.28	56.794	3,363.28	62.788	3,363.28	64.594	3,363.28	48.4162	3,363.28	65.1923	3,363.28	57.5282
3,481.93	84.6857	3,481.93	81.5372	3,481.93	81.8034	3,481.93	79.7169	3,481.93	78.627	3,481.93	80.7238	3,481.93	81.3111	3,481.93	80.5733	3,481.93	79.5842	3,481.93	78.5637	3,481.93	80.0187	3,481.93	76.3188	3,481.93	80.4911	3,481.93	71.5096	3,481.93	79.3693	3,481.93	72.7339	3,481.93	77.9959	3,481.93	72.1589	3,481.93	76.4544	3,481.93	65.3271	3,481.93	75.7309	3,481.93	67.095	3,481.93	72.8901	3,481.93	66.0551	3,481.93	68.2503	3,481.93	65.3255	3,481.93	67.6713	3,481.93	65.5193	3,481.93	64.5065	3,481.93	65.395	3,481.93	57.2206	3,481.93	61.2351	3,481.93	66.5869	3,481.93	54.3671	3,481.93	62.9464	3,481.93	59.0231
3,604.98	85.0864	3,604.98	81.5485	3,604.98	82.8651	3,604.98	81.0229	3,604.98	76.9817	3,604.98	81.8638	3,604.98	81.2485	3,604.98	81.3539	3,604.98	79.7	3,604.98	79.1962	3,604.98	78.9981	3,604.98	75.3643	3,604.98	80.8103	3,604.98	76.0034	3,604.98	79.6191	3,604.98	72.8855	3,604.98	78.6935	3,604.98	69.1676	3,604.98	75.5797	3,604.98	70.3445	3,604.98	73.571	3,604.98	69.3886	3,604.98	73.3285	3,604.98	66.8724	3,604.98	68.4693	3,604.98	66.0571	3,604.98	68.6097	3,604.98	67.3555	3,604.98	61.6331	3,604.98	67.82	3,604.98	56.3936	3,604.98	63.5331	3,604.98	66.5382	3,604.98	58.6084	3,604.98	63.5436	3,604.98	60.6547
3,732.42	85.1314	3,732.42	81.6938	3,732.42	83.9065	3,732.42	81.6868	3,732.42	78.0549	3,732.42	82.3353	3,732.42	81.5996	3,732.42	81.9918	3,732.42	80.4881	3,732.42	77.7716	3,732.42	77.9903	3,732.42	77.6205	3,732.42	81.4031	3,732.42	75.0848	3,732.42	80.2719	3,732.42	73.0154	3,732.42	78.1686	3,732.42	73.6438	3,732.42	74.3964	3,732.42	69.8958	3,732.42	71.0339	3,732.42	68.251	3,732.42	70.8985	3,732.42	67.4088	3,732.42	70.9787	3,732.42	66.1427	3,732.42	64.0314	3,732.42	67.563	3,732.42	65.8606	3,732.42	68.3272	3,732.42	54.9099	3,732.42	64.9889	3,732.42	65.9143	3,732.42	58.7964	3,732.42	64.2852	3,732.42	59.8546
3,864.26	85.8116	3,864.26	82.4412	3,864.26	85.1528	3,864.26	81.9742	3,864.26	79.4755	3,864.26	83.0112	3,864.26	82.7712	3,864.26	80.7046	3,864.26	81.0044	3,864.26	78.0515	3,864.26	78.4936	3,864.26	78.0584	3,864.26	80.7689	3,864.26	75.7732	3,864.26	79.4287	3,864.26	75.8086	3,864.26	77.7892	3,864.26	71.1609	3,864.26	73.027	3,864.26	69.2055	3,864.26	53.4293	3,864.26	68.6271	3,864.26	70.2307	3,864.26	66.3509	3,864.26	69.3512	3,864.26	64.0184	3,864.26	68.1095	3,864.26	66.2669	3,864.26	66.4109	3,864.26	67.1455	3,864.26	54.5311	3,864.26	64.8576	3,864.26	65.7604	3,864.26	62.6865	3,864.26	64.044	3,864.26	59.6767
4,000.49	84.5604	4,000.49	80.7849	4,000.49	84.4869	4,000.49	81.7916	4,000.49	80.0807	4,000.49	82.7398	4,000.49	82.678	4,000.49	79.2395	4,000.49	81.7316	4,000.49	79.1541	4,000.49	77.9125	4,000.49	77.543	4,000.49	79.839	4,000.49	75.9593	4,000.49	78.2745	4,000.49	70.684	4,000.49	77.0763	4,000.49	68.1083	4,000.49	73.12	4,000.49	70.1426	4,000.49	66.6981	4,000.49	66.7599	4,000.49	67.8771	4,000.49	66.9938	4,000.49	68.4616	4,000.49	64.9415	4,000.49	65.2201	4,000.49	64.2497	4,000.49	66.1609	4,000.49	67.1532	4,000.49	55.0011	4,000.49	62.3283	4,000.49	65.6323	4,000.49	61.3473	4,000.49	64.1563	4,000.49	53.1933
4,141.11	84.3064	4,141.11	81.0273	4,141.11	84.6891	4,141.11	83.3686	4,141.11	80.4104	4,141.11	82.7108	4,141.11	82.63	4,141.11	80.1291	4,141.11	81.915	4,141.11	80.0046	4,141.11	75.7945	4,141.11	77.827	4,141.11	79.3564	4,141.11	73.287	4,141.11	78.5666	4,141.11	73.333	4,141.11	75.3122	4,141.11	73.3112	4,141.11	67.9924	4,141.11	70.1736	4,141.11	66.9558	4,141.11	67.5688	4,141.11	66.8401	4,141.11	67.2628	4,141.11	67.8592	4,141.11	63.6049	4,141.11	64.4699	4,141.11	65.6128	4,141.11	64.3985	4,141.11	67.0948	4,141.11	53.6016	4,141.11	65.6972	4,141.11	65.5505	4,141.11	60.5537	4,141.11	63.1729	4,141.11	51.415
4,287.6	84.1383	4,287.6	82.0642	4,287.6	85.4721	4,287.6	83.9787	4,287.6	81.3778	4,287.6	82.2201	4,287.6	83.2715	4,287.6	80.3919	4,287.6	81.4109	4,287.6	79.9655	4,287.6	75.4707	4,287.6	75.062	4,287.6	80.566	4,287.6	75.9453	4,287.6	78.9576	4,287.6	72.2804	4,287.6	75.2646	4,287.6	68.4482	4,287.6	61.6767	4,287.6	70.2388	4,287.6	66.0805	4,287.6	69.1732	4,287.6	70.2799	4,287.6	68.2026	4,287.6	71.2528	4,287.6	65.7138	4,287.6	65.5729	4,287.6	66.1986	4,287.6	66.4502	4,287.6	67.0585	4,287.6	51.4277	4,287.6	67.5324	4,287.6	65.271	4,287.6	63.7421	4,287.6	62.6034	4,287.6	46.5555
4,438.48	83.7632	4,438.48	82.9187	4,438.48	84.9439	4,438.48	83.9211	4,438.48	82.3757	4,438.48	81.9925	4,438.48	82.9149	4,438.48	81.9963	4,438.48	81.8436	4,438.48	79.0786	4,438.48	76.3862	4,438.48	78.9758	4,438.48	81.0278	4,438.48	76.1992	4,438.48	80.2006	4,438.48	73.6861	4,438.48	72.6651	4,438.48	74.26	4,438.48	65.3646	4,438.48	69.4508	4,438.48	63.8999	4,438.48	68.2121	4,438.48	70.6171	4,438.48	67.5831	4,438.48	72.8472	4,438.48	66.3274	4,438.48	64.3169	4,438.48	66.1942	4,438.48	65.3127	4,438.48	68.2589	4,438.48	49.3058	4,438.48	65.2747	4,438.48	60.1368	4,438.48	64.7646	4,438.48	62.5895	4,438.48	58.7365
4,595.21	83.1541	4,595.21	82.8538	4,595.21	84.8599	4,595.21	82.892	4,595.21	82.3191	4,595.21	82.2194	4,595.21	83.4502	4,595.21	81.0552	4,595.21	83.085	4,595.21	79.344	4,595.21	75.0505	4,595.21	77.311	4,595.21	79.4895	4,595.21	75.4037	4,595.21	77.5102	4,595.21	73.9011	4,595.21	67.3176	4,595.21	68.7882	4,595.21	69.5289	4,595.21	69.9166	4,595.21	56.3429	4,595.21	66.9046	4,595.21	67.8812	4,595.21	67.0255	4,595.21	71.0721	4,595.21	65.9898	4,595.21	60.74	4,595.21	65.0742	4,595.21	64.6663	4,595.21	67.5964	4,595.21	51.3812	4,595.21	66.3581	4,595.21	60.0664	4,595.21	64.5692	4,595.21	59.8607	4,595.21	60.5207
4,756.35	83.4153	4,756.35	83.3983	4,756.35	84.446	4,756.35	83.3991	4,756.35	82.818	4,756.35	82.9606	4,756.35	83.7128	4,756.35	81.3636	4,756.35	83.0826	4,756.35	79.9359	4,756.35	74.9528	4,756.35	78.8315	4,756.35	78.1604	4,756.35	75.6863	4,756.35	73.9052	4,756.35	73.2485	4,756.35	69.4444	4,756.35	72.5644	4,756.35	71.0835	4,756.35	69.1326	4,756.35	42.4245	4,756.35	67.3317	4,756.35	66.5059	4,756.35	68.4678	4,756.35	70.5438	4,756.35	66.2353	4,756.35	62.5291	4,756.35	67.5855	4,756.35	63.0941	4,756.35	67.9178	4,756.35	51.4831	4,756.35	67.6306	4,756.35	58.9476	4,756.35	64.9254	4,756.35	59.116	4,756.35	45.2372
4,924.8	83.55	4,924.8	83.6221	4,924.8	84.4985	4,924.8	83.6083	4,924.8	83.4518	4,924.8	83.2635	4,924.8	83.3233	4,924.8	81.3306	4,924.8	82.8939	4,924.8	80.2351	4,924.8	75.5186	4,924.8	77.7319	4,924.8	77.6186	4,924.8	75.9318	4,924.8	74.2444	4,924.8	74.5022	4,924.8	73.6782	4,924.8	70.7252	4,924.8	73.3254	4,924.8	70.21	4,924.8	57.882	4,924.8	66.8994	4,924.8	61.9818	4,924.8	66.4798	4,924.8	69.2686	4,924.8	64.8938	4,924.8	65.2344	4,924.8	66.356	4,924.8	62.513	4,924.8	68.3706	4,924.8	49.9444	4,924.8	66.856	4,924.8	56.0815	4,924.8	66.161	4,924.8	59.9427	4,924.8	59.1363
5,097.66	83.1041	5,097.66	82.8388	5,097.66	84.3187	5,097.66	83.3535	5,097.66	83.2485	5,097.66	82.7138	5,097.66	83.0605	5,097.66	81.2831	5,097.66	83.0845	5,097.66	80.0981	5,097.66	75.2201	5,097.66	78.6392	5,097.66	76.6539	5,097.66	76.247	5,097.66	77.5849	5,097.66	73.6035	5,097.66	75.2609	5,097.66	72.4748	5,097.66	72.7806	5,097.66	69.5553	5,097.66	63.5692	5,097.66	67.6346	5,097.66	57.9633	5,097.66	66.9962	5,097.66	66.0908	5,097.66	65.6697	5,097.66	66.545	5,097.66	64.9027	5,097.66	64.5679	5,097.66	68.6077	5,097.66	54.3024	5,097.66	67.4232	5,097.66	58.8253	5,097.66	65.4948	5,097.66	59.8465	5,097.66	60.6637
5,277.83	83.617	5,277.83	83.3541	5,277.83	83.9748	5,277.83	84.0526	5,277.83	84.0017	5,277.83	83.1488	5,277.83	82.7473	5,277.83	82.0487	5,277.83	83.2369	5,277.83	80.6317	5,277.83	78.7204	5,277.83	79.2085	5,277.83	74.0367	5,277.83	76.4988	5,277.83	80.5986	5,277.83	74.7852	5,277.83	77.5084	5,277.83	70.4098	5,277.83	69.0235	5,277.83	68.9964	5,277.83	64.4883	5,277.83	67.5223	5,277.83	57.1314	5,277.83	65.0011	5,277.83	66.4159	5,277.83	66.1572	5,277.83	67.4294	5,277.83	65.4965	5,277.83	66.481	5,277.83	68.4784	5,277.83	59.7425	5,277.83	67.4244	5,277.83	60.7978	5,277.83	65.2778	5,277.83	58.9723	5,277.83	55.7303
5,463.87	83.731	5,463.87	83.2526	5,463.87	84.2422	5,463.87	84.1203	5,463.87	84.1351	5,463.87	82.8512	5,463.87	83.0612	5,463.87	81.9055	5,463.87	82.7587	5,463.87	80.2252	5,463.87	79.7874	5,463.87	78.762	5,463.87	75.239	5,463.87	75.0685	5,463.87	79.6836	5,463.87	73.7922	5,463.87	77.6196	5,463.87	71.3098	5,463.87	70.3961	5,463.87	68.3064	5,463.87	66.9671	5,463.87	67.2685	5,463.87	58.4248	5,463.87	64.2703	5,463.87	59.7593	5,463.87	64.6415	5,463.87	64.7998	5,463.87	63.0754	5,463.87	66.7744	5,463.87	67.3353	5,463.87	61.6755	5,463.87	66.9673	5,463.87	61.7552	5,463.87	65.5234	5,463.87	58.7258	5,463.87	60.3251
5,657.23	82.7465	5,657.23	82.8815	5,657.23	83.6077	5,657.23	83.7143	5,657.23	83.8815	5,657.23	82.5217	5,657.23	82.8467	5,657.23	82.1327	5,657.23	82.0229	5,657.23	80.6766	5,657.23	79.1328	5,657.23	78.3541	5,657.23	74.7004	5,657.23	75.158	5,657.23	78.5414	5,657.23	73.3259	5,657.23	76.3481	5,657.23	69.2655	5,657.23	70.2408	5,657.23	68.7243	5,657.23	57.669	5,657.23	67.6588	5,657.23	58.4678	5,657.23	64.4205	5,657.23	51.71	5,657.23	65.1032	5,657.23	62.6829	5,657.23	63.4816	5,657.23	63.6566	5,657.23	66.7091	5,657.23	55.2674	5,657.23	67.1321	5,657.23	58.7234	5,657.23	66.0426	5,657.23	56.3814	5,657.23	63.5734
5,856.45	83.5254	5,856.45	83.3169	5,856.45	83.6813	5,856.45	83.9715	5,856.45	84.3762	5,856.45	83.1234	5,856.45	83.3523	5,856.45	82.6962	5,856.45	82.4072	5,856.45	80.8017	5,856.45	79.4748	5,856.45	78.0425	5,856.45	73.3236	5,856.45	74.6788	5,856.45	79.6005	5,856.45	74.4782	5,856.45	75.4532	5,856.45	70.2288	5,856.45	66.4487	5,856.45	68.3997	5,856.45	62.978	5,856.45	67.0142	5,856.45	62.6544	5,856.45	65.219	5,856.45	51.9853	5,856.45	63.4567	5,856.45	56.3002	5,856.45	63.0421	5,856.45	64.5275	5,856.45	67.1032	5,856.45	57.5481	5,856.45	66.4244	5,856.45	56.307	5,856.45	65.502	5,856.45	57.4172	5,856.45	61.1883
6,062.99	82.9282	6,062.99	82.984	6,062.99	83.3938	6,062.99	83.5294	6,062.99	83.6229	6,062.99	83.1141	6,062.99	82.7221	6,062.99	82.3418	6,062.99	81.8576	6,062.99	80.3997	6,062.99	78.7255	6,062.99	77.9889	6,062.99	71.1094	6,062.99	75.3167	6,062.99	78.6597	6,062.99	73.017	6,062.99	76.6818	6,062.99	70.7543	6,062.99	71.7856	6,062.99	69.4498	6,062.99	68.3703	6,062.99	66.2569	6,062.99	64.4345	6,062.99	66.5882	6,062.99	60.9144	6,062.99	63.2077	6,062.99	55.8175	6,062.99	62.5686	6,062.99	63.7932	6,062.99	66.9574	6,062.99	62.5916	6,062.99	66.6857	6,062.99	58.388	6,062.99	66.8215	6,062.99	57.0515	6,062.99	62.1154
6,276.86	83.5734	6,276.86	83.0539	6,276.86	83.4636	6,276.86	83.485	6,276.86	83.7765	6,276.86	83.1942	6,276.86	82.6479	6,276.86	82.2332	6,276.86	80.9553	6,276.86	80.8271	6,276.86	78.5157	6,276.86	78.5247	6,276.86	69.204	6,276.86	75.298	6,276.86	78.4728	6,276.86	72.1175	6,276.86	78.0591	6,276.86	69.2604	6,276.86	72.6161	6,276.86	67.6481	6,276.86	70.4634	6,276.86	65.991	6,276.86	61.0402	6,276.86	65.5851	6,276.86	66.6205	6,276.86	62.2859	6,276.86	65.1003	6,276.86	62.5194	6,276.86	62.8664	6,276.86	66.1887	6,276.86	63.762	6,276.86	66.1116	6,276.86	58.4909	6,276.86	66.2118	6,276.86	54.5048	6,276.86	60.7367
6,498.05	83.5277	6,498.05	83.1542	6,498.05	83.5382	6,498.05	83.9503	6,498.05	82.5928	6,498.05	83.3113	6,498.05	81.969	6,498.05	82.3559	6,498.05	81.6054	6,498.05	81.4723	6,498.05	80.3943	6,498.05	78.7177	6,498.05	72.1484	6,498.05	75.575	6,498.05	79.4291	6,498.05	73.6515	6,498.05	78.3478	6,498.05	70.6003	6,498.05	73.2686	6,498.05	67.5074	6,498.05	72.0316	6,498.05	66.8506	6,498.05	62.9574	6,498.05	66.183	6,498.05	62.9162	6,498.05	63.3561	6,498.05	66.5976	6,498.05	62.5902	6,498.05	64.1089	6,498.05	65.8336	6,498.05	62.3325	6,498.05	65.5868	6,498.05	58.3903	6,498.05	66.3618	6,498.05	58.247	6,498.05	60.6309
6,726.56	83.9022	6,726.56	83.4592	6,726.56	84.451	6,726.56	83.6207	6,726.56	83.1606	6,726.56	82.4999	6,726.56	81.2611	6,726.56	82.3082	6,726.56	81.4773	6,726.56	81.4411	6,726.56	81.8633	6,726.56	78.4945	6,726.56	75.5542	6,726.56	75.8346	6,726.56	77.0922	6,726.56	72.2172	6,726.56	77.5465	6,726.56	70.4595	6,726.56	72.7617	6,726.56	67.2727	6,726.56	69.2773	6,726.56	65.9462	6,726.56	58.3783	6,726.56	65.6845	6,726.56	53.5672	6,726.56	64.1479	6,726.56	65.8703	6,726.56	60.9786	6,726.56	60.9592	6,726.56	64.4928	6,726.56	53.5436	6,726.56	66.15	6,726.56	58.8561	6,726.56	66.4773	6,726.56	52.7496	6,726.56	61.5899
6,963.87	84.0952	6,963.87	84.0046	6,963.87	84.3006	6,963.87	83.714	6,963.87	82.7048	6,963.87	83.0296	6,963.87	80.8757	6,963.87	82.7716	6,963.87	81.5591	6,963.87	81.5327	6,963.87	82.502	6,963.87	79.286	6,963.87	76.805	6,963.87	75.9077	6,963.87	76.7018	6,963.87	73.0825	6,963.87	74.2092	6,963.87	70.3294	6,963.87	64.4172	6,963.87	68.1852	6,963.87	65.6076	6,963.87	66.4243	6,963.87	48.2782	6,963.87	65.0747	6,963.87	57.599	6,963.87	63.7178	6,963.87	67.8026	6,963.87	62.4513	6,963.87	53.0988	6,963.87	64.7016	6,963.87	53.7358	6,963.87	65.6276	6,963.87	56.5281	6,963.87	65.959	6,963.87	50.9927	6,963.87	62.0329
7,209.96	84.3287	7,209.96	84.0219	7,209.96	84.6518	7,209.96	83.2633	7,209.96	83.3379	7,209.96	82.9857	7,209.96	81.4497	7,209.96	82.2534	7,209.96	80.2708	7,209.96	81.621	7,209.96	81.1916	7,209.96	79.1342	7,209.96	76.3804	7,209.96	76.0197	7,209.96	74.6544	7,209.96	73.7118	7,209.96	68.1111	7,209.96	69.9943	7,209.96	67.2364	7,209.96	67.4641	7,209.96	61.6556	7,209.96	65.9159	7,209.96	49.1969	7,209.96	65.1178	7,209.96	60.1239	7,209.96	61.894	7,209.96	65.8897	7,209.96	61.8703	7,209.96	57.935	7,209.96	62.3699	7,209.96	60.4242	7,209.96	64.7514	7,209.96	59.8497	7,209.96	65.2161	7,209.96	50.0467	7,209.96	61.8335
7,464.84	84.4569	7,464.84	84.0814	7,464.84	84.3157	7,464.84	83.3702	7,464.84	82.9711	7,464.84	82.7916	7,464.84	82.1531	7,464.84	82.0406	7,464.84	81.3862	7,464.84	81.4161	7,464.84	79.4681	7,464.84	79.0959	7,464.84	73.9706	7,464.84	76.1076	7,464.84	69.8161	7,464.84	72.0601	7,464.84	65.1203	7,464.84	68.784	7,464.84	66.5403	7,464.84	65.421	7,464.84	64.5187	7,464.84	65.1067	7,464.84	55.2108	7,464.84	64.9419	7,464.84	58.8296	7,464.84	60.0969	7,464.84	61.7731	7,464.84	61.6244	7,464.84	55.709	7,464.84	61.9506	7,464.84	56.5149	7,464.84	63.5479	7,464.84	58.034	7,464.84	64.6898	7,464.84	45.6157	7,464.84	59.7823
7,727.05	84.7144	7,727.05	84.4001	7,727.05	84.6708	7,727.05	83.4657	7,727.05	83.1552	7,727.05	82.8599	7,727.05	82.7825	7,727.05	82.24	7,727.05	82.5965	7,727.05	81.1568	7,727.05	79.3526	7,727.05	78.6096	7,727.05	74.2735	7,727.05	74.7557	7,727.05	64.7553	7,727.05	70.8232	7,727.05	68.4264	7,727.05	68.457	7,727.05	66.8165	7,727.05	64.734	7,727.05	65.3136	7,727.05	64.2327	7,727.05	57.9365	7,727.05	64.7897	7,727.05	62.512	7,727.05	60.5015	7,727.05	61.8456	7,727.05	62.4882	7,727.05	58.4715	7,727.05	60.6885	7,727.05	58.6876	7,727.05	60.9759	7,727.05	57.604	7,727.05	63.6272	7,727.05	49.5756	7,727.05	58.9443
7,999.51	84.8852	7,999.51	84.3624	7,999.51	84.4252	7,999.51	83.0926	7,999.51	83.1421	7,999.51	82.6899	7,999.51	82.9222	7,999.51	82.018	7,999.51	82.7113	7,999.51	80.9657	7,999.51	79.2597	7,999.51	77.8682	7,999.51	75.6843	7,999.51	74.5501	7,999.51	63.4569	7,999.51	71.5301	7,999.51	72.8786	7,999.51	68.0572	7,999.51	71.6164	7,999.51	63.8584	7,999.51	62.3869	7,999.51	63.192	7,999.51	56.3365	7,999.51	63.4727	7,999.51	58.2054	7,999.51	59.8207	7,999.51	59.1354	7,999.51	62.5551	7,999.51	57.4943	7,999.51	58.8883	7,999.51	57.7083	7,999.51	61.1998	7,999.51	59.069	7,999.51	62.9341	7,999.51	44.9994	7,999.51	60.4015
8,282.23	84.843	8,282.23	84.3561	8,282.23	84.2459	8,282.23	83.7525	8,282.23	83.8232	8,282.23	83.0345	8,282.23	83.5921	8,282.23	82.492	8,282.23	82.9285	8,282.23	80.8701	8,282.23	80.1215	8,282.23	77.4275	8,282.23	76.8512	8,282.23	74.282	8,282.23	72.3392	8,282.23	70.3236	8,282.23	75.34	8,282.23	67.0911	8,282.23	72.1989	8,282.23	63.6742	8,282.23	64.2799	8,282.23	62.9616	8,282.23	56.1286	8,282.23	62.1861	8,282.23	57.8307	8,282.23	60.7386	8,282.23	49.1601	8,282.23	62.9442	8,282.23	58.3195	8,282.23	58.885	8,282.23	56.4127	8,282.23	60.3746	8,282.23	54.679	8,282.23	61.9727	8,282.23	50.5696	8,282.23	58.7895
8,573.73	84.4883	8,573.73	84.3617	8,573.73	83.8328	8,573.73	83.7692	8,573.73	83.7795	8,573.73	82.9101	8,573.73	83.7866	8,573.73	82.5188	8,573.73	82.6676	8,573.73	80.2668	8,573.73	79.9001	8,573.73	77.5782	8,573.73	77.8981	8,573.73	73.6253	8,573.73	74.0554	8,573.73	71.8504	8,573.73	74.9583	8,573.73	67.9062	8,573.73	71.0523	8,573.73	65.6255	8,573.73	60.7894	8,573.73	64.0814	8,573.73	59.1518	8,573.73	62.6774	8,573.73	50.2653	8,573.73	60.2363	8,573.73	52.6767	8,573.73	62.8117	8,573.73	59.8213	8,573.73	60.5007	8,573.73	57.0861	8,573.73	60.7698	8,573.73	55.5908	8,573.73	61.6473	8,573.73	49.0196	8,573.73	58.8693
8,876.95	83.9093	8,876.95	84.6007	8,876.95	83.1768	8,876.95	83.8253	8,876.95	83.8755	8,876.95	83.8029	8,876.95	83.8869	8,876.95	82.0134	8,876.95	82.2298	8,876.95	80.9691	8,876.95	80.2074	8,876.95	77.1731	8,876.95	79.6086	8,876.95	74.6343	8,876.95	74.8174	8,876.95	71.1651	8,876.95	72.6376	8,876.95	67.1313	8,876.95	66.2945	8,876.95	63.938	8,876.95	64.1625	8,876.95	63.3605	8,876.95	52.1775	8,876.95	62.3211	8,876.95	39.925	8,876.95	60.7728	8,876.95	44.0448	8,876.95	62.9444	8,876.95	59.9907	8,876.95	60.6475	8,876.95	57.5474	8,876.95	59.2902	8,876.95	53.8813	8,876.95	60.9006	8,876.95	52.0479	8,876.95	53.3303
9,188.96	83.7126	9,188.96	84.1134	9,188.96	82.4995	9,188.96	83.9519	9,188.96	83.9384	9,188.96	83.4355	9,188.96	83.8789	9,188.96	82.3672	9,188.96	81.478	9,188.96	80.7486	9,188.96	81.1549	9,188.96	77.0674	9,188.96	80.6804	9,188.96	74.2374	9,188.96	72.1524	9,188.96	71.0176	9,188.96	67.0302	9,188.96	68.2246	9,188.96	67.0418	9,188.96	63.0474	9,188.96	65.7732	9,188.96	63.6369	9,188.96	51.0738	9,188.96	62.3205	9,188.96	54.4436	9,188.96	61.9075	9,188.96	54.8905	9,188.96	63.0201	9,188.96	53.0679	9,188.96	62.0643	9,188.96	59.5818	9,188.96	60.3669	9,188.96	54.868	9,188.96	60.7716	9,188.96	50.0802	9,188.96	54.4587
9,514.16	82.7868	9,514.16	83.7126	9,514.16	82.179	9,514.16	83.9434	9,514.16	83.9989	9,514.16	83.1244	9,514.16	83.3561	9,514.16	82.0191	9,514.16	81.1583	9,514.16	80.2255	9,514.16	80.9932	9,514.16	77.8854	9,514.16	80.3526	9,514.16	73.9711	9,514.16	69.7717	9,514.16	71.022	9,514.16	65.5863	9,514.16	66.7388	9,514.16	68.5984	9,514.16	62.6554	9,514.16	62.4331	9,514.16	62.189	9,514.16	55.3142	9,514.16	60.9215	9,514.16	55.3308	9,514.16	61.0972	9,514.16	53.976	9,514.16	61.9033	9,514.16	56.0531	9,514.16	61.5997	9,514.16	53.3895	9,514.16	60.1548	9,514.16	53.8708	9,514.16	60.1978	9,514.16	48.6143	9,514.16	55.4432
9,849.61	82.1354	9,849.61	83.5722	9,849.61	82.1572	9,849.61	83.6355	9,849.61	83.7068	9,849.61	83.1789	9,849.61	82.2834	9,849.61	81.6022	9,849.61	79.9197	9,849.61	80.7409	9,849.61	79.688	9,849.61	77.2532	9,849.61	79.5934	9,849.61	73.3432	9,849.61	70.9427	9,849.61	69.628	9,849.61	69.6004	9,849.61	66.3003	9,849.61	66.4065	9,849.61	61.9819	9,849.61	57.6282	9,849.61	61.4661	9,849.61	56.9336	9,849.61	59.2293	9,849.61	30.6277	9,849.61	60.3009	9,849.61	51.9185	9,849.61	61.0081	9,849.61	39.0799	9,849.61	61.2957	9,849.61	53.5739	9,849.61	59.0958	9,849.61	49.4556	9,849.61	57.7159	9,849.61	49.716	9,849.61	52.3838
10,196.8	81.9864	10,196.8	83.0967	10,196.8	82.2415	10,196.8	83.3809	10,196.8	83.7184	10,196.8	82.3525	10,196.8	81.716	10,196.8	81.3316	10,196.8	79.2712	10,196.8	80.334	10,196.8	80.4286	10,196.8	77.1549	10,196.8	78.8779	10,196.8	72.8569	10,196.8	70.5041	10,196.8	69.5132	10,196.8	66.1093	10,196.8	64.984	10,196.8	63.6978	10,196.8	62.2497	10,196.8	56.295	10,196.8	61.5838	10,196.8	48.4488	10,196.8	56.8385	10,196.8	47.6331	10,196.8	60.2826	10,196.8	52.9394	10,196.8	60.4124	10,196.8	48.3885	10,196.8	61.2194	10,196.8	49.569	10,196.8	59.8479	10,196.8	53.3977	10,196.8	57.8443	10,196.8	44.7448	10,196.8	52.2188
10,555.7	81.9401	10,555.7	82.8369	10,555.7	82.5723	10,555.7	83.0448	10,555.7	83.3519	10,555.7	81.8587	10,555.7	81.4901	10,555.7	80.8759	10,555.7	79.5354	10,555.7	80.5566	10,555.7	80.018	10,555.7	76.4921	10,555.7	78.0488	10,555.7	72.2609	10,555.7	67.8242	10,555.7	68.2758	10,555.7	66.2025	10,555.7	64.3979	10,555.7	60.2865	10,555.7	61.5108	10,555.7	52.9424	10,555.7	61.8277	10,555.7	44.9933	10,555.7	56.0237	10,555.7	42.1878	10,555.7	59.9744	10,555.7	50.782	10,555.7	59.5244	10,555.7	55.5883	10,555.7	61.175	10,555.7	51.8205	10,555.7	59.8226	10,555.7	48.6012	10,555.7	57.4392	10,555.7	31.5153	10,555.7	52.6861
10,927.7	82.0124	10,927.7	82.7938	10,927.7	83.0668	10,927.7	82.7599	10,927.7	82.8008	10,927.7	81.295	10,927.7	81.2182	10,927.7	80.8113	10,927.7	80.3295	10,927.7	80.2025	10,927.7	79.2024	10,927.7	75.827	10,927.7	76.6696	10,927.7	72.4397	10,927.7	67.9603	10,927.7	68.6686	10,927.7	67.6516	10,927.7	64.6955	10,927.7	63.5212	10,927.7	60.0994	10,927.7	55.7166	10,927.7	60.9802	10,927.7	54.7264	10,927.7	55.5378	10,927.7	47.8566	10,927.7	60.0453	10,927.7	46.4727	10,927.7	59.586	10,927.7	52.6913	10,927.7	61.6045	10,927.7	43.9451	10,927.7	60.3377	10,927.7	49.0193	10,927.7	58.265	10,927.7	49.1043	10,927.7	49.0194
11,313	82.5118	11,313	82.7239	11,313	83.2875	11,313	82.4401	11,313	81.9465	11,313	81.3652	11,313	80.5166	11,313	80.8188	11,313	81.1484	11,313	79.5832	11,313	79.5922	11,313	76.1574	11,313	74.7548	11,313	72.2922	11,313	69.977	11,313	68.3379	11,313	68.2833	11,313	63.107	11,313	62.103	11,313	59.794	11,313	50.3584	11,313	59.6486	11,313	55.3549	11,313	56.6171	11,313	48.9988	11,313	58.0349	11,313	49.6246	11,313	58.9421	11,313	47.0336	11,313	60.0215	11,313	48.5844	11,313	59.2189	11,313	49.4977	11,313	59.2233	11,313	47.7943	11,313	49.2746
11,712.9	83.1401	11,712.9	83.1777	11,712.9	83.7668	11,712.9	82.4331	11,712.9	81.5638	11,712.9	81.6145	11,712.9	80.5918	11,712.9	80.7456	11,712.9	80.8652	11,712.9	79.247	11,712.9	78.3631	11,712.9	75.6378	11,712.9	70.6012	11,712.9	71.9834	11,712.9	72.4711	11,712.9	67.3612	11,712.9	68.7055	11,712.9	62.744	11,712.9	60.4616	11,712.9	58.1301	11,712.9	56.1179	11,712.9	57.8263	11,712.9	55.0136	11,712.9	55.9759	11,712.9	51.4892	11,712.9	56.7495	11,712.9	46.5666	11,712.9	57.257	11,712.9	49.8298	11,712.9	58.9894	11,712.9	49.2223	11,712.9	59.3952	11,712.9	46.5814	11,712.9	59.9041	11,712.9	29.0291	11,712.9	51.2165
12,126	83.784	12,126	83.6501	12,126	84.1549	12,126	82.5387	12,126	81.5646	12,126	81.6951	12,126	81.2134	12,126	80.5369	12,126	80.1807	12,126	79.3083	12,126	75.2996	12,126	75.1878	12,126	71.8323	12,126	71.0139	12,126	72.7019	12,126	66.2237	12,126	67.3943	12,126	62.1263	12,126	60.6763	12,126	59.2622	12,126	57.4626	12,126	57.0541	12,126	45.3171	12,126	57.0423	12,126	50.0721	12,126	55.9023	12,126	43.4999	12,126	58.4515	12,126	46.6309	12,126	58.6878	12,126	43.318	12,126	58.7131	12,126	50.0854	12,126	60.4928	12,126	37.6327	12,126	52.3
12,553.7	84.1771	12,553.7	83.792	12,553.7	83.975	12,553.7	82.7416	12,553.7	81.1841	12,553.7	81.7408	12,553.7	81.6547	12,553.7	80.5729	12,553.7	79.1709	12,553.7	79.6382	12,553.7	74.5005	12,553.7	74.901	12,553.7	74.2356	12,553.7	70.8599	12,553.7	70.3369	12,553.7	66.5033	12,553.7	61.8829	12,553.7	62.3907	12,553.7	57.8358	12,553.7	60.5221	12,553.7	55.0046	12,553.7	56.8412	12,553.7	44.0349	12,553.7	57.2353	12,553.7	32.5383	12,553.7	54.819	12,553.7	47.3912	12,553.7	58.8006	12,553.7	45.2595	12,553.7	58.7869	12,553.7	42.6463	12,553.7	59.3046	12,553.7	43.4295	12,553.7	60.4113	12,553.7	37.0597	12,553.7	49.9878
12,996.1	84.5847	12,996.1	83.477	12,996.1	83.7273	12,996.1	82.7071	12,996.1	81.1681	12,996.1	81.5264	12,996.1	81.9901	12,996.1	80.5371	12,996.1	77.9349	12,996.1	79.3021	12,996.1	74.5451	12,996.1	75.4716	12,996.1	72.7954	12,996.1	71.1597	12,996.1	70.0297	12,996.1	68.4602	12,996.1	61.96	12,996.1	63.4565	12,996.1	50.6243	12,996.1	61.3017	12,996.1	51.5845	12,996.1	57.5751	12,996.1	48.4545	12,996.1	57.0638	12,996.1	45.6412	12,996.1	55.6222	12,996.1	48.791	12,996.1	58.5303	12,996.1	49.7959	12,996.1	59.2653	12,996.1	43.5458	12,996.1	59.6483	12,996.1	39.9884	12,996.1	60.1808	12,996.1	29.9975	12,996.1	51.1296
13,454.6	84.5085	13,454.6	83.1344	13,454.6	83.4041	13,454.6	82.4319	13,454.6	81.8346	13,454.6	81.1665	13,454.6	81.8209	13,454.6	80.0948	13,454.6	77.1206	13,454.6	79.0064	13,454.6	76.7729	13,454.6	75.6873	13,454.6	71.8419	13,454.6	71.6087	13,454.6	67.1358	13,454.6	68.167	13,454.6	62.2707	13,454.6	62.7733	13,454.6	54.1857	13,454.6	60.3861	13,454.6	47.6241	13,454.6	57.2254	13,454.6	48.5863	13,454.6	55.8181	13,454.6	48.9611	13,454.6	55.4535	13,454.6	50.8527	13,454.6	57.4792	13,454.6	52.145	13,454.6	59.6121	13,454.6	43.4296	13,454.6	59.4698	13,454.6	36.0726	13,454.6	59.4808	13,454.6	37.9416	13,454.6	52.9373
13,929.2	84.1339	13,929.2	82.8611	13,929.2	82.6795	13,929.2	82.4032	13,929.2	82.4381	13,929.2	80.8792	13,929.2	81.2483	13,929.2	79.8559	13,929.2	76.8808	13,929.2	78.5117	13,929.2	77.4915	13,929.2	75.9427	13,929.2	71.0315	13,929.2	70.9824	13,929.2	70.4253	13,929.2	67.0602	13,929.2	64.2617	13,929.2	60.6237	13,929.2	56.8416	13,929.2	59.7888	13,929.2	55.1778	13,929.2	56.884	13,929.2	47.0379	13,929.2	54.4273	13,929.2	52.0338	13,929.2	55.5001	13,929.2	46.9082	13,929.2	56.3955	13,929.2	45.2635	13,929.2	59.6747	13,929.2	43.4091	13,929.2	58.6809	13,929.2	21.0989	13,929.2	58.8092	13,929.2	43.2713	13,929.2	53.0907
14,419.9	83.6416	14,419.9	82.5823	14,419.9	81.5354	14,419.9	82.5047	14,419.9	82.2366	14,419.9	80.8407	14,419.9	80.6312	14,419.9	79.5002	14,419.9	79.1097	14,419.9	78.5425	14,419.9	77.3556	14,419.9	75.9221	14,419.9	71.7103	14,419.9	70.5218	14,419.9	72.4596	14,419.9	66.0679	14,419.9	65.9398	14,419.9	59.5965	14,419.9	54.7869	14,419.9	58.5411	14,419.9	58.1122	14,419.9	55.2597	14,419.9	51.2992	14,419.9	52.9906	14,419.9	52.2354	14,419.9	57.3599	14,419.9	49.3691	14,419.9	56.4564	14,419.9	49.4791	14,419.9	59.7417	14,419.9	37.8196	14,419.9	57.3981	14,419.9	24.1446	14,419.9	56.4936	14,419.9	44.9051	14,419.9	53.5806
14,928.2	83.27	14,928.2	82.7219	14,928.2	81.5716	14,928.2	82.4179	14,928.2	82.1423	14,928.2	81.0475	14,928.2	79.1805	14,928.2	79.3592	14,928.2	79.7889	14,928.2	78.8404	14,928.2	77.2713	14,928.2	75.3529	14,928.2	75.5318	14,928.2	70.5377	14,928.2	70.3873	14,928.2	64.9953	14,928.2	64.215	14,928.2	61.221	14,928.2	57.0607	14,928.2	58.5653	14,928.2	57.9692	14,928.2	54.9205	14,928.2	55.4992	14,928.2	53.2629	14,928.2	56.2192	14,928.2	58.2702	14,928.2	46.5777	14,928.2	56.2162	14,928.2	53.0468	14,928.2	59.1335	14,928.2	45.0123	14,928.2	56.3113	14,928.2	43.3868	14,928.2	54.0522	14,928.2	47.7142	14,928.2	54.6463
15,455.6	82.6874	15,455.6	83.0304	15,455.6	81.8796	15,455.6	82.1305	15,455.6	82.0023	15,455.6	80.8167	15,455.6	78.049	15,455.6	79.2678	15,455.6	78.9116	15,455.6	78.8716	15,455.6	74.2379	15,455.6	74.7726	15,455.6	74.2894	15,455.6	70.5063	15,455.6	71.1368	15,455.6	65.1934	15,455.6	64.4357	15,455.6	62.0796	15,455.6	52.9662	15,455.6	58.1464	15,455.6	55.4897	15,455.6	53.6133	15,455.6	54.1265	15,455.6	53.7793	15,455.6	56.2001	15,455.6	58.8931	15,455.6	36.5816	15,455.6	56.3705	15,455.6	48.9361	15,455.6	58.9381	15,455.6	46.308	15,455.6	55.5297	15,455.6	45.2261	15,455.6	52.5246	15,455.6	50.8445	15,455.6	55.194
16,000.5	82.0522	16,000.5	83.0594	16,000.5	82.2904	16,000.5	81.7291	16,000.5	81.4662	16,000.5	80.4463	16,000.5	77.7874	16,000.5	79.076	16,000.5	78.1906	16,000.5	78.6419	16,000.5	73.5156	16,000.5	73.9553	16,000.5	73.0279	16,000.5	70.5312	16,000.5	68.7197	16,000.5	64.949	16,000.5	58.1658	16,000.5	62.3296	16,000.5	50.6508	16,000.5	57.3184	16,000.5	52.8078	16,000.5	51.1228	16,000.5	53.6201	16,000.5	54.673	16,000.5	55.7684	16,000.5	57.8476	16,000.5	49.9088	16,000.5	55.5783	16,000.5	51.9872	16,000.5	56.9072	16,000.5	37.0667	16,000.5	53.5365	16,000.5	47.3227	16,000.5	50.5653	16,000.5	51.5725	16,000.5	54.6551
16,564.5	81.8192	16,564.5	82.7783	16,564.5	82.5737	16,564.5	81.3799	16,564.5	80.8657	16,564.5	80.1809	16,564.5	78.2233	16,564.5	79.1476	16,564.5	76.445	16,564.5	77.9937	16,564.5	74.7047	16,564.5	73.3724	16,564.5	73.3476	16,564.5	70.2009	16,564.5	66.2631	16,564.5	64.8957	16,564.5	58.9226	16,564.5	61.6433	16,564.5	56.5826	16,564.5	55.4642	16,564.5	46.6627	16,564.5	50.5456	16,564.5	48.3419	16,564.5	53.3268	16,564.5	54.7556	16,564.5	56.6016	16,564.5	51.0872	16,564.5	54.2605	16,564.5	51.1186	16,564.5	54.1555	16,564.5	45.0657	16,564.5	49.5463	16,564.5	50.7107	16,564.5	47.8951	16,564.5	52.6795	16,564.5	54.2822
17,148.9	81.9419	17,148.9	82.5525	17,148.9	82.2196	17,148.9	81.4553	17,148.9	80.4111	17,148.9	79.9822	17,148.9	78.7979	17,148.9	79.1445	17,148.9	75.6261	17,148.9	77.0253	17,148.9	75.4606	17,148.9	73.3541	17,148.9	69.6289	17,148.9	69.1106	17,148.9	69.0432	17,148.9	62.9829	17,148.9	64.5292	17,148.9	60.0306	17,148.9	58.1718	17,148.9	54.7181	17,148.9	56.7874	17,148.9	48.0685	17,148.9	50.3668	17,148.9	51.4336	17,148.9	53.451	17,148.9	55.1543	17,148.9	50.5415	17,148.9	52.6006	17,148.9	52.3817	17,148.9	49.6393	17,148.9	49.6169	17,148.9	44.1623	17,148.9	52.9499	17,148.9	46.0059	17,148.9	52.6565	17,148.9	53.9148
17,752.4	82.3541	17,752.4	82.9047	17,752.4	81.7198	17,752.4	81.9211	17,752.4	80.1178	17,752.4	80.4473	17,752.4	78.9419	17,752.4	78.8305	17,752.4	76.3913	17,752.4	76.6342	17,752.4	75.1884	17,752.4	72.3304	17,752.4	71.3566	17,752.4	67.4786	17,752.4	71.2225	17,752.4	60.9136	17,752.4	63.2724	17,752.4	58.0509	17,752.4	56.6885	17,752.4	52.6194	17,752.4	54.8485	17,752.4	46.5959	17,752.4	28.3011	17,752.4	51.6362	17,752.4	52.5025	17,752.4	52.2486	17,752.4	53.6183	17,752.4	50.3856	17,752.4	48.7896	17,752.4	47.6938	17,752.4	51.8633	17,752.4	35.1924	17,752.4	53.7252	17,752.4	45.378	17,752.4	53.1698	17,752.4	53.4541
18,379.4	82.7545	18,379.4	83.0876	18,379.4	81.6497	18,379.4	82.3232	18,379.4	79.5345	18,379.4	80.7833	18,379.4	78.3404	18,379.4	78.8056	18,379.4	77.1006	18,379.4	76.7224	18,379.4	73.6233	18,379.4	71.1868	18,379.4	70.9203	18,379.4	66.838	18,379.4	68.9116	18,379.4	58.9958	18,379.4	60.3887	18,379.4	54.9193	18,379.4	52.0745	18,379.4	50.1438	18,379.4	50.6768	18,379.4	48.2162	18,379.4	46.4712	18,379.4	49.5097	18,379.4	45.5414	18,379.4	46.008	18,379.4	53.4407	18,379.4	47.7283	18,379.4	51.7019	18,379.4	45.9645	18,379.4	49.6897	18,379.4	37.2747	18,379.4	52.7611	18,379.4	47.2174	18,379.4	52.8352	18,379.4	52.5056
19,026.9	82.5049	19,026.9	82.8914	19,026.9	81.1574	19,026.9	82.3666	19,026.9	79.6052	19,026.9	80.7171	19,026.9	77.9969	19,026.9	78.9432	19,026.9	76.9208	19,026.9	76.4699	19,026.9	71.5211	19,026.9	70.8054	19,026.9	70.6153	19,026.9	64.5803	19,026.9	63.1755	19,026.9	58.3679	19,026.9	48.6253	19,026.9	51.3011	19,026.9	47.3072	19,026.9	50.4729	19,026.9	47.6328	19,026.9	50.6194	19,026.9	38.1747	19,026.9	43.8904	19,026.9	15.6106	19,026.9	44.2481	19,026.9	50.3146	19,026.9	43.403	19,026.9	52.8775	19,026.9	45.4682	19,026.9	42.1586	19,026.9	40.744	19,026.9	50.9656	19,026.9	47.7073	19,026.9	50.495	19,026.9	52.4173
19,697.8	82.1179	19,697.8	82.762	19,697.8	80.5192	19,697.8	82.3117	19,697.8	79.4324	19,697.8	80.4572	19,697.8	77.3135	19,697.8	78.8242	19,697.8	76.4986	19,697.8	75.6648	19,697.8	72.9679	19,697.8	70.1105	19,697.8	72.2077	19,697.8	62.8084	19,697.8	56.3468	19,697.8	58.4804	19,697.8	59.6044	19,697.8	51.6438	19,697.8	52.0049	19,697.8	51.2155	19,697.8	48.4542	19,697.8	49.8806	19,697.8	48.4276	19,697.8	38.9924	19,697.8	38.3368	19,697.8	47.7275	19,697.8	47.9023	19,697.8	38.8345	19,697.8	51.7843	19,697.8	45.005	19,697.8	45.1433	19,697.8	37.5574	19,697.8	49.2284	19,697.8	47.7955	19,697.8	49.809	19,697.8	52.8585
19,999.5	81.8579	19,999.5	82.5234	19,999.5	80.5667	19,999.5	82.2353	19,999.5	79.482	19,999.5	80.4306	19,999.5	77.3743	19,999.5	78.6617	19,999.5	75.857	19,999.5	75.3299	19,999.5	74.1112	19,999.5	70.0434	19,999.5	71.1139	19,999.5	62.8054	19,999.5	63.8644	19,999.5	57.5562	19,999.5	61.3029	19,999.5	52.4946	19,999.5	50.1446	19,999.5	52.5302	19,999.5	46.6274	19,999.5	49.7502	19,999.5	43.4154	19,999.5	41.6743	19,999.5	42.5847	19,999.5	43.3135	19,999.5	40.9949	19,999.5	47.2732	19,999.5	55.9009	19,999.5	45.0014	19,999.5	47.9971	19,999.5	43.7161	19,999.5	44.5137	19,999.5	49.3852	19,999.5	51.2056	19,999.5	52.9808
