"SPL Horizontal"																																																																							
"On-Axis"		"10°"		"-10°"		"20°"		"-20°"		"30°"		"-30°"		"40°"		"-40°"		"50°"		"-50°"		"60°"		"-60°"		"70°"		"-70°"		"80°"		"-80°"		"90°"		"-90°"		"100°"		"-100°"		"110°"		"-110°"		"120°"		"-120°"		"130°"		"-130°"		"140°"		"-140°"		"150°"		"-150°"		"160°"		"-160°"		"170°"		"-170°"		"180°"	
"Frequency [Hz]"	"Sound Pessure Level [dB]  / [2.83V 1m] "	"Frequency [Hz]"	"Sound Pessure Level [dB]  / [2.83V 1m] "	"Frequency [Hz]"	"Sound Pessure Level [dB]  / [2.83V 1m] "	"Frequency [Hz]"	"Sound Pessure Level [dB]  / [2.83V 1m] "	"Frequency [Hz]"	"Sound Pessure Level [dB]  / [2.83V 1m] "	"Frequency [Hz]"	"Sound Pessure Level [dB]  / [2.83V 1m] "	"Frequency [Hz]"	"Sound Pessure Level [dB]  / [2.83V 1m] "	"Frequency [Hz]"	"Sound Pessure Level [dB]  / [2.83V 1m] "	"Frequency [Hz]"	"Sound Pessure Level [dB]  / [2.83V 1m] "	"Frequency [Hz]"	"Sound Pessure Level [dB]  / [2.83V 1m] "	"Frequency [Hz]"	"Sound Pessure Level [dB]  / [2.83V 1m] "	"Frequency [Hz]"	"Sound Pessure Level [dB]  / [2.83V 1m] "	"Frequency [Hz]"	"Sound Pessure Level [dB]  / [2.83V 1m] "	"Frequency [Hz]"	"Sound Pessure Level [dB]  / [2.83V 1m] "	"Frequency [Hz]"	"Sound Pessure Level [dB]  / [2.83V 1m] "	"Frequency [Hz]"	"Sound Pessure Level [dB]  / [2.83V 1m] "	"Frequency [Hz]"	"Sound Pessure Level [dB]  / [2.83V 1m] "	"Frequency [Hz]"	"Sound Pessure Level [dB]  / [2.83V 1m] "	"Frequency [Hz]"	"Sound Pessure Level [dB]  / [2.83V 1m] "	"Frequency [Hz]"	"Sound Pessure Level [dB]  / [2.83V 1m] "	"Frequency [Hz]"	"Sound Pessure Level [dB]  / [2.83V 1m] "	"Frequency [Hz]"	"Sound Pessure Level [dB]  / [2.83V 1m] "	"Frequency [Hz]"	"Sound Pessure Level [dB]  / [2.83V 1m] "	"Frequency [Hz]"	"Sound Pessure Level [dB]  / [2.83V 1m] "	"Frequency [Hz]"	"Sound Pessure Level [dB]  / [2.83V 1m] "	"Frequency [Hz]"	"Sound Pessure Level [dB]  / [2.83V 1m] "	"Frequency [Hz]"	"Sound Pessure Level [dB]  / [2.83V 1m] "	"Frequency [Hz]"	"Sound Pessure Level [dB]  / [2.83V 1m] "	"Frequency [Hz]"	"Sound Pessure Level [dB]  / [2.83V 1m] "	"Frequency [Hz]"	"Sound Pessure Level [dB]  / [2.83V 1m] "	"Frequency [Hz]"	"Sound Pessure Level [dB]  / [2.83V 1m] "	"Frequency [Hz]"	"Sound Pessure Level [dB]  / [2.83V 1m] "	"Frequency [Hz]"	"Sound Pessure Level [dB]  / [2.83V 1m] "	"Frequency [Hz]"	"Sound Pessure Level [dB]  / [2.83V 1m] "	"Frequency [Hz]"	"Sound Pessure Level [dB]  / [2.83V 1m] "	"Frequency [Hz]"	"Sound Pessure Level [dB]  / [2.83V 1m] "
20.5078	52.4943	20.5078	52.4423	20.5078	52.5552	20.5078	52.3998	20.5078	52.6242	20.5078	52.3671	20.5078	52.6999	20.5078	52.3444	20.5078	52.7805	20.5078	52.3318	20.5078	52.864	20.5078	52.3294	20.5078	52.9477	20.5078	52.3376	20.5078	53.0291	20.5078	52.3568	20.5078	53.1051	20.5078	52.3879	20.5078	53.173	20.5078	52.4316	20.5078	53.2299	20.5078	52.4883	20.5078	53.2736	20.5078	52.5579	20.5078	53.3021	20.5078	52.6394	20.5078	53.3138	20.5078	52.7304	20.5078	53.3077	20.5078	52.8274	20.5078	53.2835	20.5078	52.9258	20.5078	53.2412	20.5078	53.0207	20.5078	53.1819	20.5078	53.1074
21.9727	54.8956	21.9727	54.8679	21.9727	54.9243	21.9727	54.8414	21.9727	54.9532	21.9727	54.8164	21.9727	54.9814	21.9727	54.7926	21.9727	55.0076	21.9727	54.7697	21.9727	55.0305	21.9727	54.7474	21.9727	55.0488	21.9727	54.7256	21.9727	55.0609	21.9727	54.7046	21.9727	55.0659	21.9727	54.6849	21.9727	55.0628	21.9727	54.6676	21.9727	55.0511	21.9727	54.6539	21.9727	55.031	21.9727	54.6454	21.9727	55.0029	21.9727	54.6436	21.9727	54.968	21.9727	54.6495	21.9727	54.9278	21.9727	54.6638	21.9727	54.8842	21.9727	54.6865	21.9727	54.8392	21.9727	54.7168	21.9727	54.795	21.9727	54.7535
23.4375	56.9151	23.4375	56.9085	23.4375	56.921	23.4375	56.9012	23.4375	56.9263	23.4375	56.8926	23.4375	56.9305	23.4375	56.882	23.4375	56.9331	23.4375	56.8688	23.4375	56.9331	23.4375	56.8523	23.4375	56.9298	23.4375	56.8323	23.4375	56.9224	23.4375	56.8088	23.4375	56.9103	23.4375	56.7825	23.4375	56.8932	23.4375	56.7545	23.4375	56.8713	23.4375	56.7262	23.4375	56.8451	23.4375	56.6995	23.4375	56.8156	23.4375	56.6761	23.4375	56.7842	23.4375	56.6578	23.4375	56.7524	23.4375	56.6459	23.4375	56.722	23.4375	56.6412	23.4375	56.6945	23.4375	56.6441	23.4375	56.6716	23.4375	56.6544
24.9023	59.1607	24.9023	59.1459	24.9023	59.1725	24.9023	59.1282	24.9023	59.1813	24.9023	59.1077	24.9023	59.1865	24.9023	59.0842	24.9023	59.1876	24.9023	59.0576	24.9023	59.184	24.9023	59.028	24.9023	59.1751	24.9023	58.9957	24.9023	59.1604	24.9023	58.9613	24.9023	59.1396	24.9023	58.9258	24.9023	59.1127	24.9023	58.8906	24.9023	59.0803	24.9023	58.8572	24.9023	59.0432	24.9023	58.8273	24.9023	59.0028	24.9023	58.8025	24.9023	58.9609	24.9023	58.7843	24.9023	58.9192	24.9023	58.7737	24.9023	58.8798	24.9023	58.7714	24.9023	58.8445	24.9023	58.7777	24.9023	58.815	24.9023	58.7924
26.3672	61.1647	26.3672	61.1545	26.3672	61.1694	26.3672	61.1392	26.3672	61.1684	26.3672	61.1187	26.3672	61.1614	26.3672	61.0932	26.3672	61.148	26.3672	61.0628	26.3672	61.1279	26.3672	61.0278	26.3672	61.101	26.3672	60.9884	26.3672	61.0673	26.3672	60.9453	26.3672	61.0273	26.3672	60.8994	26.3672	60.9817	26.3672	60.8518	26.3672	60.9318	26.3672	60.804	26.3672	60.8791	26.3672	60.7579	26.3672	60.8259	26.3672	60.7152	26.3672	60.7742	26.3672	60.678	26.3672	60.7266	26.3672	60.6481	26.3672	60.6853	26.3672	60.6273	26.3672	60.6524	26.3672	60.6168	26.3672	60.6294	26.3672	60.6174
27.832	63.4503	27.832	63.4496	27.832	63.4458	27.832	63.4437	27.832	63.4361	27.832	63.4324	27.832	63.4214	27.832	63.4156	27.832	63.4015	27.832	63.3933	27.832	63.3768	27.832	63.3655	27.832	63.3473	27.832	63.3326	27.832	63.3138	27.832	63.2952	27.832	63.2768	27.832	63.2542	27.832	63.2375	27.832	63.2112	27.832	63.1972	27.832	63.1679	27.832	63.1572	27.832	63.126	27.832	63.119	27.832	63.0876	27.832	63.0841	27.832	63.0544	27.832	63.0537	27.832	63.0278	27.832	63.0288	27.832	63.0086	27.832	63.0101	27.832	62.9973	27.832	62.9984	27.832	62.994
29.2969	65.3804	29.2969	65.3761	29.2969	65.3778	29.2969	65.3651	29.2969	65.3682	29.2969	65.3475	29.2969	65.3515	29.2969	65.3232	29.2969	65.3278	29.2969	65.2924	29.2969	65.297	29.2969	65.2555	29.2969	65.2594	29.2969	65.2128	29.2969	65.2156	29.2969	65.1651	29.2969	65.1663	29.2969	65.1133	29.2969	65.1128	29.2969	65.0588	29.2969	65.0565	29.2969	65.0033	29.2969	64.9992	29.2969	64.9486	29.2969	64.9431	29.2969	64.8968	29.2969	64.8904	29.2969	64.8501	29.2969	64.8435	29.2969	64.8107	29.2969	64.8047	29.2969	64.7804	29.2969	64.7758	29.2969	64.7609	29.2969	64.7584	29.2969	64.7534
30.7617	67.3265	30.7617	67.3222	30.7617	67.3235	30.7617	67.3106	30.7617	67.3132	30.7617	67.292	30.7617	67.2957	30.7617	67.2664	30.7617	67.2713	30.7617	67.2344	30.7617	67.2404	30.7617	67.1964	30.7617	67.2034	30.7617	67.1532	30.7617	67.1612	30.7617	67.106	30.7617	67.1149	30.7617	67.0559	30.7617	67.0657	30.7617	67.0046	30.7617	67.0151	30.7617	66.9537	30.7617	66.9647	30.7617	66.905	30.7617	66.9162	30.7617	66.8605	30.7617	66.8712	30.7617	66.8218	30.7617	66.8315	30.7617	66.7904	30.7617	66.7984	30.7617	66.7675	30.7617	66.7733	30.7617	66.7541	30.7617	66.7571	30.7617	66.7507
32.2266	68.8786	32.2266	68.8761	32.2266	68.8721	32.2266	68.8647	32.2266	68.8567	32.2266	68.8446	32.2266	68.8326	32.2266	68.816	32.2266	68.8003	32.2266	68.7795	32.2266	68.7602	32.2266	68.7358	32.2266	68.7133	32.2266	68.6859	32.2266	68.6605	32.2266	68.631	32.2266	68.6033	32.2266	68.5726	32.2266	68.5434	32.2266	68.5125	32.2266	68.4824	32.2266	68.4526	32.2266	68.4226	32.2266	68.3948	32.2266	68.3658	32.2266	68.3411	32.2266	68.3143	32.2266	68.2933	32.2266	68.2699	32.2266	68.2532	32.2266	68.2343	32.2266	68.2223	32.2266	68.209	32.2266	68.2017	32.2266	68.1948	32.2266	68.1924
33.6914	70.2391	33.6914	70.2349	33.6914	70.2337	33.6914	70.2212	33.6914	70.2188	33.6914	70.1984	33.6914	70.1945	33.6914	70.1666	33.6914	70.1614	33.6914	70.1267	33.6914	70.1199	33.6914	70.0794	33.6914	70.0711	33.6914	70.0257	33.6914	70.016	33.6914	69.9672	33.6914	69.956	33.6914	69.9053	33.6914	69.893	33.6914	69.8419	33.6914	69.8288	33.6914	69.7791	33.6914	69.7657	33.6914	69.7188	33.6914	69.7057	33.6914	69.6632	33.6914	69.6509	33.6914	69.6142	33.6914	69.6034	33.6914	69.5736	33.6914	69.5649	33.6914	69.5429	33.6914	69.5368	33.6914	69.5234	33.6914	69.5202	33.6914	69.5157
35.1563	71.278	35.1563	71.275	35.1563	71.2715	35.1563	71.2624	35.1563	71.2555	35.1563	71.2405	35.1563	71.2301	35.1563	71.2098	35.1563	71.196	35.1563	71.1709	35.1563	71.1538	35.1563	71.1246	35.1563	71.1044	35.1563	71.0722	35.1563	71.0491	35.1563	71.0149	35.1563	70.9894	35.1563	70.9543	35.1563	70.9271	35.1563	70.8922	35.1563	70.8641	35.1563	70.8306	35.1563	70.8025	35.1563	70.7713	35.1563	70.7444	35.1563	70.7165	35.1563	70.6919	35.1563	70.6681	35.1563	70.6468	35.1563	70.6276	35.1563	70.6107	35.1563	70.5966	35.1563	70.5849	35.1563	70.5763	35.1563	70.5703	35.1563	70.5674
36.6211	71.9036	36.6211	71.8988	36.6211	71.8979	36.6211	71.8838	36.6211	71.8819	36.6211	71.8588	36.6211	71.856	36.6211	71.8244	36.6211	71.8206	36.6211	71.7813	36.6211	71.7766	36.6211	71.7306	36.6211	71.7251	36.6211	71.6737	36.6211	71.6674	36.6211	71.612	36.6211	71.6051	36.6211	71.5475	36.6211	71.5401	36.6211	71.4821	36.6211	71.4745	36.6211	71.418	36.6211	71.4104	36.6211	71.3572	36.6211	71.3499	36.6211	71.3017	36.6211	71.295	36.6211	71.2535	36.6211	71.2477	36.6211	71.214	36.6211	71.2094	36.6211	71.1846	36.6211	71.1814	36.6211	71.1662	36.6211	71.1645	36.6211	71.1594
38.0859	72.43	38.0859	72.4249	38.0859	72.4242	38.0859	72.4092	38.0859	72.4079	38.0859	72.3832	38.0859	72.3812	38.0859	72.3475	38.0859	72.3447	38.0859	72.3029	38.0859	72.2995	38.0859	72.2506	38.0859	72.2466	38.0859	72.1919	38.0859	72.1873	38.0859	72.1285	38.0859	72.1235	38.0859	72.0622	38.0859	72.057	38.0859	71.9952	38.0859	71.9898	38.0859	71.9294	38.0859	71.9242	38.0859	71.8671	38.0859	71.8623	38.0859	71.8103	38.0859	71.8061	38.0859	71.761	38.0859	71.7575	38.0859	71.7207	38.0859	71.7181	38.0859	71.6909	38.0859	71.6891	38.0859	71.6724	38.0859	71.6715	38.0859	71.6659
39.5508	72.7594	39.5508	72.7546	39.5508	72.7533	39.5508	72.7389	39.5508	72.7364	39.5508	72.7128	39.5508	72.709	39.5508	72.6769	39.5508	72.6719	39.5508	72.6321	39.5508	72.6261	39.5508	72.5796	39.5508	72.5727	39.5508	72.5209	39.5508	72.5133	39.5508	72.4578	39.5508	72.4497	39.5508	72.3922	39.5508	72.3838	39.5508	72.3261	39.5508	72.3177	39.5508	72.2617	39.5508	72.2536	39.5508	72.2011	39.5508	72.1934	39.5508	72.1461	39.5508	72.1393	39.5508	72.0986	39.5508	72.0927	39.5508	72.0599	39.5508	72.0552	39.5508	72.0312	39.5508	72.0279	39.5508	72.0133	39.5508	72.0116	39.5508	72.0067
41.0156	72.9782	41.0156	72.9728	41.0156	72.9719	41.0156	72.9559	41.0156	72.954	41.0156	72.9278	41.0156	72.9251	41.0156	72.8893	41.0156	72.8859	41.0156	72.8414	41.0156	72.8376	41.0156	72.7855	41.0156	72.7814	41.0156	72.7232	41.0156	72.7192	41.0156	72.6565	41.0156	72.6528	41.0156	72.5874	41.0156	72.5843	41.0156	72.5184	41.0156	72.516	41.0156	72.4516	41.0156	72.4501	41.0156	72.3893	41.0156	72.3887	41.0156	72.3336	41.0156	72.3337	41.0156	72.2859	41.0156	72.2866	41.0156	72.2478	41.0156	72.2487	41.0156	72.2201	41.0156	72.221	41.0156	72.2034	41.0156	72.2039	41.0156	72.198
42.4805	73.2824	42.4805	73.2783	42.4805	73.2746	42.4805	73.2624	42.4805	73.2551	42.4805	73.2351	42.4805	73.2245	42.4805	73.1971	42.4805	73.1836	42.4805	73.1495	42.4805	73.1336	42.4805	73.0936	42.4805	73.0759	42.4805	73.031	42.4805	73.0122	42.4805	72.9638	42.4805	72.9444	42.4805	72.8939	42.4805	72.8747	42.4805	72.8238	42.4805	72.8053	42.4805	72.7557	42.4805	72.7385	42.4805	72.6918	42.4805	72.6762	42.4805	72.634	42.4805	72.6205	42.4805	72.5842	42.4805	72.573	42.4805	72.5437	42.4805	72.5351	42.4805	72.5135	42.4805	72.5077	42.4805	72.4946	42.4805	72.4916	42.4805	72.4872
43.9453	73.423	43.9453	73.4184	43.9453	73.4154	43.9453	73.4016	43.9453	73.3956	43.9453	73.373	43.9453	73.3644	43.9453	73.3336	43.9453	73.3226	43.9453	73.2844	43.9453	73.2716	43.9453	73.227	43.9453	73.2127	43.9453	73.1632	43.9453	73.148	43.9453	73.095	43.9453	73.0794	43.9453	73.0247	43.9453	73.0092	43.9453	72.9546	43.9453	72.9397	43.9453	72.887	43.9453	72.8731	43.9453	72.824	43.9453	72.8115	43.9453	72.7676	43.9453	72.7568	43.9453	72.7193	43.9453	72.7104	43.9453	72.6803	43.9453	72.6736	43.9453	72.6516	43.9453	72.6471	43.9453	72.6337	43.9453	72.6314	43.9453	72.6269
45.4102	73.5766	45.4102	73.5745	45.4102	73.5658	45.4102	73.5595	45.4102	73.5423	45.4102	73.532	45.4102	73.5068	45.4102	73.4929	45.4102	73.4604	45.4102	73.4434	45.4102	73.4046	45.4102	73.3849	45.4102	73.341	45.4102	73.3194	45.4102	73.2716	45.4102	73.249	45.4102	73.1989	45.4102	73.1761	45.4102	73.1251	45.4102	73.1031	45.4102	73.0527	45.4102	73.0323	45.4102	72.9841	45.4102	72.966	45.4102	72.9214	45.4102	72.9061	45.4102	72.8665	45.4102	72.8542	45.4102	72.8209	45.4102	72.8117	45.4102	72.7856	45.4102	72.7793	45.4102	72.7614	45.4102	72.7577	45.4102	72.7486	45.4102	72.7474
46.875	73.8099	46.875	73.8084	46.875	73.7978	46.875	73.7936	46.875	73.7727	46.875	73.7658	46.875	73.7351	46.875	73.7259	46.875	73.6862	46.875	73.675	46.875	73.6274	46.875	73.6148	46.875	73.5604	46.875	73.5471	46.875	73.4874	46.875	73.474	46.875	73.4108	46.875	73.398	46.875	73.333	46.875	73.3215	46.875	73.2567	46.875	73.247	46.875	73.1843	46.875	73.1768	46.875	73.1183	46.875	73.1129	46.875	73.0606	46.875	73.0572	46.875	73.0128	46.875	73.011	46.875	72.9761	46.875	72.9754	46.875	72.9514	46.875	72.9512	46.875	72.9389	46.875	72.9389
48.3398	73.9837	48.3398	73.9799	48.3398	73.9743	48.3398	73.9629	48.3398	73.952	48.3398	73.9333	48.3398	73.9173	48.3398	73.8921	48.3398	73.8712	48.3398	73.8404	48.3398	73.8151	48.3398	73.7798	48.3398	73.7508	48.3398	73.7123	48.3398	73.6803	48.3398	73.6401	48.3398	73.6057	48.3398	73.5654	48.3398	73.5296	48.3398	73.4906	48.3398	73.4544	48.3398	73.4182	48.3398	73.3826	48.3398	73.3502	48.3398	73.3165	48.3398	73.2887	48.3398	73.2581	48.3398	73.2354	48.3398	73.2091	48.3398	73.1916	48.3398	73.1708	48.3398	73.1585	48.3398	73.144	48.3398	73.1367	48.3398	73.1293	48.3398	73.1269
51.2695	74.3663	51.2695	74.3614	51.2695	74.3582	51.2695	74.3439	51.2695	74.3374	51.2695	74.3141	51.2695	74.3047	51.2695	74.2733	51.2695	74.2611	51.2695	74.2228	51.2695	74.2081	51.2695	74.1645	51.2695	74.1476	51.2695	74.1003	51.2695	74.0817	51.2695	74.0325	51.2695	74.0128	51.2695	73.9636	51.2695	73.9432	51.2695	73.8959	51.2695	73.8753	51.2695	73.8316	51.2695	73.8115	51.2695	73.7725	51.2695	73.7536	51.2695	73.7203	51.2695	73.7033	51.2695	73.6761	51.2695	73.6616	51.2695	73.6407	51.2695	73.6293	51.2695	73.6146	51.2695	73.6067	51.2695	73.5981	51.2695	73.594	51.2695	73.5912
52.7344	74.5573	52.7344	74.554	52.7344	74.5477	52.7344	74.5377	52.7344	74.5254	52.7344	74.5093	52.7344	74.4911	52.7344	74.4695	52.7344	74.4462	52.7344	74.42	52.7344	74.3921	52.7344	74.3626	52.7344	74.3308	52.7344	74.2992	52.7344	74.2645	52.7344	74.2323	52.7344	74.1957	52.7344	74.1642	52.7344	74.1267	52.7344	74.0973	52.7344	74.06	52.7344	74.0337	52.7344	73.9977	52.7344	73.9754	52.7344	73.9418	52.7344	73.9237	52.7344	73.8937	52.7344	73.8799	52.7344	73.8543	52.7344	73.8445	52.7344	73.8244	52.7344	73.8179	52.7344	73.8041	52.7344	73.8005	52.7344	73.7934	52.7344	73.7923
54.1992	74.6894	54.1992	74.6842	54.1992	74.6819	54.1992	74.6663	54.1992	74.6618	54.1992	74.6364	54.1992	74.6301	54.1992	74.5957	54.1992	74.5879	54.1992	74.5457	54.1992	74.5367	54.1992	74.4883	54.1992	74.4787	54.1992	74.4258	54.1992	74.416	54.1992	74.3605	54.1992	74.3509	54.1992	74.2948	54.1992	74.2858	54.1992	74.2312	54.1992	74.223	54.1992	74.1715	54.1992	74.1644	54.1992	74.1176	54.1992	74.1116	54.1992	74.0707	54.1992	74.0659	54.1992	74.0318	54.1992	74.0282	54.1992	74.0014	54.1992	73.9988	54.1992	73.9796	54.1992	73.978	54.1992	73.9664	54.1992	73.9656	54.1992	73.9618
55.6641	74.8917	55.6641	74.891	55.6641	74.8786	55.6641	74.8764	55.6641	74.852	55.6641	74.8488	55.6641	74.813	55.6641	74.8091	55.6641	74.7631	55.6641	74.7592	55.6641	74.7044	55.6641	74.701	55.6641	74.6392	55.6641	74.6371	55.6641	74.5703	55.6641	74.57	55.6641	74.5004	55.6641	74.5024	55.6641	74.4324	55.6641	74.4369	55.6641	74.3686	55.6641	74.3755	55.6641	74.3113	55.6641	74.3202	55.6641	74.2619	55.6641	74.272	55.6641	74.2213	55.6641	74.2318	55.6641	74.19	55.6641	74.1996	55.6641	74.1676	55.6641	74.1754	55.6641	74.1538	55.6641	74.1589	55.6641	74.148	55.6641	74.1498
58.5938	75.4775	58.5938	75.4681	58.5938	75.4709	58.5938	75.4431	58.5938	75.4486	58.5938	75.4035	58.5938	75.4113	58.5938	75.3507	58.5938	75.3603	58.5938	75.2868	58.5938	75.2975	58.5938	75.2141	58.5938	75.2251	58.5938	75.1355	58.5938	75.1458	58.5938	75.0538	58.5938	75.0625	58.5938	74.9722	58.5938	74.9784	58.5938	74.8933	58.5938	74.8964	58.5938	74.8197	58.5938	74.8194	58.5938	74.7533	58.5938	74.7499	58.5938	74.6955	58.5938	74.6898	58.5938	74.6473	58.5938	74.6403	58.5938	74.6091	58.5938	74.6022	58.5938	74.5812	58.5938	74.5757	58.5938	74.5638	58.5938	74.5607	58.5938	74.5568
60.0586	75.6909	60.0586	75.6808	60.0586	75.685	60.0586	75.6551	60.0586	75.6634	60.0586	75.6147	60.0586	75.6269	60.0586	75.5611	60.0586	75.5769	60.0586	75.4962	60.0586	75.5153	60.0586	75.4227	60.0586	75.4443	60.0586	75.3433	60.0586	75.3668	60.0586	75.261	60.0586	75.2856	60.0586	75.179	60.0586	75.2038	60.0586	75.1003	60.0586	75.1244	60.0586	75.0273	60.0586	75.0499	60.0586	74.9623	60.0586	74.9826	60.0586	74.9066	60.0586	74.9241	60.0586	74.8612	60.0586	74.8755	60.0586	74.8265	60.0586	74.8374	60.0586	74.8025	60.0586	74.8098	60.0586	74.7889	60.0586	74.7926	60.0586	74.7857
62.9883	76.1454	62.9883	76.1388	62.9883	76.1361	62.9883	76.1164	62.9883	76.111	62.9883	76.0791	62.9883	76.0712	62.9883	76.0282	62.9883	76.0181	62.9883	75.9658	62.9883	75.9537	62.9883	75.8942	62.9883	75.8804	62.9883	75.8162	62.9883	75.8011	62.9883	75.7347	62.9883	75.7186	62.9883	75.6527	62.9883	75.6361	62.9883	75.5731	62.9883	75.5565	62.9883	75.4986	62.9883	75.4824	62.9883	75.4312	62.9883	75.416	62.9883	75.3726	62.9883	75.3589	62.9883	75.3238	62.9883	75.3122	62.9883	75.2854	62.9883	75.2763	62.9883	75.2575	62.9883	75.2513	62.9883	75.2402	62.9883	75.237	62.9883	75.2334
64.4531	76.3492	64.4531	76.3421	64.4531	76.3404	64.4531	76.3194	64.4531	76.316	64.4531	76.2821	64.4531	76.2771	64.4531	76.2317	64.4531	76.2251	64.4531	76.1701	64.4531	76.1621	64.4531	76.1	64.4531	76.0906	64.4531	76.0243	64.4531	76.0136	64.4531	75.9458	64.4531	75.9339	64.4531	75.8678	64.4531	75.8548	64.4531	75.7929	64.4531	75.7791	64.4531	75.7236	64.4531	75.7093	64.4531	75.6617	64.4531	75.6474	64.4531	75.6086	64.4531	75.5949	64.4531	75.5647	64.4531	75.5526	64.4531	75.5305	64.4531	75.5205	64.4531	75.5057	64.4531	75.4986	64.4531	75.4902	64.4531	75.4865	64.4531	75.4838
67.3828	76.8278	67.3828	76.8199	67.3828	76.8196	67.3828	76.7962	67.3828	76.7957	67.3828	76.7578	67.3828	76.757	67.3828	76.7065	67.3828	76.7052	67.3828	76.6444	67.3828	76.6424	67.3828	76.5744	67.3828	76.5715	67.3828	76.4995	67.3828	76.4954	67.3828	76.4229	67.3828	76.4173	67.3828	76.3477	67.3828	76.3404	67.3828	76.2767	67.3828	76.2677	67.3828	76.2122	67.3828	76.2016	67.3828	76.1556	67.3828	76.144	67.3828	76.1079	67.3828	76.0959	67.3828	76.0694	67.3828	76.058	67.3828	76.0398	67.3828	76.03	67.3828	76.0186	67.3828	76.0114	67.3828	76.0052	67.3828	76.0014	67.3828	75.9995
68.8477	77.0579	68.8477	77.0485	68.8477	77.0508	68.8477	77.0229	68.8477	77.0274	68.8477	76.9823	68.8477	76.9889	68.8477	76.9285	68.8477	76.9369	68.8477	76.8639	68.8477	76.8738	68.8477	76.7915	68.8477	76.8023	68.8477	76.7145	68.8477	76.7256	68.8477	76.6365	68.8477	76.6471	68.8477	76.5606	68.8477	76.5701	68.8477	76.4898	68.8477	76.4974	68.8477	76.4264	68.8477	76.4317	68.8477	76.3718	68.8477	76.3748	68.8477	76.3267	68.8477	76.3276	68.8477	76.2912	68.8477	76.2905	68.8477	76.2646	68.8477	76.2631	68.8477	76.2463	68.8477	76.2447	68.8477	76.2354	68.8477	76.2344	68.8477	76.2315
71.7773	77.5388	71.7773	77.5256	71.7773	77.5343	71.7773	77.4949	71.7773	77.5121	71.7773	77.448	71.7773	77.4736	71.7773	77.387	71.7773	77.4206	71.7773	77.3145	71.7773	77.3555	71.7773	77.2339	71.7773	77.2815	71.7773	77.1489	71.7773	77.2018	71.7773	77.0634	71.7773	77.1201	71.7773	76.9813	71.7773	77.04	71.7773	76.9058	71.7773	76.9645	71.7773	76.8397	71.7773	76.8962	71.7773	76.7846	71.7773	76.8369	71.7773	76.7412	71.7773	76.7875	71.7773	76.7092	71.7773	76.748	71.7773	76.6876	71.7773	76.7177	71.7773	76.6751	71.7773	76.6956	71.7773	76.6704	71.7773	76.6808	71.7773	76.6724
74.707	78.0936	74.707	78.0817	74.707	78.0872	74.707	78.0518	74.707	78.063	74.707	78.0051	74.707	78.0224	74.707	77.9435	74.707	77.9673	74.707	77.8696	74.707	77.9002	74.707	77.7868	74.707	77.8244	74.707	77.6988	74.707	77.7431	74.707	77.6097	74.707	77.66	74.707	77.5235	74.707	77.5784	74.707	77.4438	74.707	77.5014	74.707	77.3735	74.707	77.4315	74.707	77.3146	74.707	77.3705	74.707	77.268	74.707	77.319	74.707	77.2336	74.707	77.2774	74.707	77.2104	74.707	77.2451	74.707	77.1972	74.707	77.2211	74.707	77.1925	74.707	77.2047	74.707	77.1951
77.6367	78.5531	77.6367	78.545	77.6367	78.5424	77.6367	78.5184	77.6367	78.5134	77.6367	78.4742	77.6367	78.4677	77.6367	78.4145	77.6367	78.4075	77.6367	78.3419	77.6367	78.3357	77.6367	78.2599	77.6367	78.2559	77.6367	78.1723	77.6367	78.1716	77.6367	78.0833	77.6367	78.0869	77.6367	77.9969	77.6367	78.0054	77.6367	77.9169	77.6367	77.9301	77.6367	77.8462	77.6367	77.8635	77.6367	77.7868	77.6367	77.8069	77.6367	77.7397	77.6367	77.7608	77.6367	77.7047	77.6367	77.7248	77.6367	77.6807	77.6367	77.6978	77.6367	77.6663	77.6367	77.6788	77.6367	77.6599	77.6367	77.6664	77.6367	77.6602
79.1016	78.7311	79.1016	78.7243	79.1016	78.7187	79.1016	78.6986	79.1016	78.6877	79.1016	78.6552	79.1016	78.6396	79.1016	78.5961	79.1016	78.5768	79.1016	78.5242	79.1016	78.5023	79.1016	78.4427	79.1016	78.4197	79.1016	78.3558	79.1016	78.3331	79.1016	78.2674	79.1016	78.2465	79.1016	78.1818	79.1016	78.1637	79.1016	78.1024	79.1016	78.0881	79.1016	78.0323	79.1016	78.022	79.1016	77.9733	79.1016	77.967	79.1016	77.9262	79.1016	77.9232	79.1016	77.8907	79.1016	77.8902	79.1016	77.8658	79.1016	77.8667	79.1016	77.8499	79.1016	77.8512	79.1016	77.8414	79.1016	77.8423	79.1016	77.8391
82.0313	79.1506	82.0313	79.1454	82.0313	79.1366	82.0313	79.1212	82.0313	79.1037	82.0313	79.0793	82.0313	79.0534	82.0313	79.022	82.0313	78.9881	82.0313	78.9522	82.0313	78.9109	82.0313	78.8733	82.0313	78.8254	82.0313	78.7894	82.0313	78.736	82.0313	78.7045	82.0313	78.6469	82.0313	78.6226	82.0313	78.5623	82.0313	78.5469	82.0313	78.4859	82.0313	78.4802	82.0313	78.4203	82.0313	78.4238	82.0313	78.3672	82.0313	78.3781	82.0313	78.327	82.0313	78.3427	82.0313	78.299	82.0313	78.3161	82.0313	78.2816	82.0313	78.2969	82.0313	78.2729	82.0313	78.2834	82.0313	78.2712	82.0313	78.2749
84.9609	79.5771	84.9609	79.5651	84.9609	79.5698	84.9609	79.5342	84.9609	79.5437	84.9609	79.4861	84.9609	79.5004	84.9609	79.4233	84.9609	79.4423	84.9609	79.3492	84.9609	79.3727	84.9609	79.2679	84.9609	79.2956	84.9609	79.1839	84.9609	79.2151	84.9609	79.1018	84.9609	79.1357	84.9609	79.0259	84.9609	79.0614	84.9609	78.9597	84.9609	78.9954	84.9609	78.9055	84.9609	78.9401	84.9609	78.8643	84.9609	78.8964	84.9609	78.8357	84.9609	78.864	84.9609	78.8181	84.9609	78.8417	84.9609	78.8091	84.9609	78.8273	84.9609	78.806	84.9609	78.8184	84.9609	78.8066	84.9609	78.8128	84.9609	78.809
87.8906	79.9721	87.8906	79.9631	87.8906	79.9594	87.8906	79.9327	87.8906	79.9257	87.8906	79.8824	87.8906	79.8728	87.8906	79.815	87.8906	79.8036	87.8906	79.7339	87.8906	79.722	87.8906	79.6436	87.8906	79.6324	87.8906	79.5492	87.8906	79.5398	87.8906	79.4559	87.8906	79.4494	87.8906	79.3687	87.8906	79.3658	87.8906	79.2918	87.8906	79.2927	87.8906	79.2283	87.8906	79.2328	87.8906	79.1797	87.8906	79.187	87.8906	79.1456	87.8906	79.1548	87.8906	79.1245	87.8906	79.1341	87.8906	79.1135	87.8906	79.1222	87.8906	79.1093	87.8906	79.116	87.8906	79.1091	87.8906	79.1126	87.8906	79.1105
90.8203	80.3852	90.8203	80.3791	90.8203	80.3681	90.8203	80.3502	90.8203	80.3287	90.8203	80.3001	90.8203	80.269	90.8203	80.2312	90.8203	80.1921	90.8203	80.1473	90.8203	80.1021	90.8203	80.0529	90.8203	80.0039	90.8203	79.9533	90.8203	79.9027	90.8203	79.8538	90.8203	79.8041	90.8203	79.7598	90.8203	79.713	90.8203	79.6757	90.8203	79.6336	90.8203	79.6049	90.8203	79.5687	90.8203	79.5492	90.8203	79.5195	90.8203	79.5084	90.8203	79.4852	90.8203	79.4811	90.8203	79.464	90.8203	79.4645	90.8203	79.4527	90.8203	79.4554	90.8203	79.4481	90.8203	79.4507	90.8203	79.4473	90.8203	79.4483
95.2148	80.919	95.2148	80.9158	95.2148	80.8984	95.2148	80.8894	95.2148	80.8548	95.2148	80.8412	95.2148	80.7901	95.2148	80.7739	95.2148	80.7072	95.2148	80.691	95.2148	80.6102	95.2148	80.5969	95.2148	80.5039	95.2148	80.4966	95.2148	80.394	95.2148	80.3951	95.2148	80.2859	95.2148	80.2972	95.2148	80.1851	95.2148	80.2073	95.2148	80.0962	95.2148	80.1284	95.2148	80.0223	95.2148	80.0625	95.2148	79.965	95.2148	80.0098	95.2148	79.9243	95.2148	79.9694	95.2148	79.8984	95.2148	79.9395	95.2148	79.8849	95.2148	79.9177	95.2148	79.8808	95.2148	79.9019	95.2148	79.8833	95.2148	79.8906
98.1445	81.271	98.1445	81.2644	98.1445	81.2527	98.1445	81.2338	98.1445	81.2099	98.1445	81.1813	98.1445	81.1444	98.1445	81.11	98.1445	81.0591	98.1445	81.0242	98.1445	80.9582	98.1445	80.929	98.1445	80.8469	98.1445	80.8298	98.1445	80.7311	98.1445	80.7322	98.1445	80.6174	98.1445	80.6412	98.1445	80.5119	98.1445	80.5606	98.1445	80.4201	98.1445	80.4928	98.1445	80.346	98.1445	80.4386	98.1445	80.2919	98.1445	80.3969	98.1445	80.2578	98.1445	80.3652	98.1445	80.2417	98.1445	80.3406	98.1445	80.2402	98.1445	80.32	98.1445	80.2491	98.1445	80.3008	98.1445	80.2642	98.1445	80.2821
101.074	81.581	101.074	81.5663	101.074	81.5694	101.074	81.526	101.074	81.5321	101.074	81.4624	101.074	81.4709	101.074	81.379	101.074	81.3892	101.074	81.2803	101.074	81.291	101.074	81.1721	101.074	81.1818	101.074	81.0605	101.074	81.0673	101.074	80.9519	101.074	80.9537	101.074	80.8521	101.074	80.8468	101.074	80.7656	101.074	80.7519	101.074	80.6954	101.074	80.6727	101.074	80.6421	101.074	80.6115	101.074	80.6045	101.074	80.5686	101.074	80.5798	101.074	80.5423	101.074	80.564	101.074	80.5299	101.074	80.5535	101.074	80.5274	101.074	80.5452	101.074	80.531	101.074	80.5376
105.469	82.0681	105.469	82.0584	105.469	82.0501	105.469	82.0219	105.469	82.0055	105.469	81.9603	105.469	81.9363	105.469	81.8769	105.469	81.8459	105.469	81.7762	105.469	81.7392	105.469	81.6639	105.469	81.6219	105.469	81.5464	105.469	81.5004	105.469	81.4305	105.469	81.3818	105.469	81.3225	105.469	81.2724	105.469	81.2281	105.469	81.1778	105.469	81.1509	105.469	81.102	105.469	81.0927	105.469	81.0465	105.469	81.0527	105.469	81.0108	105.469	81.028	105.469	80.992	105.469	81.0145	105.469	80.9859	105.469	81.0076	105.469	80.9877	105.469	81.0032	105.469	80.993	105.469	80.9985
108.398	82.435	108.398	82.4195	108.398	82.4233	108.398	82.3775	108.398	82.3856	108.398	82.3107	108.398	82.3238	108.398	82.2222	108.398	82.2414	108.398	82.1165	108.398	82.1428	108.398	81.9992	108.398	82.0335	108.398	81.8766	108.398	81.9191	108.398	81.7556	108.398	81.806	108.398	81.6427	108.398	81.6998	108.398	81.5438	108.398	81.6053	108.398	81.4628	108.398	81.5261	108.398	81.4018	108.398	81.4636	108.398	81.3605	108.398	81.4176	108.398	81.3365	108.398	81.3859	108.398	81.326	108.398	81.3653	108.398	81.3248	108.398	81.3521	108.398	81.3288	108.398	81.3428	108.398	81.3352
112.793	82.8035	112.793	82.7943	112.793	82.7843	112.793	82.7574	112.793	82.7376	112.793	82.6951	112.793	82.666	112.793	82.6113	112.793	82.5735	112.793	82.5109	112.793	82.4654	112.793	82.4003	112.793	82.3484	112.793	82.2864	112.793	82.2296	112.793	82.1761	112.793	82.1161	112.793	82.0759	112.793	82.0146	112.793	81.9907	112.793	81.9302	112.793	81.9237	112.793	81.8658	112.793	81.8756	112.793	81.822	112.793	81.8448	112.793	81.7973	112.793	81.8279	112.793	81.7878	112.793	81.8202	112.793	81.789	112.793	81.8173	112.793	81.7958	112.793	81.815	112.793	81.8041	112.793	81.8109
117.188	83.124	117.188	83.111	117.188	83.1052	117.188	83.0669	117.188	83.0561	117.188	82.994	117.188	82.9794	117.188	82.8961	117.188	82.8798	117.188	82.779	117.188	82.7633	117.188	82.6499	117.188	82.637	117.188	82.5168	117.188	82.5091	117.188	82.3883	117.188	82.3875	117.188	82.2726	117.188	82.2794	117.188	82.1762	117.188	82.1903	117.188	82.1031	117.188	82.1234	117.188	82.0545	117.188	82.0787	117.188	82.0283	117.188	82.0538	117.188	82.0199	117.188	82.0441	117.188	82.0235	117.188	82.0439	117.188	82.0328	117.188	82.0474	117.188	82.0424	117.188	82.05	117.188	82.0486
120.117	83.349	120.117	83.336	120.117	83.3291	120.117	83.2908	120.117	83.2774	120.117	83.2158	120.117	83.1968	120.117	83.1152	120.117	83.0918	120.117	82.9949	120.117	82.9688	120.117	82.8621	120.117	82.8354	120.117	82.7253	120.117	82.7001	120.117	82.5934	120.117	82.5717	120.117	82.4747	120.117	82.4583	120.117	82.3761	120.117	82.3661	120.117	82.3023	120.117	82.2987	120.117	82.2542	120.117	82.2564	120.117	82.2299	120.117	82.2364	120.117	82.2245	120.117	82.2332	120.117	82.2313	120.117	82.2402	120.117	82.2432	120.117	82.2503	120.117	82.2541	120.117	82.258	120.117	82.2596
124.512	83.6994	124.512	83.6822	124.512	83.6827	124.512	83.6317	124.512	83.6332	124.512	83.5504	124.512	83.5538	124.512	83.4427	124.512	83.4492	124.512	83.3145	124.512	83.3257	124.512	83.1734	124.512	83.1911	124.512	83.0282	124.512	83.054	124.512	82.8885	124.512	82.9235	124.512	82.7632	124.512	82.808	124.512	82.6601	124.512	82.7139	124.512	82.5843	124.512	82.645	124.512	82.5372	124.512	82.6017	124.512	82.5169	124.512	82.5809	124.512	82.518	124.512	82.5768	124.512	82.5331	124.512	82.5821	124.512	82.5542	124.512	82.5893	124.512	82.5741	124.512	82.5924	124.512	82.5876
128.906	83.8315	128.906	83.8237	128.906	83.8035	128.906	83.7803	128.906	83.7411	128.906	83.7036	128.906	83.6477	128.906	83.5975	128.906	83.5283	128.906	83.4678	128.906	83.3898	128.906	83.3221	128.906	83.2406	128.906	83.1693	128.906	83.0901	128.906	83.0194	128.906	82.9479	128.906	82.882	128.906	82.8231	128.906	82.7658	128.906	82.7226	128.906	82.6767	128.906	82.6503	128.906	82.6173	128.906	82.6064	128.906	82.5858	128.906	82.5874	128.906	82.5774	128.906	82.5869	128.906	82.5843	128.906	82.597	128.906	82.5984	128.906	82.6097	128.906	82.6119	128.906	82.6185	128.906	82.6195
133.301	83.9521	133.301	83.9487	133.301	83.9197	133.301	83.91	133.301	83.8527	133.301	83.8385	133.301	83.7545	133.301	83.7383	133.301	83.6301	133.301	83.6153	133.301	83.4865	133.301	83.4773	133.301	83.3324	133.301	83.3329	133.301	83.1777	133.301	83.1919	133.301	83.0329	133.301	83.0633	133.301	82.9075	133.301	82.9551	133.301	82.8092	133.301	82.8724	133.301	82.7421	133.301	82.8172	133.301	82.7062	133.301	82.7875	133.301	82.6976	133.301	82.7778	133.301	82.709	133.301	82.7809	133.301	82.7319	133.301	82.7886	133.301	82.7574	133.301	82.7937	133.301	82.7786	133.301	82.7911
139.16	84.1002	139.16	84.094	139.16	84.0679	139.16	84.0503	139.16	83.9983	139.16	83.972	139.16	83.8945	139.16	83.8641	139.16	83.7617	139.16	83.7332	139.16	83.6074	139.16	83.5879	139.16	83.4409	139.16	83.438	139.16	83.2733	139.16	83.2938	139.16	83.1164	139.16	83.1652	139.16	82.9815	139.16	83.0604	139.16	82.8777	139.16	82.9841	139.16	82.8104	139.16	82.9374	139.16	82.7799	139.16	82.9171	139.16	82.7814	139.16	82.9165	139.16	82.8063	139.16	82.9267	139.16	82.844	139.16	82.9385	139.16	82.8837	139.16	82.9438	139.16	82.9166	139.16	82.9373
143.555	84.1517	143.555	84.1357	143.555	84.1265	143.555	84.0797	143.555	84.061	143.555	83.9871	143.555	83.9583	143.555	83.8634	143.555	83.8233	143.555	83.7161	143.555	83.6637	143.555	83.5547	143.555	83.4889	143.555	83.39	143.555	83.3102	143.555	83.2335	143.555	83.14	143.555	83.0962	143.555	82.9904	143.555	82.9867	143.555	82.8717	143.555	82.9101	143.555	82.7904	143.555	82.8666	143.555	82.7481	143.555	82.8518	143.555	82.7409	143.555	82.8576	143.555	82.7605	143.555	82.8736	143.555	82.7959	143.555	82.8897	143.555	82.8355	143.555	82.8972	143.555	82.8695	143.555	82.891
147.949	84.172	147.949	84.154	147.949	84.1459	147.949	84.0931	147.949	84.0768	147.949	83.9925	147.949	83.9681	147.949	83.8578	147.949	83.8253	147.949	83.6968	147.949	83.6564	147.949	83.5194	147.949	83.4716	147.949	83.3372	147.949	83.283	147.949	83.1628	147.949	83.1037	147.949	83.0086	147.949	82.9465	147.949	82.8848	147.949	82.822	147.949	82.7978	147.949	82.7367	147.949	82.7487	147.949	82.6918	147.949	82.7333	147.949	82.6828	147.949	82.7429	147.949	82.7004	147.949	82.7659	147.949	82.7329	147.949	82.7908	147.949	82.7683	147.949	82.8077	147.949	82.7963	147.949	82.8103
153.809	84.1524	153.809	84.1374	153.809	84.1228	153.809	84.0788	153.809	84.0496	153.809	83.9799	153.809	83.9358	153.809	83.8456	153.809	83.7864	153.809	83.6836	153.809	83.6091	153.809	83.5032	153.809	83.4136	153.809	83.3157	153.809	83.2118	153.809	83.1335	153.809	83.0171	153.809	82.9688	153.809	82.8432	153.809	82.8318	153.809	82.7021	153.809	82.7297	153.809	82.6017	153.809	82.6644	153.809	82.5446	153.809	82.6326	153.809	82.5269	153.809	82.6267	153.809	82.5394	153.809	82.6361	153.809	82.5698	153.809	82.6497	153.809	82.6055	153.809	82.6579	153.809	82.6359	153.809	82.6541
159.668	84.2357	159.668	84.216	159.668	84.2106	159.668	84.1527	159.668	84.1416	159.668	84.0491	159.668	84.0319	159.668	83.9111	159.668	83.8868	159.668	83.7469	159.668	83.7139	159.668	83.5668	159.668	83.5228	159.668	83.3832	159.668	83.3251	159.668	83.209	159.668	83.1339	159.668	83.0568	159.668	82.9623	159.668	82.9363	159.668	82.8224	159.668	82.8531	159.668	82.7226	159.668	82.807	159.668	82.6663	159.668	82.7924	159.668	82.6508	159.668	82.7993	159.668	82.668	159.668	82.816	159.668	82.706	159.668	82.8309	159.668	82.7517	159.668	82.8348	159.668	82.7935	159.668	82.8226
165.527	84.2672	165.527	84.244	165.527	84.2427	165.527	84.1745	165.527	84.1721	165.527	84.0621	165.527	84.0593	165.527	83.9132	165.527	83.9105	165.527	83.7367	165.527	83.7347	165.527	83.5443	165.527	83.5431	165.527	83.3496	165.527	83.3488	165.527	83.1678	165.527	83.1659	165.527	83.0131	165.527	83.0079	165.527	82.8969	165.527	82.886	165.527	82.8254	165.527	82.8068	165.527	82.798	165.527	82.7713	165.527	82.8074	165.527	82.7741	165.527	82.8412	165.527	82.8051	165.527	82.8851	165.527	82.8513	165.527	82.9252	165.527	82.899	165.527	82.9506	165.527	82.9362	165.527	82.9547
171.387	84.1742	171.387	84.1476	171.387	84.1491	171.387	84.0704	171.387	84.0738	171.387	83.9463	171.387	83.9525	171.387	83.7817	171.387	83.7918	171.387	83.5861	171.387	83.6013	171.387	83.3723	171.387	83.3934	171.387	83.1558	171.387	83.1827	171.387	82.9537	171.387	82.9856	171.387	82.7832	171.387	82.8179	171.387	82.6579	171.387	82.6927	171.387	82.5856	171.387	82.6175	171.387	82.5656	171.387	82.5924	171.387	82.5894	171.387	82.6099	171.387	82.6422	171.387	82.6565	171.387	82.7069	171.387	82.7159	171.387	82.7668	171.387	82.7718	171.387	82.8087	171.387	82.8109	171.387	82.8243
177.246	84.0408	177.246	84.0239	177.246	84.0036	177.246	83.9531	177.246	83.915	177.246	83.8311	177.246	83.7799	177.246	83.6637	177.246	83.6061	177.246	83.4599	177.246	83.4041	177.246	83.2325	177.246	83.1872	177.246	82.9977	177.246	82.9707	177.246	82.7742	177.246	82.7711	177.246	82.5814	177.246	82.604	177.246	82.4359	177.246	82.4819	177.246	82.3477	177.246	82.4109	177.246	82.318	177.246	82.3899	177.246	82.3385	177.246	82.4103	177.246	82.3936	177.246	82.458	177.246	82.4646	177.246	82.5161	177.246	82.5329	177.246	82.5685	177.246	82.5839	177.246	82.602	177.246	82.608
183.105	83.8471	183.105	83.8398	183.105	83.794	183.105	83.7726	183.105	83.6829	183.105	83.6486	183.105	83.5189	183.105	83.474	183.105	83.3105	183.105	83.2581	183.105	83.0699	183.105	83.0144	183.105	82.8131	183.105	82.7599	183.105	82.5595	183.105	82.5149	183.105	82.3305	183.105	82.3008	183.105	82.1464	183.105	82.1369	183.105	82.0225	183.105	82.0357	183.105	81.9651	183.105	81.9996	183.105	81.9697	183.105	82.0204	183.105	82.0224	183.105	82.081	183.105	82.1029	183.105	82.1604	183.105	82.1897	183.105	82.2374	183.105	82.2634	183.105	82.2948	183.105	82.3098	183.105	82.3207
188.965	83.763	188.965	83.7618	188.965	83.7024	188.965	83.7001	188.965	83.5807	188.965	83.5809	188.965	83.4005	188.965	83.4093	188.965	83.1674	188.965	83.1929	188.965	82.8905	188.965	82.9426	188.965	82.5831	188.965	82.6729	188.965	82.2639	188.965	82.4023	188.965	81.9564	188.965	82.1519	188.965	81.6866	188.965	81.9424	188.965	81.4792	188.965	81.7899	188.965	81.3511	188.965	81.7011	188.965	81.3065	188.965	81.6715	188.965	81.3353	188.965	81.6858	188.965	81.416	188.965	81.7225	188.965	81.5218	188.965	81.7592	188.965	81.627	188.965	81.7769	188.965	81.7113	188.965	81.7625
196.289	83.4875	196.289	83.4541	196.289	83.4616	196.289	83.364	196.289	83.3765	196.289	83.2224	196.289	83.2349	196.289	83.0367	196.289	83.0425	196.289	82.8173	196.289	82.8084	196.289	82.5772	196.289	82.5453	196.289	82.3318	196.289	82.27	196.289	82.0985	196.289	82.0022	196.289	81.8946	196.289	81.7633	196.289	81.7353	196.289	81.5732	196.289	81.6298	196.289	81.4457	196.289	81.5791	196.289	81.3851	196.289	81.575	196.289	81.3853	196.289	81.6024	196.289	81.431	196.289	81.6425	196.289	81.5019	196.289	81.6774	196.289	81.5779	196.289	81.6933	196.289	81.6418	196.289	81.682
203.613	83.2021	203.613	83.1642	203.613	83.1738	203.613	83.0614	203.613	83.0811	203.613	82.8978	203.613	82.928	203.613	82.6812	203.613	82.7218	203.613	82.4232	203.613	82.4731	203.613	82.1402	203.613	82.1965	203.613	81.8533	203.613	81.9108	203.613	81.5865	203.613	81.6387	203.613	81.3644	203.613	81.4041	203.613	81.2069	203.613	81.2286	203.613	81.1242	203.613	81.1258	203.613	81.1139	203.613	81.0973	203.613	81.1612	203.613	81.1318	203.613	81.2435	203.613	81.2086	203.613	81.3362	203.613	81.3029	203.613	81.4169	203.613	81.3913	203.613	81.469	203.613	81.4552	203.613	81.4827
210.938	83.0705	210.938	83.0391	210.938	83.0314	210.938	82.9373	210.938	82.9238	210.938	82.7678	210.938	82.7522	210.938	82.5361	210.938	82.5236	210.938	82.2514	210.938	82.2485	210.938	81.928	210.938	81.9416	210.938	81.5861	210.938	81.6227	210.938	81.252	210.938	81.3161	210.938	80.9567	210.938	81.0491	210.938	80.7302	210.938	80.8472	210.938	80.5946	210.938	80.7277	210.938	80.5559	210.938	80.6938	210.938	80.6013	210.938	80.7326	210.938	80.704	210.938	80.8188	210.938	80.8307	210.938	80.9219	210.938	80.9501	210.938	81.0131	210.938	81.0382	210.938	81.0703	210.938	81.0801
218.262	82.7162	218.262	82.7001	218.262	82.6604	218.262	82.612	218.262	82.5347	218.262	82.4543	218.262	82.3438	218.262	82.2323	218.262	82.095	218.262	81.9547	218.262	81.7999	218.262	81.6351	218.262	81.4742	218.262	81.2929	218.262	81.1397	218.262	80.9536	218.262	80.8228	218.262	80.6478	218.262	80.5527	218.262	80.4062	218.262	80.3556	218.262	80.2528	218.262	80.2478	218.262	80.1962	218.262	80.2294	218.262	80.2264	218.262	80.2844	218.262	80.3177	218.262	80.3849	218.262	80.4368	218.262	80.4991	218.262	80.5514	218.262	80.5984	218.262	80.6361	218.262	80.6612	218.262	80.6749
225.586	82.4477	225.586	82.4483	225.586	82.3708	225.586	82.3724	225.586	82.2194	225.586	82.222	225.586	81.9975	225.586	82.0015	225.586	81.7122	225.586	81.7184	225.586	81.3746	225.586	81.385	225.586	81.002	225.586	81.02	225.586	80.6192	225.586	80.65	225.586	80.2593	225.586	80.3091	225.586	79.961	225.586	80.0348	225.586	79.7599	225.586	79.8591	225.586	79.6775	225.586	79.7973	225.586	79.7109	225.586	79.8408	225.586	79.8333	225.586	79.9597	225.586	80.0029	225.586	80.1131	225.586	80.1764	225.586	80.2609	225.586	80.3181	225.586	80.3709	225.586	80.404	225.586	80.4219
232.91	82.4051	232.91	82.4069	232.91	82.3247	232.91	82.3315	232.91	82.1657	232.91	82.1822	232.91	81.9299	232.91	81.9641	232.91	81.6215	232.91	81.6846	232.91	81.2479	232.91	81.3547	232.91	80.8218	232.91	80.9899	232.91	80.3632	232.91	80.6118	232.91	79.9025	232.91	80.2487	232.91	79.4812	232.91	79.9338	232.91	79.1478	232.91	79.6989	232.91	78.9452	232.91	79.5654	232.91	78.8932	232.91	79.5339	232.91	78.9774	232.91	79.5828	232.91	79.1548	232.91	79.6739	232.91	79.3699	232.91	79.7644	232.91	79.572	232.91	79.8175	232.91	79.7247	232.91	79.8079
241.699	81.6451	241.699	81.6416	241.699	81.5699	241.699	81.562	241.699	81.4156	241.699	81.4107	241.699	81.1841	241.699	81.1941	241.699	80.8801	241.699	80.9205	241.699	80.5112	241.699	80.6008	241.699	80.0894	241.699	80.2485	241.699	79.6314	241.699	79.8811	241.699	79.1612	241.699	79.5199	241.699	78.7113	241.699	79.1895	241.699	78.3211	241.699	78.9144	241.699	78.0304	241.699	78.7136	241.699	77.8679	241.699	78.5937	241.699	77.838	241.699	78.5447	241.699	77.9177	241.699	78.5414	241.699	78.0647	241.699	78.5502	241.699	78.232	241.699	78.5392	241.699	78.3805	241.699	78.4855
250.488	81.3871	250.488	81.3969	250.488	81.2808	250.488	81.3133	250.488	81.0773	250.488	81.1409	250.488	80.7783	250.488	80.8876	250.488	80.3888	250.488	80.5648	250.488	79.919	250.488	80.1893	250.488	79.386	250.488	79.7846	250.488	78.8174	250.488	79.3813	250.488	78.2522	250.488	79.0141	250.488	77.7408	250.488	78.7146	250.488	77.3372	250.488	78.5026	250.488	77.0852	250.488	78.3781	250.488	77.0015	250.488	78.3228	250.488	77.0689	250.488	78.307	250.488	77.244	250.488	78.2994	250.488	77.4744	250.488	78.2731	250.488	77.7131	250.488	78.2084	250.488	77.9262	250.488	78.0937
259.277	83.7466	259.277	83.6444	259.277	83.7593	259.277	83.4557	259.277	83.6806	259.277	83.1853	259.277	83.5097	259.277	82.8406	259.277	83.2474	259.277	82.4329	259.277	82.8964	259.277	81.9794	259.277	82.4639	259.277	81.5045	259.277	81.9635	259.277	81.0408	259.277	81.4192	259.277	80.6271	259.277	80.8678	259.277	80.3017	259.277	80.3595	259.277	80.0914	259.277	79.9509	259.277	80.0011	259.277	79.6884	259.277	80.0102	259.277	79.5893	259.277	80.0802	259.277	79.6323	259.277	80.1673	259.277	79.7679	259.277	80.2328	259.277	79.9382	259.277	80.2495	259.277	80.0943	259.277	80.2033
268.066	84.7007	268.066	84.545	268.066	84.7662	268.066	84.3017	268.066	84.74	268.066	83.9756	268.066	84.6222	268.066	83.5733	268.066	84.4148	268.066	83.1053	268.066	84.1227	268.066	82.5873	268.066	83.7555	268.066	82.0435	268.066	83.3295	268.066	81.5089	268.066	82.8703	268.066	81.0302	268.066	82.4146	268.066	80.6606	268.066	82.0075	268.066	80.4459	268.066	81.6935	268.066	80.4053	268.066	81.5015	268.066	80.5204	268.066	81.4324	268.066	80.741	268.066	81.4573	268.066	81.0049	268.066	81.529	268.066	81.2562	268.066	81.5977	268.066	81.4549	268.066	81.6231	268.066	81.579
276.855	84.8741	276.855	84.8179	276.855	84.846	276.855	84.6726	276.855	84.7394	276.855	84.4355	276.855	84.5598	276.855	84.1073	276.855	84.3118	276.855	83.6934	276.855	83.9991	276.855	83.2057	276.855	83.6268	276.855	82.666	276.855	83.2041	276.855	82.1093	276.855	82.7492	276.855	81.585	276.855	82.2933	276.855	81.1518	276.855	81.8805	276.855	80.8625	276.855	81.56	276.855	80.7434	276.855	81.3684	276.855	80.782	276.855	81.311	276.855	80.933	276.855	81.3574	276.855	81.1369	276.855	81.4557	276.855	81.3389	276.855	81.5518	276.855	81.4977	276.855	81.6045	276.855	81.589
287.109	84.3001	287.109	84.2932	287.109	84.2109	287.109	84.1892	287.109	84.03	287.109	83.9902	287.109	83.7651	287.109	83.7005	287.109	83.4271	287.109	83.3273	287.109	83.0291	287.109	82.8811	287.109	82.586	287.109	82.3787	287.109	82.1156	287.109	81.8475	287.109	81.6401	287.109	81.3285	287.109	81.1893	287.109	80.8765	287.109	80.8017	287.109	80.5488	287.109	80.5191	287.109	80.3834	287.109	80.3732	287.109	80.379	287.109	80.3683	287.109	80.4936	287.109	80.4752	287.109	80.6641	287.109	80.6409	287.109	80.8294	287.109	80.8084	287.109	80.9434	287.109	80.9312	287.109	80.9798
297.363	83.8639	297.363	83.8211	297.363	83.8031	297.363	83.6806	297.363	83.6354	297.363	83.4507	297.363	83.3619	297.363	83.1404	297.363	82.9886	297.363	82.7599	297.363	82.5279	297.363	82.3213	297.363	81.9989	297.363	81.8407	297.363	81.4291	297.363	81.3416	297.363	80.8553	297.363	80.8587	297.363	80.3245	297.363	80.4386	297.363	79.89	297.363	80.1323	297.363	79.6014	297.363	79.9762	297.363	79.4873	297.363	79.9717	297.363	79.5405	297.363	80.0801	297.363	79.7181	297.363	80.2389	297.363	79.9563	297.363	80.3853	297.363	80.1912	297.363	80.4716	297.363	80.3728	297.363	80.47
307.617	83.5292	307.617	83.4623	307.617	83.5119	307.617	83.314	307.617	83.4065	307.617	83.0863	307.617	83.2089	307.617	82.7815	307.617	82.9163	307.617	82.4038	307.617	82.5292	307.617	81.9622	307.617	82.0543	307.617	81.4744	307.617	81.5082	307.617	80.9704	307.617	80.9213	307.617	80.4944	307.617	80.3412	307.617	80.1004	307.617	79.8325	307.617	79.8394	307.617	79.4657	307.617	79.7386	307.617	79.2926	307.617	79.7868	307.617	79.321	307.617	79.9366	307.617	79.5063	307.617	80.1235	307.617	79.7727	307.617	80.2857	307.617	80.0415	307.617	80.3766	307.617	80.2521	307.617	80.3681
319.336	83.0646	319.336	83.0313	319.336	83.0077	319.336	82.906	319.336	82.8629	319.336	82.6875	319.336	82.6324	319.336	82.3752	319.336	82.3188	319.336	81.9709	319.336	81.9263	319.336	81.4806	319.336	81.4632	319.336	80.9193	319.336	80.9464	319.336	80.3185	319.336	80.406	319.336	79.7331	319.336	79.8888	319.336	79.2413	319.336	79.4555	319.336	78.9256	319.336	79.1666	319.336	78.834	319.336	79.0584	319.336	78.9502	319.336	79.124	319.336	79.2012	319.336	79.3144	319.336	79.4962	319.336	79.5588	319.336	79.7579	319.336	79.7872	319.336	79.9345	319.336	79.9453	319.336	79.9991
329.59	83.041	329.59	83.014	329.59	82.9759	329.59	82.8945	329.59	82.8196	329.59	82.6825	329.59	82.5728	329.59	82.3784	329.59	82.2351	329.59	81.9832	329.59	81.8064	329.59	81.4997	329.59	81.2877	329.59	80.9353	329.59	80.6872	329.59	80.3089	329.59	80.0284	329.59	79.661	329.59	79.3605	329.59	79.0622	329.59	78.7648	329.59	78.608	329.59	78.3405	329.59	78.3818	329.59	78.1622	329.59	78.4029	329.59	78.233	329.59	78.6077	329.59	78.4798	329.59	78.8896	329.59	78.7964	329.59	79.1505	329.59	79.0889	329.59	79.3242	329.59	79.2934	329.59	79.3753
341.309	82.5612	341.309	82.5366	341.309	82.4956	341.309	82.4201	341.309	82.3449	341.309	82.2124	341.309	82.1158	341.309	81.9163	341.309	81.8159	341.309	81.536	341.309	81.4504	341.309	81.0777	341.309	81.0225	341.309	80.552	341.309	80.5345	341.309	79.9796	341.309	79.9951	341.309	79.397	341.309	79.4295	341.309	78.8622	341.309	78.8897	341.309	78.4506	341.309	78.4545	341.309	78.2314	341.309	78.2037	341.309	78.2297	341.309	78.1738	341.309	78.4031	341.309	78.3292	341.309	78.6612	341.309	78.5834	341.309	78.9082	341.309	78.8429	341.309	79.0731	341.309	79.0357	341.309	79.1183
353.027	82.3412	353.027	82.3146	353.027	82.2596	353.027	82.1846	353.027	82.0668	353.027	81.9567	353.027	81.7624	353.027	81.6362	353.027	81.3496	353.027	81.2274	353.027	80.8357	353.027	80.7345	353.027	80.2327	353.027	80.1651	353.027	79.5603	353.027	79.5368	353.027	78.8501	353.027	78.8884	353.027	78.1545	353.027	78.2884	353.027	77.5543	353.027	77.8317	353.027	77.1509	353.027	77.6062	353.027	77.0256	353.027	77.6389	353.027	77.1827	353.027	77.8715	353.027	77.5369	353.027	78.1926	353.027	77.9621	353.027	78.4915	353.027	78.3469	353.027	78.6873	353.027	78.6174	353.027	78.7345
366.211	82.1902	366.211	82.1017	366.211	82.1771	366.211	81.9175	366.211	82.0591	366.211	81.6458	366.211	81.8354	366.211	81.2947	366.211	81.507	366.211	80.8712	366.211	81.0751	366.211	80.3793	366.211	80.5405	366.211	79.8224	366.211	79.9027	366.211	79.2085	366.211	79.1637	366.211	78.5604	366.211	78.3361	366.211	77.9255	366.211	77.4634	366.211	77.3776	366.211	76.6454	366.211	76.9987	366.211	76.0451	366.211	76.8389	366.211	75.8174	366.211	76.8815	366.211	75.978	366.211	77.0471	366.211	76.375	366.211	77.2331	366.211	76.8119	366.211	77.3492	366.211	77.1514	366.211	77.3326
379.395	82.5788	379.395	82.5042	379.395	82.5621	379.395	82.3374	379.395	82.4545	379.395	82.0782	379.395	82.2564	379.395	81.728	379.395	81.9672	379.395	81.2912	379.395	81.5868	379.395	80.7769	379.395	81.1164	379.395	80.2012	379.395	80.5623	379.395	79.5886	379.395	79.9403	379.395	78.9746	379.395	79.2802	379.395	78.4081	379.395	78.6278	379.395	77.9495	379.395	78.0415	379.395	77.6534	379.395	77.5823	379.395	77.5402	379.395	77.2977	379.395	77.5768	379.395	77.204	379.395	77.6894	379.395	77.2752	379.395	77.7969	379.395	77.447	379.395	77.8381	379.395	77.6395	379.395	77.7836
392.578	82.4516	392.578	82.4085	392.578	82.3962	392.578	82.2643	392.578	82.2504	392.578	82.0223	392.578	82.0261	392.578	81.69	392.578	81.7365	392.578	81.2775	392.578	81.3915	392.578	80.7963	392.578	80.9958	392.578	80.2597	392.578	80.5487	392.578	79.6861	392.578	80.0496	392.578	79.1031	392.578	79.508	392.578	78.5526	392.578	78.9552	392.578	78.0928	392.578	78.4506	392.578	77.7901	392.578	78.0712	392.578	77.6892	392.578	77.8785	392.578	77.7783	392.578	77.8797	392.578	77.9846	392.578	78.0194	392.578	78.2102	392.578	78.2088	392.578	78.373	392.578	78.364	392.578	78.4273
405.762	82.2269	405.762	82.1373	405.762	82.1581	405.762	81.8922	405.762	81.9384	405.762	81.5055	405.762	81.5866	405.762	81.0034	405.762	81.134	405.762	80.4265	405.762	80.6248	405.762	79.8305	405.762	80.1132	405.762	79.2821	405.762	79.6528	405.762	78.8457	405.762	79.2819	405.762	78.5608	405.762	79.0115	405.762	78.4242	405.762	78.829	405.762	78.3957	405.762	78.7135	405.762	78.4251	405.762	78.6498	405.762	78.4786	405.762	78.6315	405.762	78.5446	405.762	78.6534	405.762	78.6217	405.762	78.7033	405.762	78.7031	405.762	78.7608	405.762	78.7713	405.762	78.8018	405.762	78.8073
420.41	83.2111	420.41	83.1525	420.41	83.1151	420.41	82.9357	420.41	82.8642	420.41	82.5535	420.41	82.4558	420.41	81.9953	420.41	81.886	420.41	81.2501	420.41	81.1521	420.41	80.3141	420.41	80.2593	420.41	79.2103	420.41	79.2356	420.41	78.0313	420.41	78.1604	420.41	77.0016	420.41	77.2039	420.41	76.4599	420.41	76.6177	420.41	76.5986	420.41	76.5866	420.41	77.2324	420.41	77.0448	420.41	78.0161	420.41	77.7413	420.41	78.7192	420.41	78.4466	420.41	79.2532	420.41	79.035	420.41	79.6063	420.41	79.4613	420.41	79.7937	420.41	79.7229	420.41	79.8311
435.059	82.7289	435.059	82.6857	435.059	82.6682	435.059	82.5388	435.059	82.498	435.059	82.2809	435.059	82.2088	435.059	81.8969	435.059	81.7886	435.059	81.3654	435.059	81.2247	435.059	80.6629	435.059	80.5063	435.059	79.7722	435.059	79.6318	435.059	78.6997	435.059	78.6253	435.059	77.5146	435.059	77.5675	435.059	76.416	435.059	76.6345	435.059	75.7557	435.059	76.0823	435.059	75.8097	435.059	76.0881	435.059	76.4524	435.059	76.5739	435.059	77.3078	435.059	77.2872	435.059	78.0907	435.059	77.9996	435.059	78.6722	435.059	78.5771	435.059	79.0122	435.059	78.9551	435.059	79.1046
451.172	82.7725	451.172	82.7453	451.172	82.6789	451.172	82.5919	451.172	82.4713	451.172	82.3092	451.172	82.1555	451.172	81.8928	451.172	81.7317	451.172	81.3336	451.172	81.1911	451.172	80.6153	451.172	80.5149	451.172	79.7196	451.172	79.6798	451.172	78.642	451.172	78.6722	451.172	77.4323	451.172	77.5202	451.172	76.2714	451.172	76.3577	451.172	75.5269	451.172	75.4921	451.172	75.5449	451.172	75.2965	451.172	76.2335	451.172	75.8248	451.172	77.1704	451.172	76.7305	451.172	78.0229	451.172	77.6477	451.172	78.6446	451.172	78.3811	451.172	78.9937	451.172	78.8596	451.172	79.0648
465.82	82.9012	465.82	82.8344	465.82	82.8559	465.82	82.6583	465.82	82.6954	465.82	82.3745	465.82	82.4164	465.82	81.9815	465.82	82.0156	465.82	81.4732	465.82	81.4878	465.82	80.8367	465.82	80.8242	465.82	80.0524	465.82	80.0137	465.82	79.0993	465.82	79.0497	465.82	77.9773	465.82	77.9519	465.82	76.7582	465.82	76.8125	465.82	75.6771	465.82	75.8547	465.82	75.1447	465.82	75.3993	465.82	75.4107	465.82	75.6049	465.82	76.2186	465.82	76.2729	465.82	77.1206	465.82	77.0658	465.82	77.8386	465.82	77.7482	465.82	78.2679	465.82	78.2055	465.82	78.3869
483.398	82.9148	483.398	82.8694	483.398	82.8633	483.398	82.7288	483.398	82.7123	483.398	82.4911	483.398	82.4596	483.398	82.146	483.398	82.1008	483.398	81.6723	483.398	81.625	483.398	81.0383	483.398	81.0122	483.398	80.2066	483.398	80.2344	483.398	79.1451	483.398	79.2661	483.398	77.8559	483.398	78.1135	483.398	76.4489	483.398	76.8776	483.398	75.2778	483.398	75.8494	483.398	74.9075	483.398	75.4689	483.398	75.5061	483.398	75.9035	483.398	76.5795	483.398	76.8105	483.398	77.6253	483.398	77.7555	483.398	78.4233	483.398	78.4985	483.398	78.9147	483.398	78.9513	483.398	79.0908
499.512	82.6298	499.512	82.5996	499.512	82.5687	499.512	82.481	499.512	82.4152	499.512	82.2772	499.512	82.17	499.512	81.9866	499.512	81.8328	499.512	81.5957	499.512	81.3992	499.512	81.0759	499.512	80.857	499.512	80.3858	499.512	80.1835	499.512	79.4836	499.512	79.3481	499.512	78.3536	499.512	78.3265	499.512	77.061	499.512	77.1446	499.512	75.859	499.512	75.974	499.512	75.2381	499.512	75.2243	499.512	75.5392	499.512	75.3076	499.512	76.467	499.512	76.1016	499.512	77.4821	499.512	77.1076	499.512	78.2668	499.512	77.9701	499.512	78.7123	499.512	78.5492	499.512	78.8025
517.09	83.0043	517.09	82.9243	517.09	82.983	517.09	82.742	517.09	82.8642	517.09	82.4585	517.09	82.6504	517.09	82.0745	517.09	82.3382	517.09	81.5844	517.09	81.9133	517.09	80.9699	517.09	81.3483	517.09	80.1973	517.09	80.6044	517.09	79.2223	517.09	79.6387	517.09	78.0147	517.09	78.4234	517.09	76.626	517.09	76.9993	517.09	75.3373	517.09	75.6044	517.09	74.744	517.09	74.8012	517.09	75.2181	517.09	75.0781	517.09	76.3293	517.09	76.1284	517.09	77.471	517.09	77.3036	517.09	78.3484	517.09	78.241	517.09	78.8756	517.09	78.8254	517.09	79.0361
536.133	82.3334	536.133	82.3333	536.133	82.2181	536.133	82.2192	536.133	81.9956	536.133	81.9986	536.133	81.6819	536.133	81.6772	536.133	81.2922	536.133	81.2498	536.133	80.8291	536.133	80.6927	536.133	80.2747	536.133	79.9617	536.133	79.5905	536.133	78.9971	536.133	78.7286	536.133	77.7428	536.133	77.6552	536.133	76.202	536.133	76.4082	536.133	74.6067	536.133	75.2244	536.133	73.683	536.133	74.6413	536.133	74.1594	536.133	75.0804	536.133	75.564	536.133	76.214	536.133	77.0219	536.133	77.4281	536.133	78.144	536.133	78.3791	536.133	78.8405	536.133	78.9489	536.133	79.1061
555.176	83.1	555.176	83.0078	555.176	83.0826	555.176	82.8179	555.176	82.9506	555.176	82.5456	555.176	82.7054	555.176	82.2004	555.176	82.3492	555.176	81.7762	555.176	81.8766	555.176	81.2422	555.176	81.2634	555.176	80.5411	555.176	80.4614	555.176	79.5927	555.176	79.3981	555.176	78.3045	555.176	77.9842	555.176	76.6062	555.176	76.1391	555.176	74.5972	555.176	73.9178	555.176	73.0088	555.176	72.0284	555.176	73.1621	555.176	72.1035	555.176	74.7395	555.176	73.94	555.176	76.4007	555.176	75.8832	555.176	77.6115	555.176	77.3109	555.176	78.3003	555.176	78.1639	555.176	78.4838
574.219	83.1941	574.219	83.1484	574.219	83.1394	574.219	83.0023	574.219	82.9967	574.219	82.7659	574.219	82.7834	574.219	82.4487	574.219	82.5091	574.219	82.0435	574.219	82.1632	574.219	81.5138	574.219	81.7076	574.219	80.7916	574.219	81.0768	574.219	79.7834	574.219	80.1833	574.219	78.3789	574.219	78.9258	574.219	76.4766	574.219	77.2111	574.219	74.1446	574.219	75.0652	574.219	72.3113	574.219	73.0816	574.219	72.8263	574.219	72.812	574.219	74.9119	574.219	74.3865	574.219	76.8268	574.219	76.2355	574.219	78.1192	574.219	77.6533	574.219	78.7983	574.219	78.5452	574.219	78.9274
594.727	82.2595	594.727	82.2148	594.727	82.198	594.727	82.0779	594.727	82.0458	594.727	81.8861	594.727	81.8419	594.727	81.6823	594.727	81.628	594.727	81.4855	594.727	81.4179	594.727	81.2649	594.727	81.1756	594.727	80.9351	594.727	80.8169	594.727	80.3757	594.727	80.2276	594.727	79.4509	594.727	79.2787	594.727	78.0168	594.727	77.8341	594.727	75.9345	594.727	75.7845	594.727	73.2531	594.727	73.3126	594.727	71.2298	594.727	71.8826	594.727	72.2407	594.727	73.1671	594.727	74.6616	594.727	75.3722	594.727	76.5971	594.727	77.0531	594.727	77.7696	594.727	77.9934	594.727	78.2253
615.234	82.934	615.234	82.8551	615.234	82.8463	615.234	82.6301	615.234	82.5958	615.234	82.299	615.234	82.2141	615.234	81.9122	615.234	81.7566	615.234	81.5121	615.234	81.2839	615.234	81.1066	615.234	80.8235	615.234	80.6492	615.234	80.3377	615.234	80.0375	615.234	79.7249	615.234	79.1288	615.234	78.8458	615.234	77.7601	615.234	77.5447	615.234	75.778	615.234	75.6679	615.234	73.227	615.234	73.2104	615.234	71.2917	615.234	71.155	615.234	72.2003	615.234	71.8242	615.234	74.5081	615.234	74.1658	615.234	76.3533	615.234	76.1308	615.234	77.4169	615.234	77.31	615.234	77.7286
637.207	83.0842	637.207	83.0097	637.207	82.9968	637.207	82.7903	637.207	82.7636	637.207	82.4729	637.207	82.429	637.207	82.1221	637.207	82.0539	637.207	81.7897	637.207	81.691	637.207	81.4766	637.207	81.354	637.207	81.1134	637.207	80.9954	637.207	80.5755	637.207	80.5107	637.207	79.7107	637.207	79.765	637.207	78.3543	637.207	78.6198	637.207	76.3542	637.207	76.9566	637.207	73.7757	637.207	74.771	637.207	71.8816	637.207	72.6449	637.207	72.8091	637.207	72.3506	637.207	74.9948	637.207	74.087	637.207	76.6907	637.207	75.9868	637.207	77.6169	637.207	77.2597	637.207	77.8009
659.18	83.7126	659.18	83.6094	659.18	83.6034	659.18	83.3004	659.18	83.2999	659.18	82.8223	659.18	82.8427	659.18	82.2438	659.18	82.2943	659.18	81.6533	659.18	81.7277	659.18	81.1207	659.18	81.1977	659.18	80.6441	659.18	80.7034	659.18	80.1273	659.18	80.1676	659.18	79.4076	659.18	79.447	659.18	78.2979	659.18	78.3589	659.18	76.6157	659.18	76.7123	659.18	74.2885	659.18	74.4149	659.18	72.0028	659.18	72.0807	659.18	72.0611	659.18	71.9692	659.18	74.2084	659.18	74.0614	659.18	76.1723	659.18	76.0586	659.18	77.3383	659.18	77.2789	659.18	77.6985
682.617	83.9663	682.617	83.8565	682.617	83.8518	682.617	83.5427	682.617	83.5247	682.617	83.0767	682.617	83.0341	682.617	82.5405	682.617	82.4702	682.617	82.0272	682.617	81.9459	682.617	81.5919	682.617	81.5385	682.617	81.2034	682.617	81.2198	682.617	80.7444	682.617	80.8509	682.617	80.0521	682.617	80.2433	682.617	78.9498	682.617	79.2097	682.617	77.251	682.617	77.5704	682.617	74.8172	682.617	75.1911	682.617	72.1759	682.617	72.4668	682.617	72.008	682.617	71.804	682.617	74.4155	682.617	73.9774	682.617	76.5686	682.617	76.2039	682.617	77.7849	682.617	77.5856	682.617	78.1056
707.52	84.9048	707.52	84.784	707.52	84.7891	707.52	84.4367	707.52	84.4553	707.52	83.9055	707.52	83.9531	707.52	83.2743	707.52	83.3663	707.52	82.6617	707.52	82.7983	707.52	82.1683	707.52	82.326	707.52	81.7918	707.52	81.9483	707.52	81.3961	707.52	81.5731	707.52	80.7658	707.52	81.0378	707.52	79.6599	707.52	80.1299	707.52	77.801	707.52	78.5949	707.52	74.8527	707.52	76.1574	707.52	71.0938	707.52	72.8993	707.52	71.1928	707.52	71.5926	707.52	74.7678	707.52	74.2367	707.52	77.3517	707.52	76.8803	707.52	78.703	707.52	78.4543	707.52	79.0428
732.422	85.9277	732.422	85.7624	732.422	85.8012	732.422	85.3165	732.422	85.397	732.422	84.6308	732.422	84.7578	732.422	83.7892	732.422	83.9677	732.422	82.9345	732.422	83.1673	732.422	82.2411	732.422	82.5277	732.422	81.7986	732.422	82.1352	732.422	81.4997	732.422	81.883	732.422	81.0885	732.422	81.533	732.422	80.2804	732.422	80.846	732.422	78.7943	732.422	79.6101	732.422	76.3173	732.422	77.599	732.422	72.7429	732.422	74.6917	732.422	70.9335	732.422	72.351	732.422	73.9658	732.422	74.0176	732.422	76.9136	732.422	76.8106	732.422	78.5839	732.422	78.5405	732.422	79.1084
757.324	86.475	757.324	86.2782	757.324	86.3744	757.324	85.7961	757.324	85.9673	757.324	85.0549	757.324	85.2586	757.324	84.1195	757.324	84.3016	757.324	83.1154	757.324	83.2469	757.324	82.2233	757.324	82.3492	757.324	81.599	757.324	81.8187	757.324	81.2333	757.324	81.5952	757.324	80.9033	757.324	81.3808	757.324	80.2855	757.324	80.8569	757.324	79.0606	757.324	79.7734	757.324	76.9229	757.324	77.9403	757.324	73.7779	757.324	75.405	757.324	71.8498	757.324	73.6061	757.324	74.3191	757.324	74.8972	757.324	77.1377	757.324	77.2118	757.324	78.7579	757.324	78.7432	757.324	79.2608
785.156	87.0419	785.156	86.906	785.156	86.8927	785.156	86.4815	785.156	86.4734	785.156	85.781	785.156	85.8077	785.156	84.8473	785.156	84.9292	785.156	83.7823	785.156	83.8953	785.156	82.7643	785.156	82.8157	785.156	81.9787	785.156	81.8636	785.156	81.4542	785.156	81.1857	785.156	80.9999	785.156	80.7215	785.156	80.313	785.156	80.1686	785.156	79.0556	785.156	79.1361	785.156	76.8071	785.156	77.2251	785.156	72.9803	785.156	74.0102	785.156	68.8723	785.156	70.2769	785.156	72.1902	785.156	72.0294	785.156	76.057	785.156	75.7417	785.156	78.0809	785.156	77.9164	785.156	78.6549
811.523	86.8299	811.523	86.6242	811.523	86.7639	811.523	86.16	811.523	86.4156	811.523	85.4442	811.523	85.7957	811.523	84.4911	811.523	84.9507	811.523	83.3611	811.523	83.969	811.523	82.204	811.523	82.9764	811.523	81.2399	811.523	82.1149	811.523	80.6014	811.523	81.4799	811.523	80.1684	811.523	81.0206	811.523	79.6289	811.523	80.5028	811.523	78.6262	811.523	79.5847	811.523	76.7824	811.523	77.9162	811.523	73.7441	811.523	75.3164	811.523	70.8344	811.523	72.9145	811.523	72.956	811.523	73.8859	811.523	76.2117	811.523	76.3765	811.523	78.0576	811.523	78.0409	811.523	78.6108
840.82	86.0838	840.82	85.9282	840.82	85.9272	840.82	85.4501	840.82	85.4827	840.82	84.6676	840.82	84.7784	840.82	83.6423	840.82	83.857	840.82	82.5033	840.82	82.8259	840.82	81.4742	840.82	81.9172	840.82	80.8213	840.82	81.4048	840.82	80.627	840.82	81.3066	840.82	80.6271	840.82	81.2951	840.82	80.3918	840.82	80.9648	840.82	79.5193	840.82	79.9801	840.82	77.5871	840.82	77.9956	840.82	73.9184	840.82	74.5544	840.82	68.2781	840.82	70.3939	840.82	70.7608	840.82	72.2307	840.82	75.3725	840.82	75.8703	840.82	77.6724	840.82	77.8448	840.82	78.4047
870.117	85.6516	870.117	85.4932	870.117	85.541	870.117	85.0648	870.117	85.1556	870.117	84.359	870.117	84.4894	870.117	83.3866	870.117	83.5458	870.117	82.2245	870.117	82.3683	870.117	81.0596	870.117	81.1151	870.117	80.1565	870.117	80.112	870.117	79.6883	870.117	79.6399	870.117	79.5473	870.117	79.549	870.117	79.3649	870.117	79.3777	870.117	78.7032	870.117	78.7167	870.117	77.1681	870.117	77.2454	870.117	74.3663	870.117	74.6151	870.117	70.1874	870.117	70.8763	870.117	69.214	870.117	70.2795	870.117	73.1264	870.117	73.7146	870.117	75.796	870.117	76.0499	870.117	76.7257
900.879	86.2175	900.879	86.0925	900.879	86.0547	900.879	85.6868	900.879	85.5939	900.879	84.9983	900.879	84.8247	900.879	84.0103	900.879	83.7469	900.879	82.7059	900.879	82.3993	900.879	81.1342	900.879	80.9074	900.879	79.5629	900.879	79.5515	900.879	78.5237	900.879	78.7389	900.879	78.2306	900.879	78.6076	900.879	78.1426	900.879	78.7054	900.879	77.5844	900.879	78.3913	900.879	76.0168	900.879	77.1487	900.879	72.6756	900.879	74.4386	900.879	66.9149	900.879	69.9311	900.879	69.934	900.879	70.0937	900.879	75.0522	900.879	74.7247	900.879	77.5204	900.879	77.3573	900.879	78.2091
933.105	85.9005	933.105	85.7322	933.105	85.7963	933.105	85.3035	933.105	85.4066	933.105	84.6238	933.105	84.721	933.105	83.7083	933.105	83.7347	933.105	82.5999	933.105	82.4658	933.105	81.3988	933.105	81.0208	933.105	80.2949	933.105	79.7021	933.105	79.5396	933.105	78.9395	933.105	79.2257	933.105	78.8015	933.105	79.0601	933.105	78.8144	933.105	78.5046	933.105	78.4149	933.105	76.9828	933.105	77.1156	933.105	73.7099	933.105	74.294	933.105	66.4503	933.105	68.9227	933.105	62.7424	933.105	66.6044	933.105	71.4874	933.105	72.1112	933.105	74.7837	933.105	74.9805	933.105	75.7654
965.332	85.5784	965.332	85.3726	965.332	85.502	965.332	84.8971	965.332	85.1335	965.332	84.1606	965.332	84.4638	965.332	83.1619	965.332	83.4815	965.332	81.9028	965.332	82.1779	965.332	80.4345	965.332	80.5767	965.332	78.9344	965.332	78.8352	965.332	77.7539	965.332	77.4434	965.332	77.2329	965.332	77.0224	965.332	77.2835	965.332	77.3333	965.332	77.3673	965.332	77.4659	965.332	76.8441	965.332	76.7466	965.332	75.0294	965.332	74.676	965.332	70.7693	965.332	70.5822	965.332	63.2287	965.332	66.4772	965.332	69.3898	965.332	70.5554	965.332	73.6017	965.332	73.8187	965.332	74.7852
1,000.49	85.2015	1,000.49	85.0394	1,000.49	85.0317	1,000.49	84.5541	1,000.49	84.545	1,000.49	83.7662	1,000.49	83.7751	1,000.49	82.7019	1,000.49	82.7487	1,000.49	81.3942	1,000.49	81.4724	1,000.49	79.8968	1,000.49	79.981	1,000.49	78.3615	1,000.49	78.4494	1,000.49	77.1765	1,000.49	77.2445	1,000.49	76.7603	1,000.49	76.6502	1,000.49	76.8828	1,000.49	76.484	1,000.49	76.8351	1,000.49	76.2599	1,000.49	76.0661	1,000.49	75.4851	1,000.49	74.1539	1,000.49	73.6582	1,000.49	70.4995	1,000.49	70.1843	1,000.49	66.0427	1,000.49	66.4354	1,000.49	69.2793	1,000.49	69.5738	1,000.49	72.8643	1,000.49	72.9289	1,000.49	73.9946
1,035.64	84.5958	1,035.64	84.4027	1,035.64	84.4933	1,035.64	83.9251	1,035.64	84.077	1,035.64	83.1643	1,035.64	83.3319	1,035.64	82.1125	1,035.64	82.2652	1,035.64	80.7683	1,035.64	80.9121	1,035.64	79.1714	1,035.64	79.32	1,035.64	77.4656	1,035.64	77.5802	1,035.64	76.0153	1,035.64	76.0132	1,035.64	75.3608	1,035.64	75.2238	1,035.64	75.5087	1,035.64	75.2979	1,035.64	75.6768	1,035.64	75.4376	1,035.64	75.0887	1,035.64	74.8524	1,035.64	73.1509	1,035.64	72.9733	1,035.64	69.0593	1,035.64	69.2353	1,035.64	64.6445	1,035.64	66.1342	1,035.64	69.513	1,035.64	70.0948	1,035.64	73.1043	1,035.64	73.2591	1,035.64	74.216
1,072.27	83.6724	1,072.27	83.5145	1,072.27	83.5354	1,072.27	83.0762	1,072.27	83.0964	1,072.27	82.3573	1,072.27	82.3739	1,072.27	81.3394	1,072.27	81.3908	1,072.27	80.0154	1,072.27	80.1308	1,072.27	78.4513	1,072.27	78.5646	1,072.27	76.8232	1,072.27	76.7662	1,072.27	75.3895	1,072.27	75.0389	1,072.27	74.4827	1,072.27	73.9257	1,072.27	74.3333	1,072.27	73.7423	1,072.27	74.5338	1,072.27	73.9433	1,072.27	74.2414	1,072.27	73.6245	1,072.27	72.7396	1,072.27	72.1046	1,072.27	69.3841	1,072.27	68.7877	1,072.27	65.363	1,072.27	65.1591	1,072.27	68.4895	1,072.27	68.599	1,072.27	71.948	1,072.27	72.0091	1,072.27	73.0656
1,108.89	82.9259	1,108.89	82.7978	1,108.89	82.7476	1,108.89	82.3765	1,108.89	82.2795	1,108.89	81.6934	1,108.89	81.5336	1,108.89	80.7591	1,108.89	80.4911	1,108.89	79.5573	1,108.89	79.1143	1,108.89	78.0658	1,108.89	77.3856	1,108.89	76.2931	1,108.89	75.377	1,108.89	74.4878	1,108.89	73.4174	1,108.89	73.4619	1,108.89	72.3125	1,108.89	73.668	1,108.89	72.6466	1,108.89	74.1666	1,108.89	73.5273	1,108.89	74.0129	1,108.89	73.6775	1,108.89	72.6106	1,108.89	72.2675	1,108.89	69.0969	1,108.89	68.4521	1,108.89	63.6278	1,108.89	63.0506	1,108.89	67.4947	1,108.89	67.3932	1,108.89	71.3086	1,108.89	71.1647	1,108.89	72.3458
1,148.44	82.5143	1,148.44	82.3978	1,148.44	82.2873	1,148.44	81.9513	1,148.44	81.7342	1,148.44	81.2115	1,148.44	80.9253	1,148.44	80.2472	1,148.44	79.9437	1,148.44	79.1197	1,148.44	78.7854	1,148.44	77.7962	1,148.44	77.3492	1,148.44	76.1608	1,148.44	75.5754	1,148.44	74.2646	1,148.44	73.6306	1,148.44	72.7107	1,148.44	72.0417	1,148.44	72.2524	1,148.44	71.46	1,148.44	72.5065	1,148.44	71.6926	1,148.44	72.4891	1,148.44	71.6606	1,148.44	71.3463	1,148.44	70.4063	1,148.44	68.0281	1,148.44	67.168	1,148.44	63.0532	1,148.44	62.818	1,148.44	67.5175	1,148.44	66.3711	1,148.44	71.217	1,148.44	70.4449	1,148.44	72.018
1,189.45	82.3363	1,189.45	82.1983	1,189.45	82.1435	1,189.45	81.7401	1,189.45	81.6377	1,189.45	80.9965	1,189.45	80.847	1,189.45	80.0083	1,189.45	79.7918	1,189.45	78.803	1,189.45	78.489	1,189.45	77.3702	1,189.45	76.9734	1,189.45	75.6697	1,189.45	75.2779	1,189.45	73.8176	1,189.45	73.4151	1,189.45	72.4456	1,189.45	71.6946	1,189.45	72.2999	1,189.45	71.1066	1,189.45	72.8429	1,189.45	71.6852	1,189.45	72.9087	1,189.45	71.9778	1,189.45	71.6804	1,189.45	70.9258	1,189.45	68.3311	1,189.45	67.6167	1,189.45	62.4266	1,189.45	61.8228	1,189.45	65.7445	1,189.45	66.052	1,189.45	70.2113	1,189.45	70.3726	1,189.45	71.5896
1,230.47	82.7379	1,230.47	82.5277	1,230.47	82.5846	1,230.47	82.0354	1,230.47	82.072	1,230.47	81.3586	1,230.47	81.28	1,230.47	80.5345	1,230.47	80.3011	1,230.47	79.5282	1,230.47	79.1802	1,230.47	78.2646	1,230.47	77.8773	1,230.47	76.6983	1,230.47	76.2874	1,230.47	74.912	1,230.47	74.398	1,230.47	73.2182	1,230.47	72.635	1,230.47	72.2854	1,230.47	71.8632	1,230.47	72.4424	1,230.47	72.0201	1,230.47	72.6496	1,230.47	71.9421	1,230.47	71.6246	1,230.47	70.6012	1,230.47	68.1749	1,230.47	66.9362	1,230.47	60.4075	1,230.47	60.7989	1,230.47	65.4722	1,230.47	66.0498	1,230.47	70.4779	1,230.47	70.499	1,230.47	71.8311
1,274.41	83.0512	1,274.41	82.8781	1,274.41	82.8533	1,274.41	82.3601	1,274.41	82.3111	1,274.41	81.5692	1,274.41	81.4871	1,274.41	80.573	1,274.41	80.4391	1,274.41	79.3908	1,274.41	79.1881	1,274.41	78.0429	1,274.41	77.7606	1,274.41	76.5465	1,274.41	76.2076	1,274.41	74.7657	1,274.41	74.4871	1,274.41	72.7105	1,274.41	72.6468	1,274.41	71.7258	1,274.41	71.5859	1,274.41	72.6522	1,274.41	72.0657	1,274.41	73.4278	1,274.41	72.7695	1,274.41	72.7856	1,274.41	72.2735	1,274.41	69.9722	1,274.41	69.3108	1,274.41	62.8066	1,274.41	60.0689	1,274.41	63.2486	1,274.41	63.3166	1,274.41	69.5554	1,274.41	69.7172	1,274.41	71.2229
1,319.82	83.9637	1,319.82	83.7325	1,319.82	83.8136	1,319.82	83.1264	1,319.82	83.2834	1,319.82	82.1885	1,319.82	82.3906	1,319.82	81.0201	1,319.82	81.1898	1,319.82	79.7133	1,319.82	79.7959	1,319.82	78.2391	1,319.82	78.3415	1,319.82	76.4579	1,319.82	76.743	1,319.82	74.2057	1,319.82	74.6798	1,319.82	71.5094	1,319.82	72.2872	1,319.82	69.6286	1,319.82	71.1097	1,319.82	70.2463	1,319.82	71.8103	1,319.82	71.5501	1,319.82	72.4527	1,319.82	71.7643	1,319.82	71.7998	1,319.82	69.9084	1,319.82	69.0109	1,319.82	64.7117	1,319.82	63.0457	1,319.82	63.2696	1,319.82	64.416	1,319.82	68.5549	1,319.82	69.1031	1,319.82	70.3251
1,366.7	84.394	1,366.7	84.2649	1,366.7	84.0382	1,366.7	83.666	1,366.7	83.248	1,366.7	82.6632	1,366.7	82.1209	1,366.7	81.3586	1,366.7	80.7091	1,366.7	79.8945	1,366.7	78.9936	1,366.7	78.3832	1,366.7	77.071	1,366.7	76.7332	1,366.7	75.1403	1,366.7	74.7544	1,366.7	73.0804	1,366.7	72.5789	1,366.7	70.6252	1,366.7	70.6562	1,366.7	68.5792	1,366.7	69.8866	1,366.7	68.6945	1,366.7	70.8022	1,366.7	69.5509	1,366.7	71.1094	1,366.7	69.2446	1,366.7	68.8458	1,366.7	66.7376	1,366.7	64.7377	1,366.7	58.5369	1,366.7	67.033	1,366.7	62.9227	1,366.7	70.2642	1,366.7	69.4798	1,366.7	71.2252
1,413.57	84.5758	1,413.57	84.3339	1,413.57	84.3848	1,413.57	83.6385	1,413.57	83.7484	1,413.57	82.4759	1,413.57	82.6884	1,413.57	80.9871	1,413.57	81.2924	1,413.57	79.4246	1,413.57	79.7394	1,413.57	77.7954	1,413.57	78.2667	1,413.57	75.9622	1,413.57	76.7486	1,413.57	74.1816	1,413.57	74.8364	1,413.57	72.4637	1,413.57	72.8765	1,413.57	70.2732	1,413.57	71.5894	1,413.57	68.954	1,413.57	71.1371	1,413.57	70.0556	1,413.57	71.7339	1,413.57	70.2529	1,413.57	72.0988	1,413.57	67.4653	1,413.57	70.4692	1,413.57	58.8258	1,413.57	64.8284	1,413.57	64.1865	1,413.57	55.0434	1,413.57	69.4439	1,413.57	66.6029	1,413.57	69.9353
1,463.38	85.1067	1,463.38	84.8741	1,463.38	84.7487	1,463.38	84.0718	1,463.38	83.8465	1,463.38	82.7806	1,463.38	82.5673	1,463.38	81.1547	1,463.38	81.1211	1,463.38	79.392	1,463.38	79.5114	1,463.38	77.6166	1,463.38	77.6225	1,463.38	75.7599	1,463.38	75.641	1,463.38	73.7856	1,463.38	73.8031	1,463.38	71.8339	1,463.38	71.9602	1,463.38	69.808	1,463.38	70.4693	1,463.38	68.5151	1,463.38	70.8203	1,463.38	69.8737	1,463.38	72.3332	1,463.38	71.1235	1,463.38	72.5831	1,463.38	69.4799	1,463.38	70.3135	1,463.38	61.6687	1,463.38	63.7669	1,463.38	62.7256	1,463.38	59.0174	1,463.38	69.2982	1,463.38	67.5305	1,463.38	70.2337
1,516.11	85.2512	1,516.11	84.9487	1,516.11	84.8712	1,516.11	84.1077	1,516.11	83.9471	1,516.11	82.9618	1,516.11	82.7611	1,516.11	81.5363	1,516.11	81.3913	1,516.11	79.7649	1,516.11	79.7499	1,516.11	77.952	1,516.11	77.8761	1,516.11	76.3401	1,516.11	76.0061	1,516.11	74.5942	1,516.11	74.3743	1,516.11	72.7656	1,516.11	72.739	1,516.11	71.1236	1,516.11	71.2475	1,516.11	69.1729	1,516.11	71.2775	1,516.11	69.405	1,516.11	72.4659	1,516.11	71.6054	1,516.11	73.0638	1,516.11	71.01	1,516.11	71.7614	1,516.11	65.0376	1,516.11	67.2867	1,516.11	55.1004	1,516.11	56.6564	1,516.11	67.1541	1,516.11	65.7175	1,516.11	69.0135
1,568.85	84.8083	1,568.85	84.579	1,568.85	84.5263	1,568.85	83.896	1,568.85	83.7326	1,568.85	82.8152	1,568.85	82.5392	1,568.85	81.3717	1,568.85	81.1424	1,568.85	79.6952	1,568.85	79.645	1,568.85	78.147	1,568.85	77.9596	1,568.85	76.7713	1,568.85	76.2095	1,568.85	75.1409	1,568.85	74.6541	1,568.85	73.3742	1,568.85	73.0281	1,568.85	71.99	1,568.85	71.289	1,568.85	70.7123	1,568.85	69.9696	1,568.85	69.8783	1,568.85	70.4817	1,568.85	70.9629	1,568.85	72.024	1,568.85	70.8059	1,568.85	71.7722	1,568.85	66.5604	1,568.85	67.9104	1,568.85	57.1055	1,568.85	58.5166	1,568.85	67.5927	1,568.85	67.6501	1,568.85	70.2436
1,624.51	84.0139	1,624.51	83.7139	1,624.51	83.7974	1,624.51	83.0069	1,624.51	83.0334	1,624.51	81.945	1,624.51	81.868	1,624.51	80.502	1,624.51	80.5115	1,624.51	78.8035	1,624.51	78.9525	1,624.51	77.2922	1,624.51	77.0047	1,624.51	76.0208	1,624.51	75.0842	1,624.51	74.5433	1,624.51	73.73	1,624.51	73.1867	1,624.51	72.1	1,624.51	72.4536	1,624.51	70.1605	1,624.51	71.8149	1,624.51	68.9468	1,624.51	70.9774	1,624.51	68.9653	1,624.51	71.0921	1,624.51	70.9323	1,624.51	70.9669	1,624.51	71.8244	1,624.51	67.0601	1,624.51	69.0325	1,624.51	55.2083	1,624.51	57.9841	1,624.51	67.1077	1,624.51	64.0513	1,624.51	68.5278
1,681.64	83.8894	1,681.64	83.5334	1,681.64	83.7432	1,681.64	82.737	1,681.64	83.1585	1,681.64	81.5871	1,681.64	82.1561	1,681.64	80.2073	1,681.64	80.6819	1,681.64	78.7359	1,681.64	79.0608	1,681.64	77.2099	1,681.64	77.6954	1,681.64	75.6832	1,681.64	76.2856	1,681.64	73.9308	1,681.64	74.592	1,681.64	71.9009	1,681.64	72.3292	1,681.64	70.7134	1,681.64	68.9706	1,681.64	70.074	1,681.64	67.5206	1,681.64	69.5855	1,681.64	68.4438	1,681.64	70.6414	1,681.64	70.7584	1,681.64	71.2291	1,681.64	72.0557	1,681.64	68.3417	1,681.64	70.4446	1,681.64	57.5687	1,681.64	65.1564	1,681.64	64.9131	1,681.64	63.9591	1,681.64	67.4053
1,741.7	84.7292	1,741.7	84.486	1,741.7	84.5441	1,741.7	83.7144	1,741.7	84.0827	1,741.7	82.5005	1,741.7	83.2569	1,741.7	81.0881	1,741.7	81.8778	1,741.7	79.7851	1,741.7	80.2561	1,741.7	78.6027	1,741.7	79.0853	1,741.7	77.2944	1,741.7	77.9598	1,741.7	75.6023	1,741.7	76.1192	1,741.7	73.2053	1,741.7	73.8401	1,741.7	71.0203	1,741.7	71.0181	1,741.7	69.6617	1,741.7	69.0208	1,741.7	68.3593	1,741.7	68.8648	1,741.7	69.4694	1,741.7	70.9909	1,741.7	70.1738	1,741.7	72.4622	1,741.7	68.2077	1,741.7	70.1201	1,741.7	60.5568	1,741.7	65.3935	1,741.7	66.6686	1,741.7	67.7129	1,741.7	69.8708
1,803.22	84.3631	1,803.22	84.1673	1,803.22	84.2119	1,803.22	83.5909	1,803.22	83.7872	1,803.22	82.6639	1,803.22	83.0613	1,803.22	81.5277	1,803.22	81.8872	1,803.22	80.3348	1,803.22	80.2684	1,803.22	79.0275	1,803.22	78.9047	1,803.22	77.7973	1,803.22	78.1133	1,803.22	76.7084	1,803.22	76.5531	1,803.22	74.8667	1,803.22	73.7337	1,803.22	72.4968	1,803.22	70.9169	1,803.22	70.8928	1,803.22	69.7973	1,803.22	69.0016	1,803.22	69.5842	1,803.22	70.0018	1,803.22	71.2785	1,803.22	71.3035	1,803.22	72.5861	1,803.22	69.5162	1,803.22	69.7957	1,803.22	62.5019	1,803.22	63.5262	1,803.22	65.799	1,803.22	66.5367	1,803.22	69.2789
1,866.21	84.7077	1,866.21	84.4784	1,866.21	84.4196	1,866.21	83.8682	1,866.21	83.7734	1,866.21	82.9674	1,866.21	82.9423	1,866.21	81.6075	1,866.21	81.6531	1,866.21	79.7	1,866.21	79.8164	1,866.21	77.4489	1,866.21	78.2471	1,866.21	75.7474	1,866.21	77.1223	1,866.21	74.8821	1,866.21	75.2775	1,866.21	73.3206	1,866.21	72.4831	1,866.21	71.1795	1,866.21	69.9697	1,866.21	69.2059	1,866.21	69.466	1,866.21	66.5522	1,866.21	68.8047	1,866.21	67.6244	1,866.21	68.5371	1,866.21	69.8259	1,866.21	70.7146	1,866.21	68.3373	1,866.21	69.7023	1,866.21	61.9865	1,866.21	64.272	1,866.21	63.535	1,866.21	64.2727	1,866.21	67.2309
1,932.13	85.3257	1,932.13	85.0748	1,932.13	85.0232	1,932.13	84.3369	1,932.13	84.2513	1,932.13	83.0869	1,932.13	83.2421	1,932.13	81.4545	1,932.13	81.8473	1,932.13	79.5896	1,932.13	80.0891	1,932.13	77.5255	1,932.13	78.3701	1,932.13	75.8607	1,932.13	76.9097	1,932.13	74.8223	1,932.13	75.5861	1,932.13	72.8931	1,932.13	73.7856	1,932.13	69.8177	1,932.13	71.0519	1,932.13	68.5774	1,932.13	70.6254	1,932.13	68.013	1,932.13	70.0796	1,932.13	67.8341	1,932.13	67.5268	1,932.13	70.2216	1,932.13	67.9421	1,932.13	68.5401	1,932.13	68.501	1,932.13	62.313	1,932.13	65.5191	1,932.13	64.9548	1,932.13	64.0312	1,932.13	66.9511
1,999.51	85.25	1,999.51	84.9393	1,999.51	85.0133	1,999.51	84.3627	1,999.51	84.263	1,999.51	83.4032	1,999.51	83.1685	1,999.51	81.8374	1,999.51	81.8092	1,999.51	80.1759	1,999.51	80.401	1,999.51	78.5879	1,999.51	78.6298	1,999.51	76.6588	1,999.51	76.5577	1,999.51	75.3689	1,999.51	75.4766	1,999.51	73.5085	1,999.51	75.1281	1,999.51	69.8474	1,999.51	73.0355	1,999.51	68.5225	1,999.51	70.9259	1,999.51	70.2644	1,999.51	70.2709	1,999.51	70.651	1,999.51	68.9248	1,999.51	71.3371	1,999.51	69.5927	1,999.51	69.9061	1,999.51	68.987	1,999.51	61.4705	1,999.51	64.4299	1,999.51	67.1886	1,999.51	64.7183	1,999.51	68.273
2,069.82	84.8105	2,069.82	84.5866	2,069.82	84.5502	2,069.82	84.253	2,069.82	83.787	2,069.82	83.5364	2,069.82	82.7293	2,069.82	82.1162	2,069.82	81.7479	2,069.82	80.4109	2,069.82	80.4767	2,069.82	78.696	2,069.82	78.1102	2,069.82	77.0238	2,069.82	76.3354	2,069.82	76.3763	2,069.82	75.5483	2,069.82	75.8393	2,069.82	73.8879	2,069.82	73.2403	2,069.82	71.626	2,069.82	70.8124	2,069.82	69.4936	2,069.82	69.9511	2,069.82	68.675	2,069.82	70.4643	2,069.82	69.5945	2,069.82	72.0866	2,069.82	70.8841	2,069.82	71.6783	2,069.82	69.8807	2,069.82	64.9556	2,069.82	63.348	2,069.82	64.2722	2,069.82	62.6178	2,069.82	66.283
2,143.07	84.3575	2,143.07	84.2073	2,143.07	84.1205	2,143.07	83.464	2,143.07	83.9895	2,143.07	82.7101	2,143.07	83.1201	2,143.07	81.8065	2,143.07	81.9354	2,143.07	80.3362	2,143.07	80.8029	2,143.07	77.8946	2,143.07	78.3273	2,143.07	75.6534	2,143.07	76.166	2,143.07	75.5646	2,143.07	75.6039	2,143.07	75.5985	2,143.07	73.4293	2,143.07	72.7585	2,143.07	70.6102	2,143.07	69.5892	2,143.07	69.551	2,143.07	67.8008	2,143.07	69.6139	2,143.07	66.6207	2,143.07	69.0785	2,143.07	68.6139	2,143.07	71.1448	2,143.07	69.999	2,143.07	70.667	2,143.07	63.8578	2,143.07	67.0998	2,143.07	67.0369	2,143.07	64.1277	2,143.07	69.4745
2,219.24	84.2294	2,219.24	84.2171	2,219.24	84.3386	2,219.24	83.7953	2,219.24	83.8845	2,219.24	82.7022	2,219.24	82.9535	2,219.24	81.9099	2,219.24	82.0734	2,219.24	81.2902	2,219.24	80.9172	2,219.24	79.6384	2,219.24	79.5567	2,219.24	77.2622	2,219.24	77.3778	2,219.24	75.4694	2,219.24	75.2085	2,219.24	74.7173	2,219.24	73.2952	2,219.24	73.3275	2,219.24	70.9699	2,219.24	71.5094	2,219.24	69.8162	2,219.24	69.4687	2,219.24	69.6866	2,219.24	66.4962	2,219.24	67.4103	2,219.24	69.1167	2,219.24	68.9557	2,219.24	71.0921	2,219.24	70.2527	2,219.24	64.9381	2,219.24	65.0362	2,219.24	63.0184	2,219.24	58.2189	2,219.24	67.0052
2,296.88	83.7817	2,296.88	83.6829	2,296.88	83.4626	2,296.88	83.1919	2,296.88	82.9434	2,296.88	82.696	2,296.88	82.3176	2,296.88	81.8656	2,296.88	81.2061	2,296.88	80.3665	2,296.88	79.699	2,296.88	78.6748	2,296.88	78.0814	2,296.88	77.0291	2,296.88	75.7288	2,296.88	75.2888	2,296.88	73.9552	2,296.88	73.3296	2,296.88	73.5201	2,296.88	71.2544	2,296.88	72.653	2,296.88	69.8347	2,296.88	69.4786	2,296.88	70.1258	2,296.88	68.1552	2,296.88	63.9716	2,296.88	66.6769	2,296.88	67.7222	2,296.88	68.0061	2,296.88	71.1083	2,296.88	70.5092	2,296.88	66.4271	2,296.88	65.575	2,296.88	50.0518	2,296.88	57.8936	2,296.88	62.3616
2,378.91	84.0076	2,378.91	83.9773	2,378.91	83.951	2,378.91	83.4939	2,378.91	83.4809	2,378.91	82.7271	2,378.91	82.6124	2,378.91	81.7346	2,378.91	81.6752	2,378.91	80.072	2,378.91	80.3178	2,378.91	78.3501	2,378.91	78.3438	2,378.91	76.457	2,378.91	76.388	2,378.91	74.0724	2,378.91	74.583	2,378.91	72.6308	2,378.91	73.574	2,378.91	71.8017	2,378.91	72.1951	2,378.91	67.5692	2,378.91	69.6791	2,378.91	68.4551	2,378.91	68.0592	2,378.91	70.0307	2,378.91	65.9448	2,378.91	64.248	2,378.91	66.321	2,378.91	70.5272	2,378.91	68.2644	2,378.91	69.611	2,378.91	66.0016	2,378.91	59.5937	2,378.91	54.4561	2,378.91	57.5103
2,462.4	83.9741	2,462.4	83.9248	2,462.4	83.7843	2,462.4	83.6807	2,462.4	83.4249	2,462.4	83.0951	2,462.4	83.0399	2,462.4	82.1191	2,462.4	81.8291	2,462.4	80.4937	2,462.4	80.1856	2,462.4	79.0912	2,462.4	78.7007	2,462.4	77.4505	2,462.4	76.6692	2,462.4	74.3107	2,462.4	73.5991	2,462.4	71.9139	2,462.4	71.9357	2,462.4	71.0359	2,462.4	71.0662	2,462.4	67.6229	2,462.4	68.3856	2,462.4	67.7749	2,462.4	68.0681	2,462.4	67.7561	2,462.4	68.6686	2,462.4	66.0695	2,462.4	65.7594	2,462.4	68.9647	2,462.4	68.1596	2,462.4	67.7878	2,462.4	65.9695	2,462.4	59.4477	2,462.4	63.3692	2,462.4	61.5156
2,548.83	82.1508	2,548.83	82.2846	2,548.83	82.1355	2,548.83	82.1888	2,548.83	82.3484	2,548.83	81.9136	2,548.83	81.9846	2,548.83	81.0411	2,548.83	81.2507	2,548.83	79.8593	2,548.83	79.9372	2,548.83	78.173	2,548.83	78.2282	2,548.83	76.4871	2,548.83	76.558	2,548.83	74.584	2,548.83	73.4592	2,548.83	72.3672	2,548.83	70.5198	2,548.83	71.9206	2,548.83	70.0079	2,548.83	70.4047	2,548.83	67.6631	2,548.83	68.4913	2,548.83	65.9591	2,548.83	69.222	2,548.83	67.3715	2,548.83	65.9027	2,548.83	64.8628	2,548.83	67.5103	2,548.83	66.8264	2,548.83	65.2312	2,548.83	67.0123	2,548.83	62.0972	2,548.83	54.2372	2,548.83	62.8019
2,639.65	82.4445	2,639.65	82.6178	2,639.65	82.7774	2,639.65	82.96	2,639.65	83.0692	2,639.65	82.8927	2,639.65	82.9544	2,639.65	82.1974	2,639.65	82.3216	2,639.65	80.6558	2,639.65	80.9739	2,639.65	78.5514	2,639.65	78.9678	2,639.65	76.604	2,639.65	76.9435	2,639.65	74.5798	2,639.65	74.9718	2,639.65	71.783	2,639.65	72.6147	2,639.65	69.8805	2,639.65	71.1619	2,639.65	68.9699	2,639.65	70.0627	2,639.65	68.9796	2,639.65	68.1321	2,639.65	69.077	2,639.65	68.3572	2,639.65	66.7579	2,639.65	67.3063	2,639.65	67.8619	2,639.65	67.2182	2,639.65	66.5505	2,639.65	68.1965	2,639.65	59.7861	2,639.65	62.1616	2,639.65	60.9898
2,731.93	82.7069	2,731.93	82.915	2,731.93	82.8279	2,731.93	82.9747	2,731.93	82.9154	2,731.93	82.6834	2,731.93	82.4755	2,731.93	81.7576	2,731.93	81.582	2,731.93	80.0884	2,731.93	79.9657	2,731.93	77.8877	2,731.93	77.6126	2,731.93	75.7179	2,731.93	75.3835	2,731.93	74.0483	2,731.93	73.4885	2,731.93	71.4537	2,731.93	71.7424	2,731.93	69.7704	2,731.93	70.3727	2,731.93	69.2282	2,731.93	69.0106	2,731.93	67.7922	2,731.93	67.6653	2,731.93	68.7656	2,731.93	67.7421	2,731.93	66.4133	2,731.93	66.4006	2,731.93	67.0173	2,731.93	67.2635	2,731.93	66.6442	2,731.93	67.1367	2,731.93	59.7755	2,731.93	60.496	2,731.93	59.0278
2,828.61	83.1667	2,828.61	82.988	2,828.61	83.1285	2,828.61	82.6797	2,828.61	82.7566	2,828.61	82.0007	2,828.61	82.2772	2,828.61	80.8246	2,828.61	80.9429	2,828.61	78.8017	2,828.61	79.2532	2,828.61	76.5204	2,828.61	77.146	2,828.61	74.372	2,828.61	74.6526	2,828.61	71.7387	2,828.61	72.4096	2,828.61	69.0206	2,828.61	70.3715	2,828.61	66.4827	2,828.61	68.8126	2,828.61	64.7678	2,828.61	67.1138	2,828.61	66.2314	2,828.61	66.2322	2,828.61	66.6413	2,828.61	69.2739	2,828.61	64.9123	2,828.61	67.5129	2,828.61	66.1056	2,828.61	66.6587	2,828.61	67.1116	2,828.61	66.3869	2,828.61	59.1282	2,828.61	63.1111	2,828.61	54.8561
2,928.22	83.3506	2,928.22	83.3937	2,928.22	83.4599	2,928.22	83.2789	2,928.22	83.374	2,928.22	82.8045	2,928.22	82.74	2,928.22	81.7046	2,928.22	81.7569	2,928.22	80.194	2,928.22	80.1361	2,928.22	77.98	2,928.22	78.0578	2,928.22	75.6581	2,928.22	75.6758	2,928.22	73.1067	2,928.22	73.2468	2,928.22	70.4821	2,928.22	71.0518	2,928.22	69.5853	2,928.22	69.161	2,928.22	68.3734	2,928.22	67.9865	2,928.22	64.1182	2,928.22	64.6987	2,928.22	67.5262	2,928.22	66.1008	2,928.22	67.0023	2,928.22	67.2619	2,928.22	64.6863	2,928.22	66.1522	2,928.22	64.6288	2,928.22	65.9794	2,928.22	61.4899	2,928.22	60.9058	2,928.22	62.2826
3,030.76	83.4429	3,030.76	83.4295	3,030.76	83.5198	3,030.76	83.5588	3,030.76	83.4901	3,030.76	83.0719	3,030.76	83.0982	3,030.76	81.8148	3,030.76	82.2282	3,030.76	80.079	3,030.76	80.5459	3,030.76	77.6896	3,030.76	78.0747	3,030.76	75.0604	3,030.76	75.6374	3,030.76	72.5175	3,030.76	73.5494	3,030.76	70.0152	3,030.76	70.7111	3,030.76	69.1313	3,030.76	68.5019	3,030.76	68.4553	3,030.76	67.8571	3,030.76	67.0575	3,030.76	66.7937	3,030.76	68.2551	3,030.76	67.8635	3,030.76	67.6528	3,030.76	68.4932	3,030.76	66.7018	3,030.76	66.7605	3,030.76	66.0801	3,030.76	66.921	3,030.76	55.2664	3,030.76	60.5676	3,030.76	59.9683
3,137.7	83.7356	3,137.7	83.632	3,137.7	83.8124	3,137.7	83.5892	3,137.7	83.8048	3,137.7	83.0218	3,137.7	83.3625	3,137.7	81.6213	3,137.7	81.9922	3,137.7	79.5875	3,137.7	80.0915	3,137.7	77.3698	3,137.7	77.7127	3,137.7	74.942	3,137.7	75.4034	3,137.7	72.6648	3,137.7	73.3858	3,137.7	70.9735	3,137.7	71.2795	3,137.7	68.4154	3,137.7	69.3386	3,137.7	68.8162	3,137.7	67.8345	3,137.7	65.5876	3,137.7	67.0757	3,137.7	66.2558	3,137.7	66.1746	3,137.7	67.8218	3,137.7	66.8513	3,137.7	65.5934	3,137.7	66.1014	3,137.7	67.5745	3,137.7	67.9771	3,137.7	63.847	3,137.7	59.295	3,137.7	62.5469
3,249.02	84.1001	3,249.02	84.2698	3,249.02	84.0323	3,249.02	83.876	3,249.02	84.082	3,249.02	82.9553	3,249.02	83.145	3,249.02	81.047	3,249.02	81.5806	3,249.02	79.1002	3,249.02	79.6041	3,249.02	77.2644	3,249.02	77.3168	3,249.02	74.9791	3,249.02	75.3886	3,249.02	72.7748	3,249.02	73.6724	3,249.02	70.7383	3,249.02	72.0255	3,249.02	69.0381	3,249.02	70.1199	3,249.02	67.4932	3,249.02	68.4232	3,249.02	66.4804	3,249.02	66.3506	3,249.02	66.8618	3,249.02	66.8018	3,249.02	69.1914	3,249.02	69.235	3,249.02	66.2905	3,249.02	66.2436	3,249.02	68.1391	3,249.02	67.9876	3,249.02	59.8946	3,249.02	63.7286	3,249.02	56.4147
3,363.28	84.7398	3,363.28	84.5192	3,363.28	84.6881	3,363.28	84.032	3,363.28	84.1359	3,363.28	82.7864	3,363.28	83.0319	3,363.28	81.352	3,363.28	81.5041	3,363.28	79.5042	3,363.28	79.5522	3,363.28	77.6279	3,363.28	77.9992	3,363.28	75.9423	3,363.28	76.1271	3,363.28	73.8319	3,363.28	73.7573	3,363.28	72.3625	3,363.28	71.4718	3,363.28	70.3636	3,363.28	70.3621	3,363.28	66.9734	3,363.28	68.2646	3,363.28	68.4852	3,363.28	67.6205	3,363.28	65.925	3,363.28	65.9181	3,363.28	68.9922	3,363.28	68.583	3,363.28	67.3588	3,363.28	66.753	3,363.28	68.3041	3,363.28	67.5518	3,363.28	60.5783	3,363.28	64.1662	3,363.28	57.5282
3,481.93	84.6857	3,481.93	84.4926	3,481.93	84.8372	3,481.93	84.4748	3,481.93	84.3896	3,481.93	83.6452	3,481.93	83.778	3,481.93	82.3721	3,481.93	82.3614	3,481.93	80.3497	3,481.93	80.6911	3,481.93	78.5004	3,481.93	78.8487	3,481.93	76.0124	3,481.93	76.424	3,481.93	73.9426	3,481.93	74.4452	3,481.93	72.2325	3,481.93	71.9854	3,481.93	70.0473	3,481.93	70.0176	3,481.93	68.2883	3,481.93	67.5689	3,481.93	65.9179	3,481.93	67.7271	3,481.93	67.5577	3,481.93	67.4711	3,481.93	69.4132	3,481.93	69.0082	3,481.93	67.8512	3,481.93	67.4069	3,481.93	67.1647	3,481.93	67.8596	3,481.93	60.8677	3,481.93	60.9865	3,481.93	59.0231
3,604.98	85.0864	3,604.98	85.1286	3,604.98	84.7654	3,604.98	84.7336	3,604.98	84.8865	3,604.98	84.4327	3,604.98	84.2484	3,604.98	82.8368	3,604.98	82.9852	3,604.98	81.4585	3,604.98	81.3168	3,604.98	80.0383	3,604.98	79.4762	3,604.98	77.4083	3,604.98	77.6092	3,604.98	75.0922	3,604.98	75.2039	3,604.98	72.3614	3,604.98	73.4472	3,604.98	70.4067	3,604.98	71.1066	3,604.98	68.0133	3,604.98	69.4257	3,604.98	66.7258	3,604.98	67.5355	3,604.98	65.6351	3,604.98	67.5797	3,604.98	69.448	3,604.98	70.6725	3,604.98	67.1397	3,604.98	68.3235	3,604.98	68.394	3,604.98	68.7757	3,604.98	61.8561	3,604.98	62.7506	3,604.98	60.6547
3,732.42	85.1314	3,732.42	85.105	3,732.42	84.8757	3,732.42	84.4705	3,732.42	84.7681	3,732.42	83.6957	3,732.42	83.6973	3,732.42	82.6416	3,732.42	82.6337	3,732.42	81.1654	3,732.42	80.9097	3,732.42	79.7912	3,732.42	79.5612	3,732.42	78.5419	3,732.42	78.0715	3,732.42	76.0717	3,732.42	75.229	3,732.42	73.3643	3,732.42	72.8895	3,732.42	70.3404	3,732.42	70.8228	3,732.42	69.7621	3,732.42	69.554	3,732.42	68.5088	3,732.42	66.8983	3,732.42	65.8551	3,732.42	65.662	3,732.42	69.2731	3,732.42	68.6778	3,732.42	67.9158	3,732.42	68.6652	3,732.42	68.9521	3,732.42	68.8143	3,732.42	62.3897	3,732.42	63.8893	3,732.42	59.8546
3,864.26	85.8116	3,864.26	85.5225	3,864.26	85.7263	3,864.26	84.7521	3,864.26	84.4769	3,864.26	82.8986	3,864.26	83.1391	3,864.26	82.7949	3,864.26	82.5585	3,864.26	81.711	3,864.26	81.965	3,864.26	80.4205	3,864.26	80.8219	3,864.26	79.213	3,864.26	78.8039	3,864.26	76.1556	3,864.26	76.3267	3,864.26	74.2735	3,864.26	74.1521	3,864.26	71.2773	3,864.26	70.8663	3,864.26	70.1773	3,864.26	70.3254	3,864.26	67.9984	3,864.26	69.4889	3,864.26	68.3937	3,864.26	69.7121	3,864.26	67.6344	3,864.26	68.2939	3,864.26	68.9359	3,864.26	69.3273	3,864.26	69.2439	3,864.26	69.1747	3,864.26	63.1409	3,864.26	64.1204	3,864.26	59.6767
4,000.49	84.5604	4,000.49	84.1955	4,000.49	84.0938	4,000.49	83.6853	4,000.49	83.5117	4,000.49	83.1452	4,000.49	82.9834	4,000.49	81.9101	4,000.49	82.3191	4,000.49	81.6532	4,000.49	81.3348	4,000.49	79.9764	4,000.49	79.3798	4,000.49	76.6037	4,000.49	77.4161	4,000.49	73.7327	4,000.49	74.4453	4,000.49	71.6808	4,000.49	72.4547	4,000.49	70.3474	4,000.49	69.9171	4,000.49	69.5488	4,000.49	68.4245	4,000.49	66.484	4,000.49	66.1078	4,000.49	68.4467	4,000.49	67.6098	4,000.49	67.9608	4,000.49	68.8401	4,000.49	67.8697	4,000.49	68.2246	4,000.49	66.6785	4,000.49	66.6631	4,000.49	55.506	4,000.49	62.8748	4,000.49	53.1933
4,141.11	84.3064	4,141.11	84.16	4,141.11	83.3732	4,141.11	83.1104	4,141.11	83.381	4,141.11	83.5648	4,141.11	82.8885	4,141.11	82.9311	4,141.11	82.1115	4,141.11	82.1263	4,141.11	81.1986	4,141.11	80.6424	4,141.11	79.7367	4,141.11	78.2674	4,141.11	77.5263	4,141.11	74.8755	4,141.11	75.1588	4,141.11	71.9832	4,141.11	72.3817	4,141.11	69.8388	4,141.11	69.8002	4,141.11	67.822	4,141.11	68.9936	4,141.11	66.7567	4,141.11	67.5523	4,141.11	66.6476	4,141.11	64.3643	4,141.11	68.6001	4,141.11	67.8635	4,141.11	68.553	4,141.11	69.1539	4,141.11	67.2806	4,141.11	66.5497	4,141.11	64.6474	4,141.11	63.8067	4,141.11	51.415
4,287.6	84.1383	4,287.6	83.1238	4,287.6	84.1144	4,287.6	82.32	4,287.6	82.4633	4,287.6	81.331	4,287.6	81.7835	4,287.6	82.0784	4,287.6	82.1778	4,287.6	81.4614	4,287.6	81.9408	4,287.6	79.7712	4,287.6	80.1368	4,287.6	77.4488	4,287.6	77.6423	4,287.6	75.1748	4,287.6	74.954	4,287.6	72.3676	4,287.6	71.3452	4,287.6	69.2122	4,287.6	70.0168	4,287.6	67.9373	4,287.6	67.6632	4,287.6	66.1205	4,287.6	66.918	4,287.6	68.0026	4,287.6	65.1419	4,287.6	69.7121	4,287.6	66.5239	4,287.6	69.6031	4,287.6	68.7501	4,287.6	66.8558	4,287.6	66.5035	4,287.6	64.6656	4,287.6	62.594	4,287.6	46.5555
4,438.48	83.7632	4,438.48	83.4572	4,438.48	83.4179	4,438.48	82.2913	4,438.48	82.0769	4,438.48	82.2365	4,438.48	81.9997	4,438.48	81.9317	4,438.48	82.6498	4,438.48	82.059	4,438.48	82.1694	4,438.48	80.0735	4,438.48	79.7696	4,438.48	76.6804	4,438.48	77.3114	4,438.48	75.7646	4,438.48	74.0836	4,438.48	72.3257	4,438.48	71.8291	4,438.48	70.7398	4,438.48	69.406	4,438.48	67.9498	4,438.48	66.8693	4,438.48	68.9066	4,438.48	66.2986	4,438.48	65.9277	4,438.48	65.9349	4,438.48	68.2834	4,438.48	66.4253	4,438.48	68.7331	4,438.48	69.2313	4,438.48	67.4491	4,438.48	66.8969	4,438.48	58.4148	4,438.48	66.0111	4,438.48	58.7365
4,595.21	83.1541	4,595.21	83.0726	4,595.21	81.8307	4,595.21	81.9473	4,595.21	82.0459	4,595.21	83.2803	4,595.21	82.0903	4,595.21	83.6492	4,595.21	81.9511	4,595.21	81.5699	4,595.21	79.7897	4,595.21	79.4591	4,595.21	78.4046	4,595.21	76.9988	4,595.21	76.0541	4,595.21	72.1683	4,595.21	72.1874	4,595.21	69.562	4,595.21	69.539	4,595.21	68.0672	4,595.21	67.7615	4,595.21	64.8011	4,595.21	66.2385	4,595.21	64.5347	4,595.21	64.9068	4,595.21	65.2505	4,595.21	65.8199	4,595.21	66.396	4,595.21	65.7921	4,595.21	68.4739	4,595.21	68.7216	4,595.21	66.0035	4,595.21	65.845	4,595.21	64.0355	4,595.21	63.0737	4,595.21	60.5207
4,756.35	83.4153	4,756.35	82.2043	4,756.35	83.6274	4,756.35	82.1686	4,756.35	82.2331	4,756.35	81.6419	4,756.35	82.8888	4,756.35	81.886	4,756.35	82.9669	4,756.35	81.0469	4,756.35	82.5179	4,756.35	79.0249	4,756.35	79.6048	4,756.35	75.0899	4,756.35	75.9995	4,756.35	73.9294	4,756.35	74.0869	4,756.35	71.0957	4,756.35	71.6023	4,756.35	67.7132	4,756.35	68.5379	4,756.35	63.8662	4,756.35	65.6559	4,756.35	64.8294	4,756.35	65.333	4,756.35	65.4384	4,756.35	64.6037	4,756.35	67.4216	4,756.35	67.2389	4,756.35	68.0455	4,756.35	68.6294	4,756.35	65.4749	4,756.35	65.5707	4,756.35	64.3355	4,756.35	63.0241	4,756.35	45.2372
4,924.8	83.55	4,924.8	83.1314	4,924.8	82.2079	4,924.8	81.4351	4,924.8	82.2772	4,924.8	82.3954	4,924.8	82.1503	4,924.8	82.1722	4,924.8	82.8625	4,924.8	81.6777	4,924.8	81.2238	4,924.8	79.0189	4,924.8	78.7589	4,924.8	76.1586	4,924.8	76.4984	4,924.8	74.8424	4,924.8	73.6315	4,924.8	72.1669	4,924.8	71.7466	4,924.8	69.4433	4,924.8	68.5953	4,924.8	66.0597	4,924.8	66.3735	4,924.8	67.0237	4,924.8	65.8817	4,924.8	61.9182	4,924.8	65.7615	4,924.8	67.0134	4,924.8	64.2826	4,924.8	67.992	4,924.8	68.3976	4,924.8	65.84	4,924.8	66.8187	4,924.8	60.3676	4,924.8	63.5616	4,924.8	59.1363
5,097.66	83.1041	5,097.66	82.3161	5,097.66	82.8853	5,097.66	83.0024	5,097.66	81.9126	5,097.66	83.2676	5,097.66	82.6827	5,097.66	83.0649	5,097.66	81.9113	5,097.66	80.8304	5,097.66	80.0544	5,097.66	78.6018	5,097.66	78.3456	5,097.66	76.7414	5,097.66	75.7862	5,097.66	73.4811	5,097.66	73.5227	5,097.66	70.2724	5,097.66	71.1091	5,097.66	68.2721	5,097.66	68.2166	5,097.66	65.92	5,097.66	65.4028	5,097.66	64.5678	5,097.66	62.9547	5,097.66	65.6777	5,097.66	64.3369	5,097.66	64.6373	5,097.66	66.9817	5,097.66	69.3459	5,097.66	68.1638	5,097.66	66.7894	5,097.66	66.3404	5,097.66	62.0174	5,097.66	62.0224	5,097.66	60.6637
5,277.83	83.617	5,277.83	83.7194	5,277.83	83.1964	5,277.83	82.9974	5,277.83	83.2799	5,277.83	83.0453	5,277.83	83.0946	5,277.83	82.3364	5,277.83	82.6096	5,277.83	81.0761	5,277.83	81.0187	5,277.83	79.1406	5,277.83	78.7506	5,277.83	76.6887	5,277.83	76.6327	5,277.83	74.4278	5,277.83	74.5493	5,277.83	71.5065	5,277.83	72.2561	5,277.83	68.9509	5,277.83	69.5418	5,277.83	66.5889	5,277.83	66.5439	5,277.83	64.7638	5,277.83	64.6058	5,277.83	64.3801	5,277.83	62.6399	5,277.83	65.2508	5,277.83	65.9835	5,277.83	68.5425	5,277.83	67.9962	5,277.83	65.3554	5,277.83	66.0028	5,277.83	59.5324	5,277.83	63.1985	5,277.83	55.7303
5,463.87	83.731	5,463.87	83.4149	5,463.87	83.1221	5,463.87	82.9792	5,463.87	82.8271	5,463.87	82.8407	5,463.87	82.4771	5,463.87	81.8119	5,463.87	81.8699	5,463.87	80.8385	5,463.87	80.3534	5,463.87	79.3074	5,463.87	79.2498	5,463.87	77.3441	5,463.87	77.5116	5,463.87	74.9346	5,463.87	75.154	5,463.87	73.0744	5,463.87	72.6487	5,463.87	70.6406	5,463.87	69.4212	5,463.87	68.6008	5,463.87	66.4112	5,463.87	66.8404	5,463.87	65.3423	5,463.87	65.9562	5,463.87	62.3984	5,463.87	67.815	5,463.87	66.0802	5,463.87	68.8299	5,463.87	67.53	5,463.87	66.2632	5,463.87	66.3271	5,463.87	58.5915	5,463.87	62.2251	5,463.87	60.3251
5,657.23	82.7465	5,657.23	83.1796	5,657.23	83.6729	5,657.23	83.9978	5,657.23	83.8308	5,657.23	82.7863	5,657.23	82.874	5,657.23	81.3546	5,657.23	81.1537	5,657.23	80.5388	5,657.23	80.721	5,657.23	79.9728	5,657.23	79.9892	5,657.23	78.5744	5,657.23	78.3626	5,657.23	76.3004	5,657.23	76.4012	5,657.23	73.7091	5,657.23	73.0278	5,657.23	69.98	5,657.23	69.2205	5,657.23	67.6241	5,657.23	67.9239	5,657.23	66.7344	5,657.23	65.1111	5,657.23	66.5998	5,657.23	64.0706	5,657.23	66.4727	5,657.23	65.82	5,657.23	70.1968	5,657.23	68.6414	5,657.23	65.5588	5,657.23	66.9528	5,657.23	58.2748	5,657.23	61.0974	5,657.23	63.5734
5,856.45	83.5254	5,856.45	84.2002	5,856.45	83.6863	5,856.45	83.5765	5,856.45	83.8097	5,856.45	82.3129	5,856.45	82.2834	5,856.45	80.9031	5,856.45	81.26	5,856.45	81.5371	5,856.45	81.3278	5,856.45	80.5807	5,856.45	80.6305	5,856.45	78.3523	5,856.45	78.6652	5,856.45	76.0265	5,856.45	75.4254	5,856.45	73.0718	5,856.45	72.8521	5,856.45	70.4024	5,856.45	69.4424	5,856.45	66.5246	5,856.45	66.4978	5,856.45	65.7501	5,856.45	65.08	5,856.45	62.9372	5,856.45	64.7485	5,856.45	66.4338	5,856.45	65.0332	5,856.45	68.2378	5,856.45	68.048	5,856.45	65.1958	5,856.45	66.5003	5,856.45	57.5197	5,856.45	60.8482	5,856.45	61.1883
6,062.99	82.9282	6,062.99	83.8164	6,062.99	84.3177	6,062.99	84.5355	6,062.99	84.0981	6,062.99	82.1072	6,062.99	82.1599	6,062.99	80.9705	6,062.99	80.7896	6,062.99	81.3548	6,062.99	81.5018	6,062.99	81.3719	6,062.99	81.212	6,062.99	79.2566	6,062.99	79.0681	6,062.99	76.0289	6,062.99	76.3052	6,062.99	73.4596	6,062.99	72.7699	6,062.99	69.52	6,062.99	69.3946	6,062.99	68.4153	6,062.99	67.9943	6,062.99	66.3428	6,062.99	65.2485	6,062.99	64.9644	6,062.99	64.5833	6,062.99	67.1045	6,062.99	65.6638	6,062.99	68.9143	6,062.99	68.7982	6,062.99	66.223	6,062.99	66.835	6,062.99	53.2541	6,062.99	59.694	6,062.99	62.1154
6,276.86	83.5734	6,276.86	84.5836	6,276.86	84.1964	6,276.86	83.5981	6,276.86	84.0939	6,276.86	81.2168	6,276.86	82.0184	6,276.86	80.939	6,276.86	81.4207	6,276.86	82.4793	6,276.86	82.1769	6,276.86	81.2326	6,276.86	81.1007	6,276.86	78.3776	6,276.86	78.6786	6,276.86	75.0441	6,276.86	75.6293	6,276.86	72.1954	6,276.86	72.2113	6,276.86	69.0333	6,276.86	68.7715	6,276.86	66.1499	6,276.86	66.564	6,276.86	62.9934	6,276.86	63.156	6,276.86	65.41	6,276.86	64.459	6,276.86	65.9488	6,276.86	65.9876	6,276.86	67.6289	6,276.86	67.4281	6,276.86	64.9213	6,276.86	65.9267	6,276.86	52.089	6,276.86	58.6148	6,276.86	60.7367
6,498.05	83.5277	6,498.05	84.4351	6,498.05	84.8359	6,498.05	84.3754	6,498.05	84.2148	6,498.05	81.7611	6,498.05	81.977	6,498.05	81.5816	6,498.05	81.759	6,498.05	82.0533	6,498.05	82.4404	6,498.05	80.7108	6,498.05	81.4083	6,498.05	78.0894	6,498.05	78.4598	6,498.05	75.2678	6,498.05	75.3365	6,498.05	72.0568	6,498.05	71.9762	6,498.05	67.6224	6,498.05	68.3126	6,498.05	65.5668	6,498.05	66.6936	6,498.05	62.3214	6,498.05	63.8738	6,498.05	63.3538	6,498.05	63.7741	6,498.05	65.1457	6,498.05	64.8694	6,498.05	67.0829	6,498.05	66.5777	6,498.05	65.1985	6,498.05	65.8619	6,498.05	51.9632	6,498.05	56.3289	6,498.05	60.6309
6,726.56	83.9022	6,726.56	84.6111	6,726.56	84.4734	6,726.56	83.5807	6,726.56	83.5937	6,726.56	81.5979	6,726.56	82.0888	6,726.56	82.1664	6,726.56	82.3277	6,726.56	82.4473	6,726.56	82.5625	6,726.56	80.5034	6,726.56	80.5673	6,726.56	77.2603	6,726.56	77.1331	6,726.56	73.2229	6,726.56	74.0723	6,726.56	69.4437	6,726.56	71.2901	6,726.56	66.5097	6,726.56	67.5681	6,726.56	62.9552	6,726.56	64.1992	6,726.56	59.8215	6,726.56	58.8049	6,726.56	62.4372	6,726.56	62.5319	6,726.56	64.2216	6,726.56	64.4846	6,726.56	66.5294	6,726.56	66.1656	6,726.56	64.0111	6,726.56	65.529	6,726.56	42.0109	6,726.56	54.4207	6,726.56	61.5899
6,963.87	84.0952	6,963.87	84.4264	6,963.87	84.4703	6,963.87	83.6796	6,963.87	83.2576	6,963.87	82.325	6,963.87	82.2455	6,963.87	82.4191	6,963.87	82.4476	6,963.87	82.0739	6,963.87	82.2958	6,963.87	79.8482	6,963.87	80.0723	6,963.87	76.331	6,963.87	76.4923	6,963.87	72.858	6,963.87	73.4798	6,963.87	69.8144	6,963.87	70.4415	6,963.87	65.6515	6,963.87	67.8401	6,963.87	63.9594	6,963.87	65.3976	6,963.87	60.5579	6,963.87	60.3703	6,963.87	60.1095	6,963.87	61.636	6,963.87	63.7959	6,963.87	62.276	6,963.87	64.9615	6,963.87	65.7997	6,963.87	63.8633	6,963.87	64.7142	6,963.87	39.2169	6,963.87	54.5604	6,963.87	62.0329
7,209.96	84.3287	7,209.96	84.503	7,209.96	84.1992	7,209.96	83.5017	7,209.96	83.2957	7,209.96	82.6958	7,209.96	82.8596	7,209.96	82.6973	7,209.96	82.6575	7,209.96	81.8479	7,209.96	81.5637	7,209.96	79.6327	7,209.96	79.1034	7,209.96	77.0121	7,209.96	76.3759	7,209.96	73.8847	7,209.96	74.0425	7,209.96	70.2957	7,209.96	70.2423	7,209.96	67.1131	7,209.96	67.5167	7,209.96	63.7082	7,209.96	64.6245	7,209.96	61.4602	7,209.96	62.097	7,209.96	61.6956	7,209.96	60.9621	7,209.96	62.7344	7,209.96	62.9175	7,209.96	65.085	7,209.96	65.0661	7,209.96	64.5203	7,209.96	63.7918	7,209.96	45.7175	7,209.96	54.3598	7,209.96	61.8335
7,464.84	84.4569	7,464.84	83.8989	7,464.84	84.0393	7,464.84	83.1554	7,464.84	83.0586	7,464.84	83.1099	7,464.84	83.0302	7,464.84	82.6422	7,464.84	82.342	7,464.84	81.3404	7,464.84	81.081	7,464.84	79.2133	7,464.84	78.9416	7,464.84	77.0968	7,464.84	76.4474	7,464.84	74.1822	7,464.84	73.9199	7,464.84	71.0798	7,464.84	69.7289	7,464.84	68.1568	7,464.84	67.6831	7,464.84	63.3308	7,464.84	65.0221	7,464.84	61.6548	7,464.84	59.6398	7,464.84	60.798	7,464.84	60.4774	7,464.84	62.4597	7,464.84	63.0797	7,464.84	64.5894	7,464.84	63.6495	7,464.84	65.1056	7,464.84	64.4176	7,464.84	47.3967	7,464.84	49.3308	7,464.84	59.7823
7,727.05	84.7144	7,727.05	83.5087	7,727.05	83.576	7,727.05	83.3921	7,727.05	83.0521	7,727.05	83.912	7,727.05	84.0571	7,727.05	82.3811	7,727.05	82.4891	7,727.05	80.6237	7,727.05	80.2704	7,727.05	78.7638	7,727.05	78.5403	7,727.05	76.8674	7,727.05	76.5557	7,727.05	75.1949	7,727.05	74.4118	7,727.05	72.1542	7,727.05	71.0605	7,727.05	68.4448	7,727.05	67.868	7,727.05	63.7457	7,727.05	65.2545	7,727.05	62.1743	7,727.05	63.0571	7,727.05	61.8998	7,727.05	59.1938	7,727.05	63.5158	7,727.05	61.5263	7,727.05	63.806	7,727.05	63.0503	7,727.05	65.5084	7,727.05	63.6364	7,727.05	49.1448	7,727.05	50.1589	7,727.05	58.9443
7,999.51	84.8852	7,999.51	83.2891	7,999.51	83.4512	7,999.51	83.7168	7,999.51	83.8046	7,999.51	84.0529	7,999.51	84.2888	7,999.51	81.9164	7,999.51	81.9321	7,999.51	80.6253	7,999.51	80.5486	7,999.51	79.4197	7,999.51	79.5266	7,999.51	76.8952	7,999.51	77.2662	7,999.51	74.5114	7,999.51	75.1069	7,999.51	71.5003	7,999.51	71.2103	7,999.51	67.4754	7,999.51	67.8905	7,999.51	63.2335	7,999.51	63.7887	7,999.51	60.816	7,999.51	61.759	7,999.51	60.3735	7,999.51	60.5282	7,999.51	61.7974	7,999.51	60.3243	7,999.51	63.5122	7,999.51	63.6826	7,999.51	64.5305	7,999.51	63.5337	7,999.51	46.8457	7,999.51	49.6603	7,999.51	60.4015
8,282.23	84.843	8,282.23	83.2171	8,282.23	83.1426	8,282.23	84.1322	8,282.23	83.9804	8,282.23	84.3274	8,282.23	84.4426	8,282.23	81.574	8,282.23	81.6353	8,282.23	80.2206	8,282.23	80.3213	8,282.23	79.5599	8,282.23	80.1038	8,282.23	77.1979	8,282.23	77.4269	8,282.23	73.6442	8,282.23	74.787	8,282.23	70.7561	8,282.23	70.5652	8,282.23	66.0749	8,282.23	67.5056	8,282.23	64.2707	8,282.23	63.8758	8,282.23	61.6686	8,282.23	61.2712	8,282.23	61.9096	8,282.23	57.1528	8,282.23	61.3412	8,282.23	59.9018	8,282.23	62.2941	8,282.23	63.2313	8,282.23	63.5086	8,282.23	62.7809	8,282.23	44.358	8,282.23	50.7718	8,282.23	58.7895
8,573.73	84.4883	8,573.73	83.132	8,573.73	83.475	8,573.73	84.3916	8,573.73	84.3732	8,573.73	83.9444	8,573.73	84.1406	8,573.73	81.5841	8,573.73	81.7037	8,573.73	80.6081	8,573.73	80.5709	8,573.73	79.1065	8,573.73	79.5549	8,573.73	76.7185	8,573.73	76.8634	8,573.73	72.5002	8,573.73	73.9521	8,573.73	69.5944	8,573.73	69.4473	8,573.73	65.2768	8,573.73	66.1829	8,573.73	62.5928	8,573.73	62.1465	8,573.73	58.4253	8,573.73	59.8886	8,573.73	58.4493	8,573.73	57.6871	8,573.73	59.669	8,573.73	58.7409	8,573.73	62.1648	8,573.73	62.118	8,573.73	62.5114	8,573.73	62.6682	8,573.73	44.2257	8,573.73	41.6576	8,573.73	58.8693
8,876.95	83.9093	8,876.95	82.891	8,876.95	83.5198	8,876.95	84.6601	8,876.95	84.5271	8,876.95	83.7815	8,876.95	83.9587	8,876.95	82.0898	8,876.95	81.9678	8,876.95	80.8905	8,876.95	81.0011	8,876.95	78.887	8,876.95	79.4153	8,876.95	75.683	8,876.95	75.6806	8,876.95	72.3293	8,876.95	72.4785	8,876.95	68.5189	8,876.95	68.8564	8,876.95	63.1003	8,876.95	66.0534	8,876.95	62.7937	8,876.95	62.1871	8,876.95	57.3413	8,876.95	60.2979	8,876.95	55.2576	8,876.95	53.6818	8,876.95	57.69	8,876.95	58.4779	8,876.95	61.7267	8,876.95	61.1532	8,876.95	62.297	8,876.95	60.8551	8,876.95	46.2504	8,876.95	42.643	8,876.95	53.3303
9,188.96	83.7126	9,188.96	83.5108	9,188.96	83.4095	9,188.96	84.7206	9,188.96	84.645	9,188.96	83.9431	9,188.96	83.8856	9,188.96	82.1007	9,188.96	82.219	9,188.96	81.1312	9,188.96	81.0603	9,188.96	79.0636	9,188.96	79.5702	9,188.96	74.7724	9,188.96	75.2577	9,188.96	71.3404	9,188.96	73.0018	9,188.96	68.6303	9,188.96	68.8857	9,188.96	63.722	9,188.96	65.543	9,188.96	62.0681	9,188.96	61.9278	9,188.96	56.4585	9,188.96	57.2116	9,188.96	49.9909	9,188.96	53.6126	9,188.96	55.9022	9,188.96	58.6552	9,188.96	60.8336	9,188.96	61.0678	9,188.96	60.2589	9,188.96	60.3693	9,188.96	43.4378	9,188.96	38.3647	9,188.96	54.4587
9,514.16	82.7868	9,514.16	83.4686	9,514.16	83.955	9,514.16	84.5473	9,514.16	84.6323	9,514.16	83.5191	9,514.16	83.527	9,514.16	82.288	9,514.16	82.663	9,514.16	81.1622	9,514.16	81.513	9,514.16	78.8063	9,514.16	79.5469	9,514.16	75.4016	9,514.16	75.801	9,514.16	71.3816	9,514.16	73.4047	9,514.16	69.0079	9,514.16	69.114	9,514.16	65.0915	9,514.16	65.5961	9,514.16	62.5337	9,514.16	61.7677	9,514.16	56.9974	9,514.16	58.8236	9,514.16	52.3163	9,514.16	50.3313	9,514.16	52.8085	9,514.16	57.5156	9,514.16	61.2147	9,514.16	59.139	9,514.16	60.2022	9,514.16	58.4841	9,514.16	45.8176	9,514.16	34.1226	9,514.16	55.4432
9,849.61	82.1354	9,849.61	83.634	9,849.61	84.2982	9,849.61	84.4176	9,849.61	84.6529	9,849.61	83.2408	9,849.61	83.7435	9,849.61	82.6994	9,849.61	83.291	9,849.61	81.0494	9,849.61	81.6668	9,849.61	78.32	9,849.61	79.3962	9,849.61	75.4296	9,849.61	76.1891	9,849.61	72.2532	9,849.61	73.9844	9,849.61	69.2341	9,849.61	69.8927	9,849.61	64.9375	9,849.61	66.9675	9,849.61	63.409	9,849.61	62.1596	9,849.61	55.7615	9,849.61	60.4546	9,849.61	52.5216	9,849.61	51.4716	9,849.61	52.4823	9,849.61	57.5167	9,849.61	59.8843	9,849.61	58.5738	9,849.61	60.3291	9,849.61	58.244	9,849.61	41.9884	9,849.61	47.4762	9,849.61	52.3838
10,196.8	81.9864	10,196.8	84.0358	10,196.8	83.9457	10,196.8	83.9465	10,196.8	84.2469	10,196.8	83.3339	10,196.8	83.9206	10,196.8	82.7885	10,196.8	83.2861	10,196.8	80.9418	10,196.8	81.4117	10,196.8	78.4535	10,196.8	79.6594	10,196.8	75.254	10,196.8	76.6076	10,196.8	72.1994	10,196.8	73.8847	10,196.8	68.9045	10,196.8	70.0393	10,196.8	64.6585	10,196.8	66.5212	10,196.8	62.4538	10,196.8	61.6267	10,196.8	57.2874	10,196.8	60.0858	10,196.8	53.9729	10,196.8	54.8977	10,196.8	53.5777	10,196.8	57.906	10,196.8	59.5136	10,196.8	57.7826	10,196.8	58.7521	10,196.8	55.8654	10,196.8	38.8409	10,196.8	43.6683	10,196.8	52.2188
10,555.7	81.9401	10,555.7	83.8711	10,555.7	83.9005	10,555.7	83.3239	10,555.7	83.4419	10,555.7	83.2211	10,555.7	83.5642	10,555.7	82.3435	10,555.7	82.8798	10,555.7	80.7513	10,555.7	81.2986	10,555.7	78.9508	10,555.7	79.8858	10,555.7	76.0498	10,555.7	76.9618	10,555.7	71.2792	10,555.7	73.227	10,555.7	67.8144	10,555.7	68.6647	10,555.7	63.7787	10,555.7	65.5272	10,555.7	60.8953	10,555.7	60.7706	10,555.7	56.8819	10,555.7	57.6195	10,555.7	53.8668	10,555.7	55.9037	10,555.7	51.7447	10,555.7	57.7144	10,555.7	58.0191	10,555.7	55.4232	10,555.7	57.2015	10,555.7	50.3712	10,555.7	41.9643	10,555.7	40.2994	10,555.7	52.6861
10,927.7	82.0124	10,927.7	83.0658	10,927.7	83.5328	10,927.7	82.6212	10,927.7	82.5444	10,927.7	82.8283	10,927.7	83.2478	10,927.7	81.8831	10,927.7	82.4319	10,927.7	80.5786	10,927.7	81.0589	10,927.7	78.8956	10,927.7	79.3557	10,927.7	75.7712	10,927.7	76.4834	10,927.7	71.8678	10,927.7	72.8239	10,927.7	67.5938	10,927.7	68.3878	10,927.7	63.3545	10,927.7	64.9384	10,927.7	59.9353	10,927.7	60.5475	10,927.7	56.4551	10,927.7	58.5637	10,927.7	54.9371	10,927.7	55.1924	10,927.7	51.1943	10,927.7	57.3739	10,927.7	56.1501	10,927.7	53.5735	10,927.7	55.0601	10,927.7	48.2105	10,927.7	35.7362	10,927.7	42.1477	10,927.7	49.0194
11,313	82.5118	11,313	82.94	11,313	82.7404	11,313	82.0017	11,313	82.1665	11,313	82.4011	11,313	83.1176	11,313	81.3219	11,313	81.9045	11,313	80.1536	11,313	80.6192	11,313	77.9367	11,313	78.649	11,313	73.8548	11,313	75.3693	11,313	71.0295	11,313	71.7132	11,313	67.3905	11,313	67.8703	11,313	63.0706	11,313	63.9617	11,313	59.1944	11,313	59.3462	11,313	57.125	11,313	57.8681	11,313	54.6771	11,313	55.8221	11,313	50.8968	11,313	56.9476	11,313	54.6899	11,313	50.6838	11,313	53.9147	11,313	42.843	11,313	39.0757	11,313	49.3689	11,313	49.2746
11,712.9	83.1401	11,712.9	82.3621	11,712.9	82.522	11,712.9	81.7509	11,712.9	82.026	11,712.9	82.2809	11,712.9	82.8309	11,712.9	80.9974	11,712.9	81.5519	11,712.9	79.9659	11,712.9	80.5965	11,712.9	77.5661	11,712.9	78.2819	11,712.9	73.9361	11,712.9	75.4756	11,712.9	70.2901	11,712.9	71.4482	11,712.9	65.8724	11,712.9	66.5784	11,712.9	62.5227	11,712.9	62.6265	11,712.9	58.1875	11,712.9	59.7542	11,712.9	57.5117	11,712.9	57.4917	11,712.9	52.56	11,712.9	57.5986	11,712.9	43.7241	11,712.9	54.5887	11,712.9	52.7028	11,712.9	48.3948	11,712.9	53.7305	11,712.9	41.9026	11,712.9	43.9462	11,712.9	50.8843	11,712.9	51.2165
12,126	83.784	12,126	81.9895	12,126	82.5277	12,126	81.934	12,126	81.8319	12,126	82.1841	12,126	82.5205	12,126	80.7706	12,126	81.5708	12,126	79.4214	12,126	80.5958	12,126	77.1232	12,126	78.0494	12,126	74.2016	12,126	75.1172	12,126	70.2959	12,126	71.1717	12,126	65.5267	12,126	66.9723	12,126	62.235	12,126	63.6147	12,126	58.6037	12,126	60.8715	12,126	55.8126	12,126	59.1366	12,126	52.2908	12,126	56.5473	12,126	44.9051	12,126	52.2907	12,126	52.2266	12,126	41.4464	12,126	49.6727	12,126	44.6496	12,126	39.7797	12,126	52.1276	12,126	52.3
12,553.7	84.1771	12,553.7	82.0388	12,553.7	82.5111	12,553.7	81.9417	12,553.7	82.1056	12,553.7	81.986	12,553.7	82.3437	12,553.7	80.802	12,553.7	81.9274	12,553.7	79.4363	12,553.7	80.3758	12,553.7	77.2758	12,553.7	77.962	12,553.7	73.2447	12,553.7	74.6925	12,553.7	69.9546	12,553.7	70.4409	12,553.7	64.451	12,553.7	66.4312	12,553.7	61.2039	12,553.7	63.8539	12,553.7	57.6181	12,553.7	60.7601	12,553.7	52.3042	12,553.7	57.7953	12,553.7	48.976	12,553.7	55.4888	12,553.7	38.0962	12,553.7	50.6168	12,553.7	54.0496	12,553.7	27.2357	12,553.7	50.3591	12,553.7	47.308	12,553.7	43.0643	12,553.7	51.1112	12,553.7	49.9878
12,996.1	84.5847	12,996.1	82.153	12,996.1	82.8165	12,996.1	82.0285	12,996.1	82.2281	12,996.1	81.6172	12,996.1	82.3059	12,996.1	80.6867	12,996.1	81.846	12,996.1	78.9881	12,996.1	80.3374	12,996.1	77.2904	12,996.1	78.3183	12,996.1	72.8432	12,996.1	74.3106	12,996.1	69.6259	12,996.1	71.4265	12,996.1	63.9947	12,996.1	66.3561	12,996.1	62.1208	12,996.1	64.199	12,996.1	59.3509	12,996.1	61.2797	12,996.1	50.8415	12,996.1	56.6194	12,996.1	41.8258	12,996.1	54.1237	12,996.1	37.7304	12,996.1	49.1409	12,996.1	53.8173	12,996.1	37.316	12,996.1	49.7374	12,996.1	46.0705	12,996.1	42.7898	12,996.1	51.9366	12,996.1	51.1296
13,454.6	84.5085	13,454.6	82.31	13,454.6	82.9576	13,454.6	82.2247	13,454.6	82.2829	13,454.6	81.3029	13,454.6	81.9357	13,454.6	80.2992	13,454.6	81.5919	13,454.6	78.5608	13,454.6	80.1576	13,454.6	77.0109	13,454.6	78.0962	13,454.6	72.6936	13,454.6	74.1716	13,454.6	70.7194	13,454.6	72.3917	13,454.6	65.643	13,454.6	67.8767	13,454.6	63.3657	13,454.6	65.6455	13,454.6	60.3252	13,454.6	62.3973	13,454.6	53.3617	13,454.6	54.9512	13,454.6	36.0627	13,454.6	54.5423	13,454.6	37.6199	13,454.6	44.6298	13,454.6	50.3852	13,454.6	45.4279	13,454.6	45.4898	13,454.6	49.6993	13,454.6	42.4075	13,454.6	50.9821	13,454.6	52.9373
13,929.2	84.1339	13,929.2	82.5592	13,929.2	83.1843	13,929.2	82.2845	13,929.2	82.2359	13,929.2	81.0115	13,929.2	81.7931	13,929.2	80.4987	13,929.2	81.6727	13,929.2	78.473	13,929.2	79.8634	13,929.2	76.7689	13,929.2	78.0166	13,929.2	73.9534	13,929.2	75.2227	13,929.2	71.7428	13,929.2	73.348	13,929.2	66.2752	13,929.2	67.7261	13,929.2	63.3014	13,929.2	65.5301	13,929.2	59.7727	13,929.2	62.4444	13,929.2	54.0452	13,929.2	52.5065	13,929.2	39.1414	13,929.2	53.2882	13,929.2	38.5611	13,929.2	42.1313	13,929.2	52.6111	13,929.2	50.1331	13,929.2	41.3096	13,929.2	49.5554	13,929.2	37.1576	13,929.2	49.7659	13,929.2	53.0907
14,419.9	83.6416	14,419.9	82.7872	14,419.9	83.4137	14,419.9	82.034	14,419.9	82.1646	14,419.9	80.8889	14,419.9	81.7581	14,419.9	80.1424	14,419.9	81.5022	14,419.9	78.1997	14,419.9	79.3951	14,419.9	76.9966	14,419.9	78.4731	14,419.9	74.6875	14,419.9	75.2635	14,419.9	71.04	14,419.9	72.2812	14,419.9	64.9902	14,419.9	65.7246	14,419.9	61.658	14,419.9	63.3826	14,419.9	58.1159	14,419.9	60.3773	14,419.9	53.8096	14,419.9	48.9193	14,419.9	41.8279	14,419.9	52.3815	14,419.9	45.2379	14,419.9	40.9381	14,419.9	54.6465	14,419.9	52.4403	14,419.9	46.0016	14,419.9	49.186	14,419.9	35.6389	14,419.9	49.5159	14,419.9	53.5806
14,928.2	83.27	14,928.2	82.9382	14,928.2	83.5344	14,928.2	82.1967	14,928.2	82.3031	14,928.2	80.7121	14,928.2	81.7859	14,928.2	79.8211	14,928.2	80.9448	14,928.2	77.8773	14,928.2	79.1426	14,928.2	77.1495	14,928.2	78.5733	14,928.2	73.3705	14,928.2	74.3666	14,928.2	68.0828	14,928.2	69.9504	14,928.2	61.0059	14,928.2	63.3655	14,928.2	59.2861	14,928.2	61.4906	14,928.2	56.1467	14,928.2	57.836	14,928.2	51.8639	14,928.2	46.3434	14,928.2	35.6019	14,928.2	49.6418	14,928.2	47.1804	14,928.2	39.7481	14,928.2	52.9275	14,928.2	53.1159	14,928.2	46.9201	14,928.2	48.4521	14,928.2	31.1059	14,928.2	48.6365	14,928.2	54.6463
15,455.6	82.6874	15,455.6	83.0856	15,455.6	83.5117	15,455.6	82.1794	15,455.6	82.3494	15,455.6	80.5872	15,455.6	81.7832	15,455.6	79.6853	15,455.6	80.8704	15,455.6	78.2455	15,455.6	79.6857	15,455.6	77.1037	15,455.6	78.536	15,455.6	70.983	15,455.6	73.277	15,455.6	67.3102	15,455.6	69.1944	15,455.6	61.4902	15,455.6	64.4373	15,455.6	60.588	15,455.6	62.3862	15,455.6	55.1316	15,455.6	58.5137	15,455.6	51.9682	15,455.6	50.109	15,455.6	47.3871	15,455.6	43.2205	15,455.6	44.2527	15,455.6	38.4575	15,455.6	51.4824	15,455.6	54.3249	15,455.6	47.8597	15,455.6	49.2583	15,455.6	27.3629	15,455.6	45.4312	15,455.6	55.194
16,000.5	82.0522	16,000.5	82.7202	16,000.5	83.3036	16,000.5	81.6889	16,000.5	82.2219	16,000.5	80.3078	16,000.5	81.7998	16,000.5	79.566	16,000.5	80.7449	16,000.5	78.4234	16,000.5	80.2943	16,000.5	76.2931	16,000.5	77.8275	16,000.5	71.697	16,000.5	73.8865	16,000.5	71.1621	16,000.5	71.2477	16,000.5	66.0577	16,000.5	67.5894	16,000.5	62.8458	16,000.5	63.975	16,000.5	56.8819	16,000.5	59.9721	16,000.5	53.6822	16,000.5	53.0821	16,000.5	50.1385	16,000.5	45.9945	16,000.5	43.9697	16,000.5	43.4624	16,000.5	52.0459	16,000.5	55.888	16,000.5	53.8578	16,000.5	50.3347	16,000.5	35.7375	16,000.5	46.8548	16,000.5	54.6551
16,564.5	81.8192	16,564.5	82.3051	16,564.5	82.8509	16,564.5	81.1541	16,564.5	82.0617	16,564.5	79.9741	16,564.5	81.4177	16,564.5	79.243	16,564.5	80.3974	16,564.5	78.4004	16,564.5	80.0469	16,564.5	74.3135	16,564.5	76.2675	16,564.5	73.931	16,564.5	75.2724	16,564.5	72.5999	16,564.5	72.6165	16,564.5	66.8927	16,564.5	68.24	16,564.5	62.6455	16,564.5	64.0764	16,564.5	56.0267	16,564.5	60.408	16,564.5	52.3981	16,564.5	51.4442	16,564.5	52.3289	16,564.5	46.1244	16,564.5	46.5231	16,564.5	44.2131	16,564.5	50.8335	16,564.5	55.6375	16,564.5	53.8373	16,564.5	49.185	16,564.5	43.1417	16,564.5	47.8387	16,564.5	54.2822
17,148.9	81.9419	17,148.9	82.0513	17,148.9	82.5561	17,148.9	80.9627	17,148.9	81.8317	17,148.9	79.1394	17,148.9	80.9322	17,148.9	78.8702	17,148.9	80.1453	17,148.9	76.688	17,148.9	78.9429	17,148.9	73.7016	17,148.9	75.4894	17,148.9	73.7994	17,148.9	74.7055	17,148.9	70.162	17,148.9	70.8377	17,148.9	63.7207	17,148.9	65.7553	17,148.9	58.6294	17,148.9	60.9271	17,148.9	53.9122	17,148.9	58.5084	17,148.9	48.9398	17,148.9	49.7486	17,148.9	51.6009	17,148.9	43.7745	17,148.9	45.6267	17,148.9	44.5333	17,148.9	50.3033	17,148.9	54.0052	17,148.9	52.6976	17,148.9	47.0345	17,148.9	44.1418	17,148.9	42.6038	17,148.9	53.9148
17,752.4	82.3541	17,752.4	81.995	17,752.4	82.66	17,752.4	80.8285	17,752.4	82.0039	17,752.4	79.3216	17,752.4	81.0129	17,752.4	78.9838	17,752.4	80.1491	17,752.4	75.3206	17,752.4	78.2141	17,752.4	74.953	17,752.4	75.8938	17,752.4	71.3566	17,752.4	72.7455	17,752.4	65.237	17,752.4	67.6092	17,752.4	56.8341	17,752.4	62.097	17,752.4	55.3927	17,752.4	57.6181	17,752.4	51.7039	17,752.4	57.3577	17,752.4	44.2658	17,752.4	50.7537	17,752.4	50.1158	17,752.4	46.6617	17,752.4	45.089	17,752.4	45.2096	17,752.4	48.1424	17,752.4	53.0379	17,752.4	52.3503	17,752.4	45.1212	17,752.4	45.7838	17,752.4	42.2083	17,752.4	53.4541
18,379.4	82.7545	18,379.4	81.8822	18,379.4	82.7007	18,379.4	81.0696	18,379.4	82.1284	18,379.4	79.966	18,379.4	80.9051	18,379.4	79.0462	18,379.4	80.0219	18,379.4	76.5938	18,379.4	78.5904	18,379.4	75.7664	18,379.4	76.4908	18,379.4	66.9741	18,379.4	70.4675	18,379.4	65.1943	18,379.4	68.2618	18,379.4	60.1589	18,379.4	63.34	18,379.4	59.5228	18,379.4	60.5528	18,379.4	53.6328	18,379.4	58.1163	18,379.4	42.7088	18,379.4	53.3641	18,379.4	48.4601	18,379.4	49.7792	18,379.4	43.3846	18,379.4	44.984	18,379.4	43.8508	18,379.4	51.4978	18,379.4	51.5716	18,379.4	41.445	18,379.4	44.6012	18,379.4	28.9037	18,379.4	52.5056
19,026.9	82.5049	19,026.9	81.5952	19,026.9	82.4514	19,026.9	81.033	19,026.9	81.8659	19,026.9	79.7104	19,026.9	80.5449	19,026.9	78.3518	19,026.9	79.5109	19,026.9	77.9491	19,026.9	79.1511	19,026.9	73.8773	19,026.9	74.6456	19,026.9	68.7272	19,026.9	71.5251	19,026.9	68.8602	19,026.9	70.7578	19,026.9	63.8527	19,026.9	65.0485	19,026.9	60.6491	19,026.9	61.617	19,026.9	52.3196	19,026.9	58.3561	19,026.9	45.9596	19,026.9	53.2662	19,026.9	46.9671	19,026.9	50.6457	19,026.9	45.9092	19,026.9	44.4931	19,026.9	42.6422	19,026.9	46.9773	19,026.9	48.2259	19,026.9	37.0454	19,026.9	43.8133	19,026.9	46.278	19,026.9	52.4173
19,697.8	82.1179	19,697.8	81.1982	19,697.8	82.1106	19,697.8	80.9632	19,697.8	81.3658	19,697.8	79.3982	19,697.8	80.2857	19,697.8	78.1045	19,697.8	79.636	19,697.8	77.2074	19,697.8	78.8363	19,697.8	71.1857	19,697.8	72.9716	19,697.8	71.1901	19,697.8	73.1191	19,697.8	66.7051	19,697.8	69.2858	19,697.8	60.6685	19,697.8	62.1702	19,697.8	57.2756	19,697.8	59.0248	19,697.8	49.167	19,697.8	55.8106	19,697.8	45.4933	19,697.8	50.5186	19,697.8	48.0352	19,697.8	47.7182	19,697.8	47.2279	19,697.8	40.3224	19,697.8	44.5772	19,697.8	40.3698	19,697.8	51.1857	19,697.8	40.7259	19,697.8	43.9603	19,697.8	48.0581	19,697.8	52.8585
19,999.5	81.8579	19,999.5	80.7403	19,999.5	82.0191	19,999.5	80.9388	19,999.5	81.2414	19,999.5	79.4085	19,999.5	80.2465	19,999.5	78.212	19,999.5	79.9924	19,999.5	76.5584	19,999.5	78.6193	19,999.5	71.4035	19,999.5	73.4	19,999.5	70.6059	19,999.5	73.015	19,999.5	64.1584	19,999.5	66.1929	19,999.5	57.8716	19,999.5	59.3779	19,999.5	55.2462	19,999.5	56.866	19,999.5	45.8467	19,999.5	56.1586	19,999.5	46.8567	19,999.5	49.985	19,999.5	46.4202	19,999.5	53.7108	19,999.5	48.9993	19,999.5	49.4346	19,999.5	51.4905	19,999.5	39.8775	19,999.5	48.798	19,999.5	33.5943	19,999.5	48.8335	19,999.5	53.1068	19,999.5	52.9808
