"SPL Vertical"																																																																							
"On-Axis"		"10°"		"-10°"		"20°"		"-20°"		"30°"		"-30°"		"40°"		"-40°"		"50°"		"-50°"		"60°"		"-60°"		"70°"		"-70°"		"80°"		"-80°"		"90°"		"-90°"		"100°"		"-100°"		"110°"		"-110°"		"120°"		"-120°"		"130°"		"-130°"		"140°"		"-140°"		"150°"		"-150°"		"160°"		"-160°"		"170°"		"-170°"		"180°"	
"Frequency [Hz]"	"Sound Pessure Level [dB]  / [2.83V 1m] "	"Frequency [Hz]"	"Sound Pessure Level [dB]  / [2.83V 1m] "	"Frequency [Hz]"	"Sound Pessure Level [dB]  / [2.83V 1m] "	"Frequency [Hz]"	"Sound Pessure Level [dB]  / [2.83V 1m] "	"Frequency [Hz]"	"Sound Pessure Level [dB]  / [2.83V 1m] "	"Frequency [Hz]"	"Sound Pessure Level [dB]  / [2.83V 1m] "	"Frequency [Hz]"	"Sound Pessure Level [dB]  / [2.83V 1m] "	"Frequency [Hz]"	"Sound Pessure Level [dB]  / [2.83V 1m] "	"Frequency [Hz]"	"Sound Pessure Level [dB]  / [2.83V 1m] "	"Frequency [Hz]"	"Sound Pessure Level [dB]  / [2.83V 1m] "	"Frequency [Hz]"	"Sound Pessure Level [dB]  / [2.83V 1m] "	"Frequency [Hz]"	"Sound Pessure Level [dB]  / [2.83V 1m] "	"Frequency [Hz]"	"Sound Pessure Level [dB]  / [2.83V 1m] "	"Frequency [Hz]"	"Sound Pessure Level [dB]  / [2.83V 1m] "	"Frequency [Hz]"	"Sound Pessure Level [dB]  / [2.83V 1m] "	"Frequency [Hz]"	"Sound Pessure Level [dB]  / [2.83V 1m] "	"Frequency [Hz]"	"Sound Pessure Level [dB]  / [2.83V 1m] "	"Frequency [Hz]"	"Sound Pessure Level [dB]  / [2.83V 1m] "	"Frequency [Hz]"	"Sound Pessure Level [dB]  / [2.83V 1m] "	"Frequency [Hz]"	"Sound Pessure Level [dB]  / [2.83V 1m] "	"Frequency [Hz]"	"Sound Pessure Level [dB]  / [2.83V 1m] "	"Frequency [Hz]"	"Sound Pessure Level [dB]  / [2.83V 1m] "	"Frequency [Hz]"	"Sound Pessure Level [dB]  / [2.83V 1m] "	"Frequency [Hz]"	"Sound Pessure Level [dB]  / [2.83V 1m] "	"Frequency [Hz]"	"Sound Pessure Level [dB]  / [2.83V 1m] "	"Frequency [Hz]"	"Sound Pessure Level [dB]  / [2.83V 1m] "	"Frequency [Hz]"	"Sound Pessure Level [dB]  / [2.83V 1m] "	"Frequency [Hz]"	"Sound Pessure Level [dB]  / [2.83V 1m] "	"Frequency [Hz]"	"Sound Pessure Level [dB]  / [2.83V 1m] "	"Frequency [Hz]"	"Sound Pessure Level [dB]  / [2.83V 1m] "	"Frequency [Hz]"	"Sound Pessure Level [dB]  / [2.83V 1m] "	"Frequency [Hz]"	"Sound Pessure Level [dB]  / [2.83V 1m] "	"Frequency [Hz]"	"Sound Pessure Level [dB]  / [2.83V 1m] "	"Frequency [Hz]"	"Sound Pessure Level [dB]  / [2.83V 1m] "	"Frequency [Hz]"	"Sound Pessure Level [dB]  / [2.83V 1m] "	"Frequency [Hz]"	"Sound Pessure Level [dB]  / [2.83V 1m] "
20.5078	39.9787	20.5078	38.9756	20.5078	40.6397	20.5078	37.5701	20.5078	40.9889	20.5078	35.6819	20.5078	41.0297	20.5078	33.3337	20.5078	40.7388	20.5078	31.3663	20.5078	40.0608	20.5078	32.0804	20.5078	38.8947	20.5078	34.9471	20.5078	37.0723	20.5078	37.8393	20.5078	34.3978	20.5078	40.2479	20.5078	31.5449	20.5078	42.2105	20.5078	32.6502	20.5078	43.8138	20.5078	36.6165	20.5078	45.1212	20.5078	39.9895	20.5078	46.1719	20.5078	42.5249	20.5078	46.9872	20.5078	44.4254	20.5078	47.5756	20.5078	45.8402	20.5078	47.9366	20.5078	46.8617	20.5078	48.0625	20.5078	47.5485	20.5078	47.9397
21.9727	40.5997	21.9727	39.6283	21.9727	41.2299	21.9727	38.2933	21.9727	41.535	21.9727	36.6304	21.9727	41.5106	21.9727	34.9925	21.9727	41.1261	21.9727	34.5056	21.9727	40.3182	21.9727	36.0007	21.9727	38.9829	21.9727	38.4331	21.9727	37.0033	21.9727	40.8099	21.9727	34.6128	21.9727	42.8699	21.9727	33.9823	21.9727	44.6082	21.9727	36.8062	21.9727	46.0642	21.9727	40.2159	21.9727	47.273	21.9727	43.0038	21.9727	48.2579	21.9727	45.1703	21.9727	49.0311	21.9727	46.8383	21.9727	49.5962	21.9727	48.101	21.9727	49.9502	21.9727	49.0207	21.9727	50.0845	21.9727	49.6392	21.9727	49.9865
23.4375	43.0002	23.4375	42.1392	23.4375	43.5691	23.4375	40.9699	23.4375	43.856	23.4375	39.504	23.4375	43.8554	23.4375	37.91	23.4375	43.5431	23.4375	36.8323	23.4375	42.8721	23.4375	37.2799	23.4375	41.7688	23.4375	39.1285	23.4375	40.1484	23.4375	41.3548	23.4375	38.0697	23.4375	43.4173	23.4375	36.5201	23.4375	45.1942	23.4375	37.6679	23.4375	46.6904	23.4375	40.6057	23.4375	47.9326	23.4375	43.4077	23.4375	48.9424	23.4375	45.6592	23.4375	49.7329	23.4375	47.4029	23.4375	50.3084	23.4375	48.7221	23.4375	50.6664	23.4375	49.6816	23.4375	50.7984	23.4375	50.3272	23.4375	50.6914
24.9023	44.3944	24.9023	43.6321	24.9023	44.9059	24.9023	42.6342	24.9023	45.1613	24.9023	41.4699	24.9023	45.15	24.9023	40.3691	24.9023	44.85	24.9023	39.8431	24.9023	44.2276	24.9023	40.4053	24.9023	43.2461	24.9023	41.8961	24.9023	41.9159	24.9023	43.7268	24.9023	40.4966	24.9023	45.5114	24.9023	39.919	24.9023	47.1107	24.9023	41.1535	24.9023	48.4945	24.9023	43.4661	24.9023	49.665	24.9023	45.7866	24.9023	50.63	24.9023	47.7536	24.9023	51.3941	24.9023	49.3277	24.9023	51.9569	24.9023	50.5409	24.9023	52.3132	24.9023	51.4314	24.9023	52.4535	24.9023	52.031	24.9023	52.3649
26.3672	45.8945	26.3672	45.2239	26.3672	46.3487	26.3672	44.3677	26.3672	46.5724	26.3672	43.4122	26.3672	46.552	26.3672	42.5717	26.3672	46.2689	26.3672	42.2314	26.3672	45.7009	26.3672	42.7292	26.3672	44.8384	26.3672	43.9707	26.3672	43.7424	26.3672	45.5546	26.3672	42.712	26.3672	47.1625	26.3672	42.4715	26.3672	48.6463	26.3672	43.5822	26.3672	49.9553	26.3672	45.5371	26.3672	51.077	26.3672	47.5784	26.3672	52.0099	26.3672	49.3712	26.3672	52.7535	26.3672	50.8382	26.3672	53.3045	26.3672	51.9839	26.3672	53.6561	26.3672	52.8308	26.3672	53.7984	26.3672	53.4022	26.3672	53.7188
27.832	47.6932	27.832	47.0868	27.832	48.1093	27.832	46.3227	27.832	48.3185	27.832	45.4792	27.832	48.3072	27.832	44.7308	27.832	48.0601	27.832	44.3749	27.832	47.5622	27.832	44.6956	27.832	46.8146	27.832	45.6881	27.832	45.8816	27.832	47.0666	27.832	45.0074	27.832	48.5405	27.832	44.7297	27.832	49.9436	27.832	45.5256	27.832	51.2044	27.832	47.1442	27.832	52.2966	27.832	48.9762	27.832	53.211	27.832	50.6584	27.832	53.9426	27.832	52.0682	27.832	54.4856	27.832	53.1839	27.832	54.8322	27.832	54.015	27.832	54.972	27.832	54.5787	27.832	54.8923
29.2969	49.4939	29.2969	48.9746	29.2969	49.8573	29.2969	48.3367	29.2969	50.0443	29.2969	47.6557	29.2969	50.0406	29.2969	47.0734	29.2969	49.8344	29.2969	46.8027	29.2969	49.4201	29.2969	47.0402	29.2969	48.8132	29.2969	47.8093	29.2969	48.0882	29.2969	48.9389	29.2969	47.4518	29.2969	50.211	29.2969	47.2806	29.2969	51.4704	29.2969	47.8943	29.2969	52.6334	29.2969	49.1786	29.2969	53.6598	29.2969	50.7254	29.2969	54.5303	29.2969	52.2174	29.2969	55.2331	29.2969	53.5081	29.2969	55.7587	29.2969	54.5493	29.2969	56.0968	29.2969	55.3334	29.2969	56.2361	29.2969	55.8676	29.2969	56.1641
30.7617	51.124	30.7617	50.6549	30.7617	51.4559	30.7617	50.0852	30.7617	51.6295	30.7617	49.4835	30.7617	51.6308	30.7617	48.9698	30.7617	51.4503	30.7617	48.7163	30.7617	51.0864	30.7617	48.8856	30.7617	50.5588	30.7617	49.518	30.7617	49.9399	30.7617	50.4973	30.7617	49.4062	30.7617	51.6444	30.7617	49.2567	30.7617	52.8131	30.7617	49.7508	30.7617	53.9137	30.7617	50.8377	30.7617	54.898	30.7617	52.2085	30.7617	55.7401	30.7617	53.5782	30.7617	56.4243	30.7617	54.7909	30.7617	56.9381	30.7617	55.7834	30.7617	57.27	30.7617	56.5373	30.7617	57.408	30.7617	57.0534	30.7617	57.3399
32.2266	52.7782	32.2266	52.3773	32.2266	53.0672	32.2266	51.9018	32.2266	53.2218	32.2266	51.4152	32.2266	53.2282	32.2266	51.0173	32.2266	53.0787	32.2266	50.8385	32.2266	52.7765	32.2266	50.9963	32.2266	52.3462	32.2266	51.5253	32.2266	51.8585	32.2266	52.3522	32.2266	51.4621	32.2266	53.3473	32.2266	51.3827	32.2266	54.3895	32.2266	51.809	32.2266	55.3936	32.2266	52.7205	32.2266	56.3072	32.2266	53.902	32.2266	57.0989	32.2266	55.1214	32.2266	57.7478	32.2266	56.2295	32.2266	58.2383	32.2266	57.1529	32.2266	58.5565	32.2266	57.8629	32.2266	58.6896	32.2266	58.3525	32.2266	58.6253
33.6914	54.5106	33.6914	54.1505	33.6914	54.7746	33.6914	53.7277	33.6914	54.9215	33.6914	53.2964	33.6914	54.9389	33.6914	52.9377	33.6914	54.821	33.6914	52.7558	33.6914	54.5721	33.6914	52.8481	33.6914	54.2157	33.6914	53.2568	33.6914	53.811	33.6914	53.9418	33.6914	53.4742	33.6914	54.8056	33.6914	53.3769	33.6914	55.7426	33.6914	53.6748	33.6914	56.6687	33.6914	54.3883	33.6914	57.5267	33.6914	55.3778	33.6914	58.2792	33.6914	56.4523	33.6914	58.9009	33.6914	57.4643	33.6914	59.3728	33.6914	58.3285	33.6914	59.679	33.6914	59.0042	33.6914	59.8058	33.6914	59.4758	33.6914	59.7412
35.1563	56.0385	35.1563	55.7227	35.1563	56.2734	35.1563	55.3582	35.1563	56.4067	35.1563	54.9947	35.1563	56.4262	35.1563	54.7021	35.1563	56.3274	35.1563	54.5654	35.1563	56.1164	35.1563	54.6619	35.1563	55.8179	35.1563	55.0264	35.1563	55.4882	35.1563	55.6316	35.1563	55.2289	35.1563	56.403	35.1563	55.1805	35.1563	57.2528	35.1563	55.4655	35.1563	58.1058	35.1563	56.1024	35.1563	58.9064	35.1563	56.9853	35.1563	59.6159	35.1563	57.9573	35.1563	60.2068	35.1563	58.8869	35.1563	60.6582	35.1563	59.6906	35.1563	60.9531	35.1563	60.3244	35.1563	61.0772	35.1563	60.7687	35.1563	61.0185
36.6211	57.71	36.6211	57.4203	36.6211	57.9279	36.6211	57.0872	36.6211	58.0555	36.6211	56.7531	36.6211	58.0817	36.6211	56.4763	36.6211	58.0029	36.6211	56.3276	36.6211	57.8251	36.6211	56.3738	36.6211	57.5702	36.6211	56.6523	36.6211	57.2859	36.6211	57.1519	36.6211	57.0553	36.6211	57.8182	36.6211	56.9919	36.6211	58.5772	36.6211	57.2006	36.6211	59.3585	36.6211	57.7129	36.6211	60.1056	36.6211	58.4594	36.6211	60.777	36.6211	59.3134	36.6211	61.342	36.6211	60.1536	36.6211	61.7773	36.6211	60.8945	36.6211	62.0643	36.6211	61.4859	36.6211	62.1879	36.6211	61.9028	36.6211	62.1365
38.0859	59.061	38.0859	58.7979	38.0859	59.2622	38.0859	58.5007	38.0859	59.3832	38.0859	58.2088	38.0859	59.4132	38.0859	57.9744	38.0859	59.3487	38.0859	57.8584	38.0859	59.1958	38.0859	57.9163	38.0859	58.9758	38.0859	58.1786	38.0859	58.7329	38.0859	58.6368	38.0859	58.5414	38.0859	59.2465	38.0859	58.4995	38.0859	59.9451	38.0859	58.697	38.0859	60.6704	38.0859	59.1636	38.0859	61.37	38.0859	59.8444	38.0859	62.0033	38.0859	60.6313	38.0859	62.5393	38.0859	61.4148	38.0859	62.954	38.0859	62.1128	38.0859	63.2282	38.0859	62.6743	38.0859	63.3462	38.0859	63.0725	38.0859	63.2965
39.5508	60.6402	39.5508	60.4192	39.5508	60.8126	39.5508	60.1746	39.5508	60.9199	39.5508	59.9401	39.5508	60.952	39.5508	59.7584	39.5508	60.9063	39.5508	59.6772	39.5508	60.7894	39.5508	59.7391	39.5508	60.6212	39.5508	59.9686	39.5508	60.4406	39.5508	60.3623	39.5508	60.3086	39.5508	60.8893	39.5508	60.3025	39.5508	61.5019	39.5508	60.4912	39.5508	62.1484	39.5508	60.8995	39.5508	62.7817	39.5508	61.4894	39.5508	63.3628	39.5508	62.178	39.5508	63.8604	39.5508	62.8738	39.5508	64.249	39.5508	63.5021	39.5508	64.5086	39.5508	64.0128	39.5508	64.623	39.5508	64.3769	39.5508	64.581
41.0156	62.5727	41.0156	62.3682	41.0156	62.728	41.0156	62.1336	41.0156	62.821	41.0156	61.8946	41.0156	62.8435	41.0156	61.6845	41.0156	62.7931	41.0156	61.5422	41.0156	62.6745	41.0156	61.507	41.0156	62.5032	41.0156	61.6095	41.0156	62.3097	41.0156	61.8614	41.0156	62.1435	41.0156	62.2501	41.0156	62.0697	41.0156	62.7424	41.0156	62.1529	41.0156	63.2934	41.0156	62.4289	41.0156	63.8565	41.0156	62.8815	41.0156	64.3894	41.0156	63.4482	41.0156	64.8564	41.0156	64.0468	41.0156	65.2284	41.0156	64.603	41.0156	65.4823	41.0156	65.0622	41.0156	65.6007	41.0156	65.3907	41.0156	65.5717
42.4805	63.6222	42.4805	63.4222	42.4805	63.777	42.4805	63.1957	42.4805	63.8738	42.4805	62.9679	42.4805	63.905	42.4805	62.7715	42.4805	63.8687	42.4805	62.644	42.4805	63.7701	42.4805	62.6232	42.4805	63.6246	42.4805	62.7378	42.4805	63.4615	42.4805	62.9977	42.4805	63.3267	42.4805	63.3897	42.4805	63.2792	42.4805	63.8809	42.4805	63.3764	42.4805	64.4276	42.4805	63.6495	42.4805	64.9844	42.4805	64.0845	42.4805	65.5103	42.4805	64.6257	42.4805	65.9704	42.4805	65.1985	42.4805	66.3363	42.4805	65.7332	42.4805	66.5856	42.4805	66.1771	42.4805	66.7015	42.4805	66.4963	42.4805	66.6729
43.9453	64.8166	43.9453	64.6237	43.9453	64.9673	43.9453	64.4062	43.9453	65.0638	43.9453	64.1875	43.9453	65.0993	43.9453	63.9976	43.9453	65.072	43.9453	63.8716	43.9453	64.9871	43.9453	63.8443	43.9453	64.8593	43.9453	63.9432	43.9453	64.7158	43.9453	64.1791	43.9453	64.5983	43.9453	64.5419	43.9453	64.5598	43.9453	65.0027	43.9453	64.6516	43.9453	65.5211	43.9453	64.9024	43.9453	66.0539	43.9453	65.3017	43.9453	66.5609	43.9453	65.8012	43.9453	67.0077	43.9453	66.3334	43.9453	67.3657	43.9453	66.8331	43.9453	67.6123	43.9453	67.2492	43.9453	67.7308	43.9453	67.5477	43.9453	67.7103
45.4102	66.1272	45.4102	65.9508	45.4102	66.2698	45.4102	65.7569	45.4102	66.3675	45.4102	65.5666	45.4102	66.4135	45.4102	65.4061	45.4102	66.4062	45.4102	65.305	45.4102	66.3503	45.4102	65.2919	45.4102	66.2585	45.4102	65.3891	45.4102	66.1542	45.4102	65.6052	45.4102	66.0724	45.4102	65.9325	45.4102	66.0565	45.4102	66.3477	45.4102	66.1482	45.4102	66.8171	45.4102	66.3722	45.4102	67.3033	45.4102	66.7222	45.4102	67.7701	45.4102	67.1604	45.4102	68.1851	45.4102	67.6309	45.4102	68.5209	45.4102	68.0762	45.4102	68.7552	45.4102	68.449	45.4102	68.8714	45.4102	68.7163	45.4102	68.8594
46.875	67.4243	46.875	67.2618	46.875	67.5566	46.875	67.0836	46.875	67.6485	46.875	66.9085	46.875	67.6937	46.875	66.7593	46.875	67.6906	46.875	66.6616	46.875	67.6432	46.875	66.6405	46.875	67.5626	46.875	66.716	46.875	67.4694	46.875	66.8975	46.875	67.3939	46.875	67.1806	46.875	67.3737	46.875	67.5471	46.875	67.4461	46.875	67.9684	46.875	67.6344	46.875	68.4112	46.875	67.9364	46.875	68.8413	46.875	68.3221	46.875	69.2274	46.875	68.7429	46.875	69.5421	46.875	69.1466	46.875	69.7633	46.875	69.4878	46.875	69.8744	46.875	69.7338	46.875	69.8653
48.3398	68.6665	48.3398	68.5085	48.3398	68.7941	48.3398	68.3332	48.3398	68.882	48.3398	68.1576	48.3398	68.9247	48.3398	68.0025	48.3398	68.9209	48.3398	67.8919	48.3398	68.8742	48.3398	67.8499	48.3398	68.7949	48.3398	67.8968	48.3398	68.7017	48.3398	68.0442	48.3398	68.6221	48.3398	68.2908	48.3398	68.5908	48.3398	68.6219	48.3398	68.6426	48.3398	69.0118	48.3398	68.8009	48.3398	69.4288	48.3398	69.0663	48.3398	69.8392	48.3398	69.4138	48.3398	70.2114	48.3398	69.7995	48.3398	70.5177	48.3398	70.1738	48.3398	70.7352	48.3398	70.4924	48.3398	70.8471	48.3398	70.7223	48.3398	70.8433
51.2695	70.8221	51.2695	70.6824	51.2695	70.9408	51.2695	70.5328	51.2695	71.0303	51.2695	70.3871	51.2695	71.0857	51.2695	70.2623	51.2695	71.1055	51.2695	70.1766	51.2695	71.0924	51.2695	70.1486	51.2695	71.0542	51.2695	70.1936	51.2695	71.0049	51.2695	70.3205	51.2695	70.9649	51.2695	70.5293	51.2695	70.9595	51.2695	70.8097	51.2695	71.014	51.2695	71.1424	51.2695	71.1463	51.2695	71.5021	51.2695	71.3588	51.2695	71.8608	51.2695	71.6354	51.2695	72.1906	51.2695	71.9445	51.2695	72.4663	51.2695	72.2471	51.2695	72.6666	51.2695	72.506	51.2695	72.7756	51.2695	72.6915	51.2695	72.7842
52.7344	71.9391	52.7344	71.8067	52.7344	72.0522	52.7344	71.6652	52.7344	72.1388	52.7344	71.527	52.7344	72.1941	52.7344	71.4071	52.7344	72.2167	52.7344	71.3218	52.7344	72.2085	52.7344	71.2878	52.7344	72.1762	52.7344	71.3191	52.7344	72.1322	52.7344	71.4246	52.7344	72.0941	52.7344	71.6056	52.7344	72.0842	52.7344	71.8541	52.7344	72.1255	52.7344	72.1539	52.7344	72.2348	52.7344	72.4823	52.7344	72.4163	52.7344	72.8134	52.7344	72.6575	52.7344	73.1209	52.7344	72.9312	52.7344	73.3801	52.7344	73.2026	52.7344	73.57	52.7344	73.4365	52.7344	73.6753	52.7344	73.6043	52.7344	73.6869
54.1992	72.9352	54.1992	72.8099	54.1992	73.0433	54.1992	72.6765	54.1992	73.1274	54.1992	72.5464	54.1992	73.1832	54.1992	72.433	54.1992	73.209	54.1992	72.3508	54.1992	73.2066	54.1992	72.3147	54.1992	73.1817	54.1992	72.3374	54.1992	73.1448	54.1992	72.4276	54.1992	73.1115	54.1992	72.5869	54.1992	73.1015	54.1992	72.8092	54.1992	73.1348	54.1992	73.0806	54.1992	73.2272	54.1992	73.3811	54.1992	73.3834	54.1992	73.6868	54.1992	73.594	54.1992	73.973	54.1992	73.836	54.1992	74.2161	54.1992	74.0781	54.1992	74.3959	54.1992	74.2882	54.1992	74.4973	54.1992	74.439	54.1992	74.5117
55.6641	73.8854	55.6641	73.7679	55.6641	73.9875	55.6641	73.6432	55.6641	74.068	55.6641	73.5216	55.6641	74.1227	55.6641	73.415	55.6641	74.1502	55.6641	73.3366	55.6641	74.1519	55.6641	73.2997	55.6641	74.1329	55.6641	73.3161	55.6641	74.1026	55.6641	73.3937	55.6641	74.0749	55.6641	73.535	55.6641	74.0671	55.6641	73.7354	55.6641	74.0973	55.6641	73.9829	55.6641	74.1799	55.6641	74.2598	55.6641	74.3196	55.6641	74.5443	55.6641	74.5087	55.6641	74.8131	55.6641	74.7268	55.6641	75.0435	55.6641	74.9459	55.6641	75.216	55.6641	75.1361	55.6641	75.3157	55.6641	75.2715	55.6641	75.3343
58.5938	75.6864	58.5938	75.5768	58.5938	75.7839	58.5938	75.462	58.5938	75.8641	58.5938	75.3501	58.5938	75.9235	58.5938	75.251	58.5938	75.9605	58.5938	75.1751	58.5938	75.9759	58.5938	75.1335	58.5938	75.9732	58.5938	75.1359	58.5938	75.9593	58.5938	75.1898	58.5938	75.9446	58.5938	75.2986	58.5938	75.9422	58.5938	75.4599	58.5938	75.9662	58.5938	75.6654	58.5938	76.0282	58.5938	75.9012	58.5938	76.1333	58.5938	76.149	58.5938	76.2769	58.5938	76.3884	58.5938	76.4442	58.5938	76.5988	58.5938	76.6129	58.5938	76.7619	58.5938	76.7582	58.5938	76.8635	58.5938	76.8579	58.5938	76.8956
60.0586	76.6277	60.0586	76.5205	60.0586	76.7237	60.0586	76.4084	60.0586	76.8038	60.0586	76.2989	60.0586	76.8647	60.0586	76.2007	60.0586	76.9046	60.0586	76.1235	60.0586	76.9239	60.0586	76.0772	60.0586	76.9255	60.0586	76.0711	60.0586	76.9154	60.0586	76.1124	60.0586	76.9023	60.0586	76.2048	60.0586	76.8979	60.0586	76.347	60.0586	76.9149	60.0586	76.5321	60.0586	76.964	60.0586	76.7479	60.0586	77.0506	60.0586	76.9776	60.0586	77.1716	60.0586	77.2021	60.0586	77.3147	60.0586	77.4017	60.0586	77.4602	60.0586	77.5589	60.0586	77.5854	60.0586	77.6599	60.0586	77.6694	60.0586	77.6968
62.9883	78.3082	62.9883	78.2122	62.9883	78.397	62.9883	78.1139	62.9883	78.4745	62.9883	78.0194	62.9883	78.5378	62.9883	77.9358	62.9883	78.5852	62.9883	77.8706	62.9883	78.6166	62.9883	77.8318	62.9883	78.6339	62.9883	77.827	62.9883	78.6411	62.9883	77.862	62.9883	78.6446	62.9883	77.9404	62.9883	78.6528	62.9883	78.0616	62.9883	78.6753	62.9883	78.2208	62.9883	78.7202	62.9883	78.4083	62.9883	78.792	62.9883	78.6104	62.9883	78.8887	62.9883	78.8107	62.9883	79.0012	62.9883	78.992	62.9883	79.1143	62.9883	79.1382	62.9883	79.2096	62.9883	79.2369	62.9883	79.2695	62.9883	79.2808
64.4531	78.9486	64.4531	78.8582	64.4531	79.0337	64.4531	78.7671	64.4531	79.11	64.4531	78.6804	64.4531	79.1748	64.4531	78.6044	64.4531	79.2263	64.4531	78.5455	64.4531	79.2643	64.4531	78.5109	64.4531	79.29	64.4531	78.5069	64.4531	79.3065	64.4531	78.5392	64.4531	79.3189	64.4531	78.6109	64.4531	79.3342	64.4531	78.7219	64.4531	79.3601	64.4531	78.8682	64.4531	79.4036	64.4531	79.0416	64.4531	79.4686	64.4531	79.2298	64.4531	79.5538	64.4531	79.418	64.4531	79.6514	64.4531	79.5902	64.4531	79.7483	64.4531	79.7313	64.4531	79.8281	64.4531	79.8295	64.4531	79.8752	64.4531	79.8777
67.3828	79.8915	67.3828	79.8064	67.3828	79.974	67.3828	79.7221	67.3828	80.0509	67.3828	79.6426	67.3828	80.12	67.3828	79.5725	67.3828	80.1795	67.3828	79.5168	67.3828	80.2283	67.3828	79.481	67.3828	80.2667	67.3828	79.4704	67.3828	80.2959	67.3828	79.4898	67.3828	80.3188	67.3828	79.5424	67.3828	80.3398	67.3828	79.6293	67.3828	80.3641	67.3828	79.7481	67.3828	80.3969	67.3828	79.8931	67.3828	80.4418	67.3828	80.0547	67.3828	80.4985	67.3828	80.2206	67.3828	80.5622	67.3828	80.3772	67.3828	80.6233	67.3828	80.511	67.3828	80.6695	67.3828	80.611	67.3828	80.6885	67.3828	80.6705
68.8477	80.2561	68.8477	80.1717	68.8477	80.3387	68.8477	80.0886	68.8477	80.4169	68.8477	80.0104	68.8477	80.4884	68.8477	79.9409	68.8477	80.5514	68.8477	79.8847	68.8477	80.6047	68.8477	79.8466	68.8477	80.6477	68.8477	79.8315	68.8477	80.6811	68.8477	79.844	68.8477	80.707	68.8477	79.8874	68.8477	80.7286	68.8477	79.9629	68.8477	80.7504	68.8477	80.0692	68.8477	80.7768	68.8477	80.2012	68.8477	80.8112	68.8477	80.3507	68.8477	80.8538	68.8477	80.5066	68.8477	80.9009	68.8477	80.6561	68.8477	80.9448	68.8477	80.7865	68.8477	80.9749	68.8477	80.8876	68.8477	80.9804	68.8477	80.9526
71.7773	81.1576	71.7773	81.082	71.7773	81.2349	71.7773	81.0102	71.7773	81.3117	71.7773	80.9448	71.7773	81.3861	71.7773	80.8884	71.7773	81.456	71.7773	80.8442	71.7773	81.5198	71.7773	80.8157	71.7773	81.5762	71.7773	80.8063	71.7773	81.6243	71.7773	80.8195	71.7773	81.6644	71.7773	80.8579	71.7773	81.6976	71.7773	80.9229	71.7773	81.7262	71.7773	81.0137	71.7773	81.7528	71.7773	81.1268	71.7773	81.7798	71.7773	81.2561	71.7773	81.8078	71.7773	81.3927	71.7773	81.835	71.7773	81.5263	71.7773	81.8564	71.7773	81.6463	71.7773	81.8648	71.7773	81.7438	71.7773	81.8524	71.7773	81.813
74.707	81.5134	74.707	81.448	74.707	81.5831	74.707	81.3883	74.707	81.6557	74.707	81.3354	74.707	81.7296	74.707	81.2908	74.707	81.8027	74.707	81.2561	74.707	81.8728	74.707	81.2334	74.707	81.9375	74.707	81.2249	74.707	81.9946	74.707	81.2333	74.707	82.0427	74.707	81.2608	74.707	82.081	74.707	81.3089	74.707	82.11	74.707	81.378	74.707	82.1311	74.707	81.4663	74.707	82.1461	74.707	81.57	74.707	82.1564	74.707	81.6827	74.707	82.1617	74.707	81.7967	74.707	82.1598	74.707	81.9034	74.707	82.1466	74.707	81.9953	74.707	82.117	74.707	82.0671
77.6367	81.4935	77.6367	81.4285	77.6367	81.5638	77.6367	81.3698	77.6367	81.6382	77.6367	81.3178	77.6367	81.7152	77.6367	81.2733	77.6367	81.7924	77.6367	81.2371	77.6367	81.8671	77.6367	81.2105	77.6367	81.9363	77.6367	81.1951	77.6367	81.9968	77.6367	81.193	77.6367	82.0461	77.6367	81.2062	77.6367	82.0824	77.6367	81.2368	77.6367	82.105	77.6367	81.2857	77.6367	82.1146	77.6367	81.3527	77.6367	82.1127	77.6367	81.4356	77.6367	82.1013	77.6367	81.5302	77.6367	82.0816	77.6367	81.6305	77.6367	82.0536	77.6367	81.7297	77.6367	82.0157	77.6367	81.8213	77.6367	81.9653	77.6367	81.9006
79.1016	81.6529	79.1016	81.5912	79.1016	81.7213	79.1016	81.5367	79.1016	81.7953	79.1016	81.4897	79.1016	81.8734	79.1016	81.4503	79.1016	81.9532	79.1016	81.4189	79.1016	82.0318	79.1016	81.3962	79.1016	82.1058	79.1016	81.3834	79.1016	82.1716	79.1016	81.3821	79.1016	82.2262	79.1016	81.3941	79.1016	82.267	79.1016	81.4212	79.1016	82.2926	79.1016	81.4647	79.1016	82.3032	79.1016	81.5248	79.1016	82.2998	79.1016	81.6001	79.1016	82.2843	79.1016	81.6874	79.1016	82.2583	79.1016	81.7817	79.1016	82.2225	79.1016	81.8771	79.1016	82.1765	79.1016	81.9679	79.1016	82.1191	79.1016	82.0494
82.0313	82.0052	82.0313	81.9509	82.0313	82.0669	82.0313	81.9035	82.0313	82.1352	82.0313	81.8626	82.0313	82.2092	82.0313	81.8275	82.0313	82.2867	82.0313	81.7978	82.0313	82.3647	82.0313	81.7732	82.0313	82.4396	82.0313	81.7543	82.0313	82.5072	82.0313	81.742	82.0313	82.5632	82.0313	81.7381	82.0313	82.604	82.0313	81.7446	82.0313	82.6268	82.0313	81.7638	82.0313	82.6304	82.0313	81.7975	82.0313	82.6149	82.0313	81.8463	82.0313	82.582	82.0313	81.9096	82.0313	82.5344	82.0313	81.985	82.0313	82.4746	82.0313	82.0687	82.0313	82.405	82.0313	82.1564	82.0313	82.3274	82.0313	82.2437
84.9609	81.8976	84.9609	81.8479	84.9609	81.9532	84.9609	81.8032	84.9609	82.0149	84.9609	81.7623	84.9609	82.082	84.9609	81.7237	84.9609	82.1527	84.9609	81.6864	84.9609	82.2241	84.9609	81.6498	84.9609	82.2922	84.9609	81.6141	84.9609	82.3523	84.9609	81.5803	84.9609	82.3995	84.9609	81.5507	84.9609	82.4291	84.9609	81.5281	84.9609	82.4377	84.9609	81.5162	84.9609	82.4232	84.9609	81.5184	84.9609	82.3859	84.9609	81.5376	84.9609	82.3281	84.9609	81.5752	84.9609	82.2534	84.9609	81.6308	84.9609	82.1666	84.9609	81.7022	84.9609	82.0724	84.9609	81.786	84.9609	81.975	84.9609	81.8783
87.8906	81.9274	87.8906	81.8785	87.8906	81.9838	87.8906	81.8358	87.8906	82.0478	87.8906	81.7978	87.8906	82.1187	87.8906	81.7628	87.8906	82.1944	87.8906	81.7292	87.8906	82.2713	87.8906	81.6961	87.8906	82.3449	87.8906	81.6633	87.8906	82.41	87.8906	81.6317	87.8906	82.4608	87.8906	81.6033	87.8906	82.4922	87.8906	81.5809	87.8906	82.5004	87.8906	81.5681	87.8906	82.4833	87.8906	81.5683	87.8906	82.4414	87.8906	81.5845	87.8906	82.3776	87.8906	81.6183	87.8906	82.2965	87.8906	81.6697	87.8906	82.2038	87.8906	81.7371	87.8906	82.1051	87.8906	81.8177	87.8906	82.0052	87.8906	81.9082
90.8203	81.679	90.8203	81.6242	90.8203	81.7516	90.8203	81.5865	90.8203	81.8416	90.8203	81.5646	90.8203	81.9473	90.8203	81.5565	90.8203	82.0657	90.8203	81.5602	90.8203	82.1923	90.8203	81.5741	90.8203	82.3216	90.8203	81.5968	90.8203	82.4472	90.8203	81.6278	90.8203	82.5626	90.8203	81.6671	90.8203	82.6613	90.8203	81.7155	90.8203	82.7382	90.8203	81.7742	90.8203	82.7894	90.8203	81.8443	90.8203	82.8131	90.8203	81.9266	90.8203	82.8091	90.8203	82.0207	90.8203	82.7791	90.8203	82.125	90.8203	82.7258	90.8203	82.236	90.8203	82.6524	90.8203	82.3493	90.8203	82.5623	90.8203	82.4598
95.2148	81.92	95.2148	81.8897	95.2148	81.9589	95.2148	81.865	95.2148	82.0083	95.2148	81.8423	95.2148	82.0688	95.2148	81.818	95.2148	82.1391	95.2148	81.7886	95.2148	82.2159	95.2148	81.7516	95.2148	82.2943	95.2148	81.7056	95.2148	82.3674	95.2148	81.6504	95.2148	82.4272	95.2148	81.5877	95.2148	82.4658	95.2148	81.5208	95.2148	82.4756	95.2148	81.4549	95.2148	82.4512	95.2148	81.3966	95.2148	82.3899	95.2148	81.3533	95.2148	82.2931	95.2148	81.3327	95.2148	82.166	95.2148	81.3414	95.2148	82.0179	95.2148	81.3838	95.2148	81.8608	95.2148	81.4613	95.2148	81.7078	95.2148	81.5714
98.1445	81.7258	98.1445	81.6898	98.1445	81.7755	98.1445	81.6653	98.1445	81.8399	98.1445	81.6492	98.1445	81.9183	98.1445	81.638	98.1445	82.0084	98.1445	81.6278	98.1445	82.106	98.1445	81.6155	98.1445	82.2051	98.1445	81.5985	98.1445	82.2984	98.1445	81.5755	98.1445	82.3777	98.1445	81.5467	98.1445	82.4349	98.1445	81.5141	98.1445	82.4628	98.1445	81.4812	98.1445	82.456	98.1445	81.4532	98.1445	82.4125	98.1445	81.4362	98.1445	82.3338	98.1445	81.4367	98.1445	82.2253	98.1445	81.4603	98.1445	82.0959	98.1445	81.5107	98.1445	81.9566	98.1445	81.5892	98.1445	81.819	98.1445	81.6938
101.074	81.908	101.074	81.8772	101.074	81.9527	101.074	81.8575	101.074	82.0125	101.074	81.8454	101.074	82.0875	101.074	81.8368	101.074	82.1754	101.074	81.8277	101.074	82.2723	101.074	81.8148	101.074	82.3723	101.074	81.7954	101.074	82.4677	101.074	81.7683	101.074	82.5499	101.074	81.7338	101.074	82.6103	101.074	81.694	101.074	82.6407	101.074	81.653	101.074	82.6354	101.074	81.6164	101.074	82.5914	101.074	81.591	101.074	82.51	101.074	81.5841	101.074	82.3966	101.074	81.6022	101.074	82.2604	101.074	81.6498	101.074	82.1133	101.074	81.7287	101.074	81.9681	101.074	81.8368
105.469	81.7259	105.469	81.6965	105.469	81.7712	105.469	81.6804	105.469	81.8337	105.469	81.6739	105.469	81.913	105.469	81.6729	105.469	82.007	105.469	81.6729	105.469	82.1115	105.469	81.6702	105.469	82.2203	105.469	81.6616	105.469	82.3257	105.469	81.6451	105.469	82.4186	105.469	81.6205	105.469	82.4898	105.469	81.5893	105.469	82.5306	105.469	81.5548	105.469	82.5344	105.469	81.5226	105.469	82.4977	105.469	81.4995	105.469	82.4211	105.469	81.493	105.469	82.31	105.469	81.5104	105.469	82.174	105.469	81.5573	105.469	82.0254	105.469	81.636	105.469	81.8781	105.469	81.745
108.398	81.7817	108.398	81.7501	108.398	81.8278	108.398	81.7306	108.398	81.8897	108.398	81.7197	108.398	81.9669	108.398	81.7134	108.398	82.0573	108.398	81.7073	108.398	82.1568	108.398	81.6976	108.398	82.2594	108.398	81.681	108.398	82.3575	108.398	81.6554	108.398	82.4423	108.398	81.6205	108.398	82.5044	108.398	81.5778	108.398	82.5352	108.398	81.5308	108.398	82.5281	108.398	81.4855	108.398	82.4797	108.398	81.4492	108.398	82.3908	108.398	81.4306	108.398	82.2672	108.398	81.4381	108.398	82.1188	108.398	81.4781	108.398	81.9592	108.398	81.5541	108.398	81.8032	108.398	81.6645
112.793	82.2414	112.793	82.2146	112.793	82.2814	112.793	82.1981	112.793	82.336	112.793	82.1882	112.793	82.4052	112.793	82.1804	112.793	82.4868	112.793	82.17	112.793	82.5773	112.793	82.1525	112.793	82.6707	112.793	82.1244	112.793	82.7595	112.793	82.0834	112.793	82.8349	112.793	82.0292	112.793	82.8873	112.793	81.9636	112.793	82.9075	112.793	81.8911	112.793	82.8885	112.793	81.8188	112.793	82.8264	112.793	81.7562	112.793	82.7219	112.793	81.714	112.793	82.5808	112.793	81.7026	112.793	82.4142	112.793	81.7306	112.793	82.2368	112.793	81.8024	112.793	82.0656	112.793	81.9165
117.188	82.0817	117.188	82.0549	117.188	82.1217	117.188	82.0386	117.188	82.1762	117.188	82.0289	117.188	82.2452	117.188	82.0215	117.188	82.3268	117.188	82.0117	117.188	82.4172	117.188	81.9951	117.188	82.5106	117.188	81.968	117.188	82.5994	117.188	81.928	117.188	82.6743	117.188	81.8747	117.188	82.7255	117.188	81.8098	117.188	82.7439	117.188	81.7375	117.188	82.7223	117.188	81.6648	117.188	82.657	117.188	81.6006	117.188	82.5491	117.188	81.5557	117.188	82.4051	117.188	81.5407	117.188	82.2364	117.188	81.5643	117.188	82.0584	117.188	81.6315	117.188	81.8881	117.188	81.7417
120.117	82.5528	120.117	82.5293	120.117	82.5883	120.117	82.5149	120.117	82.6378	120.117	82.5054	120.117	82.7017	120.117	82.4964	120.117	82.7788	120.117	82.4831	120.117	82.8657	120.117	82.4613	120.117	82.957	120.117	82.4274	120.117	83.0451	120.117	82.3792	120.117	83.1206	120.117	82.3165	120.117	83.1732	120.117	82.2412	120.117	83.1929	120.117	82.1579	120.117	83.1716	120.117	82.074	120.117	83.1046	120.117	81.9994	120.117	82.9922	120.117	81.9457	120.117	82.8405	120.117	81.9246	120.117	82.6615	120.117	81.9459	120.117	82.4714	120.117	82.0154	120.117	82.289	120.117	82.1324
124.512	82.4415	124.512	82.4149	124.512	82.4819	124.512	82.3987	124.512	82.5381	124.512	82.3888	124.512	82.6103	124.512	82.3803	124.512	82.6975	124.512	82.368	124.512	82.7961	124.512	82.3469	124.512	82.9005	124.512	82.3132	124.512	83.0029	124.512	82.2643	124.512	83.0931	124.512	82.1995	124.512	83.16	124.512	82.121	124.512	83.1922	124.512	82.0337	124.512	83.1802	124.512	81.9461	124.512	83.1178	124.512	81.8691	124.512	83.0041	124.512	81.816	124.512	82.8446	124.512	81.8	124.512	82.6512	124.512	81.8322	124.512	82.4415	124.512	81.9182	124.512	82.2362	124.512	82.0562
128.906	82.417	128.906	82.3921	128.906	82.4529	128.906	82.3751	128.906	82.5015	128.906	82.3621	128.906	82.5632	128.906	82.3482	128.906	82.6367	128.906	82.3281	128.906	82.7192	128.906	82.2967	128.906	82.8055	128.906	82.2497	128.906	82.8886	128.906	82.1843	128.906	82.9591	128.906	82.0999	128.906	83.0064	128.906	81.9985	128.906	83.0194	128.906	81.8858	128.906	82.9888	128.906	81.7708	128.906	82.9082	128.906	81.6662	128.906	82.7769	128.906	81.5868	128.906	82.6004	128.906	81.548	128.906	82.3916	128.906	81.5626	128.906	82.169	128.906	81.6376	128.906	81.955	128.906	81.7719
133.301	82.5443	133.301	82.5205	133.301	82.579	133.301	82.5049	133.301	82.6263	133.301	82.4935	133.301	82.6862	133.301	82.4815	133.301	82.7575	133.301	82.4632	133.301	82.8371	133.301	82.4336	133.301	82.9201	133.301	82.3878	133.301	82.9994	133.301	82.3227	133.301	83.0655	133.301	82.2373	133.301	83.1077	133.301	82.1334	133.301	83.1148	133.301	82.0164	133.301	83.0773	133.301	81.8951	133.301	82.989	133.301	81.7822	133.301	82.8497	133.301	81.6926	133.301	82.6658	133.301	81.6423	133.301	82.4513	133.301	81.6451	133.301	82.2261	133.301	81.7094	133.301	82.0132	133.301	81.8351
139.16	82.5453	139.16	82.5204	139.16	82.5844	139.16	82.5069	139.16	82.6392	139.16	82.5011	139.16	82.7099	139.16	82.498	139.16	82.7954	139.16	82.4921	139.16	82.8927	139.16	82.4775	139.16	82.9969	139.16	82.4492	139.16	83.1002	139.16	82.4034	139.16	83.1923	139.16	82.3382	139.16	83.261	139.16	82.2549	139.16	83.2935	139.16	82.158	139.16	83.2788	139.16	82.0559	139.16	83.2094	139.16	81.9606	139.16	83.0843	139.16	81.8869	139.16	82.9097	139.16	81.8506	139.16	82.6996	139.16	81.8654	139.16	82.4744	139.16	81.9398	139.16	82.2581	139.16	82.0739
143.555	82.655	143.555	82.6257	143.555	82.6972	143.555	82.6067	143.555	82.7539	143.555	82.5941	143.555	82.8256	143.555	82.5835	143.555	82.9119	143.555	82.5693	143.555	83.0108	143.555	82.5462	143.555	83.1178	143.555	82.5092	143.555	83.2258	143.555	82.455	143.555	83.3245	143.555	82.3822	143.555	83.401	143.555	82.2928	143.555	83.4414	143.555	82.1918	143.555	83.4333	143.555	82.0885	143.555	83.3678	143.555	81.9955	143.555	83.2426	143.555	81.9279	143.555	83.0635	143.555	81.9015	143.555	82.8443	143.555	81.9298	143.555	82.6061	143.555	82.0203	143.555	82.3738	143.555	82.172
147.949	82.5685	147.949	82.5389	147.949	82.6112	147.949	82.5199	147.949	82.6684	147.949	82.508	147.949	82.741	147.949	82.4989	147.949	82.829	147.949	82.4871	147.949	82.931	147.949	82.4673	147.949	83.0435	147.949	82.4344	147.949	83.16	147.949	82.3851	147.949	83.2705	147.949	82.3182	147.949	83.3622	147.949	82.2354	147.949	83.4204	147.949	82.1425	147.949	83.4316	147.949	82.0488	147.949	83.3855	147.949	81.9673	147.949	83.278	147.949	81.9135	147.949	83.113	147.949	81.9029	147.949	82.9028	147.949	81.9479	147.949	82.6674	147.949	82.0547	147.949	82.4315	147.949	82.2202
153.809	82.9391	153.809	82.8925	153.809	82.9896	153.809	82.8491	153.809	83.0439	153.809	82.8072	153.809	83.1019	153.809	82.7641	153.809	83.1633	153.809	82.716	153.809	83.2278	153.809	82.6584	153.809	83.2943	153.809	82.5873	153.809	83.3595	153.809	82.4999	153.809	83.4175	153.809	82.3952	153.809	83.4592	153.809	82.2757	153.809	83.4727	153.809	82.1475	153.809	83.4459	153.809	82.0207	153.809	83.3684	153.809	81.9097	153.809	83.2354	153.809	81.8312	153.809	83.0494	153.809	81.8019	153.809	82.8217	153.809	81.8354	153.809	82.5717	153.809	81.9378	153.809	82.3242	153.809	82.1055
159.668	83.228	159.668	83.1745	159.668	83.2871	159.668	83.126	159.668	83.3511	159.668	83.0804	159.668	83.4187	159.668	83.0341	159.668	83.4878	159.668	82.9825	159.668	83.5556	159.668	82.9199	159.668	83.6183	159.668	82.8412	159.668	83.6703	159.668	82.7425	159.668	83.7039	159.668	82.622	159.668	83.7098	159.668	82.4815	159.668	83.6778	159.668	82.3268	159.668	83.5988	159.668	82.1683	159.668	83.4668	159.668	82.0208	159.668	83.2814	159.668	81.9027	159.668	83.0496	159.668	81.8333	159.668	82.7865	159.668	81.8292	159.668	82.5141	159.668	81.9007	159.668	82.2591	159.668	82.0477
165.527	83.2646	165.527	83.2135	165.527	83.3199	165.527	83.1664	165.527	83.3786	165.527	83.1221	165.527	83.4402	165.527	83.0779	165.527	83.5041	165.527	83.0294	165.527	83.5695	165.527	82.9717	165.527	83.6344	165.527	82.8997	165.527	83.6948	165.527	82.8098	165.527	83.7431	165.527	82.7004	165.527	83.7694	165.527	82.5737	165.527	83.7616	165.527	82.4355	165.527	83.7087	165.527	82.2963	165.527	83.603	165.527	82.1706	165.527	83.4428	165.527	82.0755	165.527	83.2341	165.527	82.0283	165.527	82.991	165.527	82.0432	165.527	82.7344	165.527	82.1278	165.527	82.4892	165.527	82.2804
171.387	83.2443	171.387	83.1986	171.387	83.2924	171.387	83.1553	171.387	83.3427	171.387	83.1134	171.387	83.3952	171.387	83.0709	171.387	83.4508	171.387	83.0241	171.387	83.5097	171.387	82.9682	171.387	83.5712	171.387	82.8984	171.387	83.6315	171.387	82.811	171.387	83.6834	171.387	82.7043	171.387	83.7157	171.387	82.5801	171.387	83.7156	171.387	82.4438	171.387	83.6705	171.387	82.3058	171.387	83.5717	171.387	82.1801	171.387	83.4168	171.387	82.0836	171.387	83.2119	171.387	82.0335	171.387	82.9715	171.387	82.0442	171.387	82.7176	171.387	82.1238	171.387	82.4759	171.387	82.2714
177.246	83.2012	177.246	83.16	177.246	83.2439	177.246	83.1202	177.246	83.2885	177.246	83.0807	177.246	83.3356	177.246	83.039	177.246	83.3867	177.246	82.9907	177.246	83.4435	177.246	82.9307	177.246	83.5062	177.246	82.8536	177.246	83.5716	177.246	82.7554	177.246	83.632	177.246	82.6348	177.246	83.6754	177.246	82.4944	177.246	83.6864	177.246	82.3416	177.246	83.6502	177.246	82.1885	177.246	83.5558	177.246	82.0517	177.246	83.3996	177.246	81.9499	177.246	83.1871	177.246	81.9013	177.246	82.9337	177.246	81.9201	177.246	82.6628	177.246	82.0133	177.246	82.402	177.246	82.1783
183.105	83.1721	183.105	83.1231	183.105	83.2203	183.105	83.0743	183.105	83.2668	183.105	83.026	183.105	83.3117	183.105	82.9768	183.105	83.3565	183.105	82.9231	183.105	83.4038	183.105	82.8596	183.105	83.4551	183.105	82.7803	183.105	83.5094	183.105	82.68	183.105	83.5609	183.105	82.556	183.105	83.5986	183.105	82.4098	183.105	83.6078	183.105	82.248	183.105	83.5724	183.105	82.0834	183.105	83.4798	183.105	81.9338	183.105	83.3239	183.105	81.8204	183.105	83.1085	183.105	81.764	183.105	82.8478	183.105	81.7808	183.105	82.5654	183.105	81.8785	183.105	82.2907	183.105	82.0535
188.965	83.2804	188.965	83.2218	188.965	83.3327	188.965	83.158	188.965	83.3784	188.965	83.0895	188.965	83.4182	188.965	83.0154	188.965	83.454	188.965	82.9338	188.965	83.4888	188.965	82.8412	188.965	83.525	188.965	82.7341	188.965	83.5622	188.965	82.6096	188.965	83.5958	188.965	82.4669	188.965	83.6158	188.965	82.3087	188.965	83.6086	188.965	82.1423	188.965	83.5592	188.965	81.9798	188.965	83.4557	188.965	81.8378	188.965	83.2922	188.965	81.7353	188.965	83.0724	188.965	81.6912	188.965	82.8097	188.965	81.7197	188.965	82.5262	188.965	81.827	188.965	82.2498	188.965	82.0087
196.289	83.4464	196.289	83.3902	196.289	83.4954	196.289	83.3284	196.289	83.5361	196.289	83.2615	196.289	83.5687	196.289	83.1882	196.289	83.5951	196.289	83.1055	196.289	83.6182	196.289	83.0089	196.289	83.6406	196.289	82.8934	196.289	83.662	196.289	82.7557	196.289	83.6776	196.289	82.5949	196.289	83.6777	196.289	82.4147	196.289	83.6487	196.289	82.2237	196.289	83.5768	196.289	82.0361	196.289	83.4515	196.289	81.8704	196.289	83.269	196.289	81.7474	196.289	83.0346	196.289	81.6864	196.289	82.7632	196.289	81.7013	196.289	82.4773	196.289	81.7973	196.289	82.2039	196.289	81.9697
203.613	83.3938	203.613	83.3357	203.613	83.4391	203.613	83.2667	203.613	83.4705	203.613	83.1882	203.613	83.4888	203.613	83.1002	203.613	83.4974	203.613	83.0008	203.613	83.5021	203.613	82.8865	203.613	83.5083	203.613	82.7535	203.613	83.5186	203.613	82.5987	203.613	83.5292	203.613	82.4217	203.613	83.5292	203.613	82.226	203.613	83.5018	203.613	82.0204	203.613	83.429	203.613	81.8194	203.613	83.2973	203.613	81.6419	203.613	83.1018	203.613	81.5093	203.613	82.8492	203.613	81.441	203.613	82.5573	203.613	81.4514	203.613	82.2526	203.613	81.5463	203.613	81.9647	203.613	81.722
210.938	83.4098	210.938	83.3178	210.938	83.4848	210.938	83.2133	210.938	83.5389	210.938	83.0995	210.938	83.5708	210.938	82.9769	210.938	83.5828	210.938	82.8434	210.938	83.5806	210.938	82.6947	210.938	83.5713	210.938	82.5268	210.938	83.5604	210.938	82.3372	210.938	83.548	210.938	82.1278	210.938	83.5269	210.938	81.9053	210.938	83.4834	210.938	81.6826	210.938	83.4007	210.938	81.4775	210.938	83.2642	210.938	81.311	210.938	83.0663	210.938	81.2042	210.938	82.81	210.938	81.1742	210.938	82.5092	210.938	81.2303	210.938	82.1873	210.938	81.373	210.938	81.8724	210.938	81.5929
218.262	83.3746	218.262	83.2906	218.262	83.4412	218.262	83.194	218.262	83.4863	218.262	83.0892	218.262	83.5089	218.262	82.9779	218.262	83.5116	218.262	82.8586	218.262	83.5002	218.262	82.7276	218.262	83.4817	218.262	82.5802	218.262	83.4612	218.262	82.413	218.262	83.4389	218.262	82.2256	218.262	83.4081	218.262	82.0228	218.262	83.3562	218.262	81.8144	218.262	83.2679	218.262	81.616	218.262	83.1303	218.262	81.4468	218.262	82.9372	218.262	81.3271	218.262	82.6926	218.262	81.2744	218.262	82.4109	218.262	81.3002	218.262	82.1153	218.262	81.4073	218.262	81.8328	218.262	81.5897
225.586	83.3702	225.586	83.2863	225.586	83.4287	225.586	83.1822	225.586	83.4589	225.586	83.0635	225.586	83.4619	225.586	82.934	225.586	83.4433	225.586	82.7948	225.586	83.4119	225.586	82.6444	225.586	83.3775	225.586	82.4803	225.586	83.3464	225.586	82.3012	225.586	83.3188	225.586	82.1087	225.586	83.2867	225.586	81.9089	225.586	83.2362	225.586	81.713	225.586	83.1516	225.586	81.5363	225.586	83.0208	225.586	81.3962	225.586	82.84	225.586	81.3089	225.586	82.6148	225.586	81.2862	225.586	82.3597	225.586	81.333	225.586	82.095	225.586	81.4472	225.586	81.8422	225.586	81.621
232.91	83.4244	232.91	83.3571	232.91	83.4619	232.91	83.2642	232.91	83.4675	232.91	83.1504	232.91	83.4434	232.91	83.0192	232.91	83.3959	232.91	82.8716	232.91	83.3355	232.91	82.7063	232.91	83.2738	232.91	82.5207	232.91	83.2193	232.91	82.3128	232.91	83.1727	232.91	82.0836	232.91	83.1248	232.91	81.8387	232.91	83.0577	232.91	81.5896	232.91	82.9508	232.91	81.3535	232.91	82.788	232.91	81.1513	232.91	82.5639	232.91	81.0036	232.91	82.2875	232.91	80.9266	232.91	81.9809	232.91	80.9289	232.91	81.6739	232.91	81.0115	232.91	81.396	232.91	81.1701
241.699	83.3968	241.699	83.3111	241.699	83.4537	241.699	83.2035	241.699	83.4763	241.699	83.0798	241.699	83.4629	241.699	82.943	241.699	83.4174	241.699	82.7924	241.699	83.3486	241.699	82.6242	241.699	83.2691	241.699	82.4333	241.699	83.1904	241.699	82.2157	241.699	83.1181	241.699	81.9713	241.699	83.0476	241.699	81.7059	241.699	82.9647	241.699	81.4325	241.699	82.8501	241.699	81.1711	241.699	82.6863	241.699	80.9461	241.699	82.4642	241.699	80.7821	241.699	82.1876	241.699	80.6987	241.699	81.8735	241.699	80.7065	241.699	81.5492	241.699	80.8062	241.699	81.2456	241.699	80.9907
250.488	83.3635	250.488	83.2357	250.488	83.4558	250.488	83.0818	250.488	83.505	250.488	82.9106	250.488	83.508	250.488	82.7278	250.488	83.4674	250.488	82.5349	250.488	83.3923	250.488	82.3298	250.488	83.2953	250.488	82.1081	250.488	83.1894	250.488	81.8664	250.488	83.0823	250.488	81.6046	250.488	82.9728	250.488	81.3283	250.488	82.8502	250.488	81.0505	250.488	82.6995	250.488	80.7912	250.488	82.5067	250.488	80.5752	250.488	82.2653	250.488	80.4277	250.488	81.9786	250.488	80.3677	250.488	81.6602	250.488	80.4039	250.488	81.3315	250.488	80.5334	250.488	81.0176	250.488	80.7441
259.277	83.543	259.277	83.4374	259.277	83.6136	259.277	83.3055	259.277	83.643	259.277	83.1557	259.277	83.6295	259.277	82.994	259.277	83.5772	259.277	82.8214	259.277	83.4957	259.277	82.6348	259.277	83.3974	259.277	82.4282	259.277	83.2939	259.277	82.1958	259.277	83.191	259.277	81.9351	259.277	83.0846	259.277	81.6494	259.277	82.9608	259.277	81.35	259.277	82.8009	259.277	81.0567	259.277	82.589	259.277	80.7967	259.277	82.3194	259.277	80.5991	259.277	82.0012	259.277	80.4885	259.277	81.6561	259.277	80.478	259.277	81.3135	259.277	80.5676	259.277	81.0025	259.277	80.7476
268.066	83.0125	268.066	82.8808	268.066	83.1126	268.066	82.7284	268.066	83.1729	268.066	82.5668	268.066	83.1907	268.066	82.4041	268.066	83.1694	268.066	82.2429	268.066	83.1184	268.066	82.0795	268.066	83.0498	268.066	81.9056	268.066	82.9736	268.066	81.7121	268.066	82.8925	268.066	81.4928	268.066	82.7982	268.066	81.2479	268.066	82.6733	268.066	80.9864	268.066	82.4985	268.066	80.7256	268.066	82.2604	268.066	80.4891	268.066	81.9589	268.066	80.3017	268.066	81.6095	268.066	80.1847	268.066	81.2413	268.066	80.1518	268.066	80.8895	268.066	80.2088	268.066	80.5866	268.066	80.3555
276.855	83.0801	276.855	82.9505	276.855	83.1643	276.855	82.7835	276.855	83.1986	276.855	82.5877	276.855	83.1838	276.855	82.3709	276.855	83.1273	276.855	82.1376	276.855	83.0422	276.855	81.8894	276.855	82.9437	276.855	81.6249	276.855	82.8443	276.855	81.3424	276.855	82.7479	276.855	81.0431	276.855	82.648	276.855	80.7348	276.855	82.5293	276.855	80.434	276.855	82.3736	276.855	80.1653	276.855	82.1661	276.855	79.9564	276.855	81.9009	276.855	79.8307	276.855	81.5842	276.855	79.8005	276.855	81.234	276.855	79.8661	276.855	80.8765	276.855	80.0192	276.855	80.5399	276.855	80.2483
287.109	83.3947	287.109	83.2914	287.109	83.4442	287.109	83.1438	287.109	83.4339	287.109	82.9614	287.109	83.3649	287.109	82.7501	287.109	83.2481	287.109	82.5107	287.109	83.1027	287.109	82.2396	287.109	82.9513	287.109	81.9314	287.109	82.8123	287.109	81.5819	287.109	82.6908	287.109	81.1924	287.109	82.5753	287.109	80.7738	287.109	82.4428	287.109	80.3495	287.109	82.2684	287.109	79.9568	287.109	82.036	287.109	79.6415	287.109	81.7435	287.109	79.4455	287.109	81.4022	287.109	79.3923	287.109	81.0317	287.109	79.4779	287.109	80.6542	287.109	79.677	287.109	80.2898	287.109	79.9569
297.363	83.3951	297.363	83.2994	297.363	83.424	297.363	83.1513	297.363	83.3765	297.363	82.9655	297.363	83.2529	297.363	82.7525	297.363	83.0673	297.363	82.5156	297.363	82.8481	297.363	82.251	297.363	82.6343	297.363	81.9497	297.363	82.4624	297.363	81.6021	297.363	82.3491	297.363	81.2027	297.363	82.2783	297.363	80.7559	297.363	82.2065	297.363	80.2806	297.363	82.0829	297.363	79.8138	297.363	81.8715	297.363	79.4084	297.363	81.5637	297.363	79.1226	297.363	81.1785	297.363	78.9995	297.363	80.7515	297.363	79.0482	297.363	80.3194	297.363	79.2431	297.363	79.9096	297.363	79.5426
307.617	83.0186	307.617	82.91	307.617	83.0899	307.617	82.7758	307.617	83.1119	307.617	82.6245	307.617	83.0764	307.617	82.4588	307.617	82.9826	307.617	82.2762	307.617	82.8399	307.617	82.0708	307.617	82.6684	307.617	81.8369	307.617	82.494	307.617	81.5713	307.617	82.3382	307.617	81.2751	307.617	82.2043	307.617	80.9542	307.617	82.0721	307.617	80.619	307.617	81.9053	307.617	80.2859	307.617	81.6706	307.617	79.978	307.617	81.3549	307.617	79.7234	307.617	80.9742	307.617	79.5498	307.617	80.5692	307.617	79.4763	307.617	80.189	307.617	79.5086	307.617	79.8731	307.617	79.643
319.336	82.5255	319.336	82.4183	319.336	82.5978	319.336	82.296	319.336	82.6184	319.336	82.1733	319.336	82.5788	319.336	82.0533	319.336	82.4825	319.336	81.9263	319.336	82.3436	319.336	81.7743	319.336	82.1842	319.336	81.5782	319.336	82.0276	319.336	81.3257	319.336	81.891	319.336	81.016	319.336	81.7783	319.336	80.6617	319.336	81.6772	319.336	80.288	319.336	81.5621	319.336	79.9301	319.336	81.4031	319.336	79.6276	319.336	81.1784	319.336	79.4159	319.336	80.8859	319.336	79.3156	319.336	80.5473	319.336	79.3272	319.336	80.2011	319.336	79.4365	319.336	79.8858	319.336	79.6266
329.59	82.5194	329.59	82.3993	329.59	82.585	329.59	82.2514	329.59	82.5774	329.59	82.1021	329.59	82.4918	329.59	81.9682	329.59	82.3397	329.59	81.8498	329.59	82.1486	329.59	81.7312	329.59	81.9566	329.59	81.5876	329.59	81.798	329.59	81.3945	329.59	81.6868	329.59	81.1353	329.59	81.6073	329.59	80.8058	329.59	81.5229	329.59	80.4177	329.59	81.3951	329.59	79.9999	329.59	81.2002	329.59	79.5981	329.59	80.9341	329.59	79.2673	329.59	80.6096	329.59	79.0564	329.59	80.2503	329.59	78.9913	329.59	79.8853	329.59	79.0684	329.59	79.5462	329.59	79.2637
341.309	82.1107	341.309	81.9007	341.309	82.2641	341.309	81.6803	341.309	82.3263	341.309	81.4951	341.309	82.2808	341.309	81.3736	341.309	82.1317	341.309	81.316	341.309	81.9046	341.309	81.2954	341.309	81.6429	341.309	81.2714	341.309	81.3967	341.309	81.2064	341.309	81.2039	341.309	81.0767	341.309	81.0723	341.309	80.8758	341.309	80.9761	341.309	80.615	341.309	80.8744	341.309	80.3203	341.309	80.7353	341.309	80.0294	341.309	80.5519	341.309	79.7849	341.309	80.3417	341.309	79.6222	341.309	80.1328	341.309	79.5568	341.309	79.9466	341.309	79.5792	341.309	79.7901	341.309	79.6644
353.027	82.3936	353.027	82.028	353.027	82.6384	353.027	81.5814	353.027	82.7434	353.027	81.1126	353.027	82.708	353.027	80.6896	353.027	82.5489	353.027	80.368	353.027	82.2978	353.027	80.1684	353.027	81.9973	353.027	80.0686	353.027	81.691	353.027	80.0199	353.027	81.4077	353.027	79.9712	353.027	81.1495	353.027	79.8864	353.027	80.892	353.027	79.7495	353.027	80.6009	353.027	79.5633	353.027	80.2533	353.027	79.3461	353.027	79.8537	353.027	79.1258	353.027	79.4392	353.027	78.9308	353.027	79.0705	353.027	78.7796	353.027	78.8046	353.027	78.6786	353.027	78.6647	353.027	78.6335
366.211	82.9627	366.211	82.5852	366.211	83.1914	366.211	82.0856	366.211	83.2585	366.211	81.5052	366.211	83.1666	366.211	80.9002	366.211	82.9381	366.211	80.3376	366.211	82.6199	366.211	79.8793	366.211	82.2814	366.211	79.5595	366.211	81.9968	366.211	79.3695	366.211	81.8097	366.211	79.2638	366.211	81.7023	366.211	79.182	366.211	81.6013	366.211	79.071	366.211	81.4157	366.211	78.8984	366.211	81.0775	366.211	78.658	366.211	80.5648	366.211	78.3711	366.211	79.9104	366.211	78.0825	366.211	79.1991	366.211	77.8501	366.211	78.5468	366.211	77.7342	366.211	78.0591	366.211	77.79
379.395	83.842	379.395	83.579	379.395	83.9563	379.395	83.1882	379.395	83.9106	379.395	82.6973	379.395	83.7059	379.395	82.1398	379.395	83.3605	379.395	81.5527	379.395	82.9159	379.395	80.9767	379.395	82.4422	379.395	80.454	379.395	82.0314	379.395	80.0227	379.395	81.768	379.395	79.7067	379.395	81.6809	379.395	79.5061	379.395	81.7205	379.395	79.3984	379.395	81.7891	379.395	79.3522	379.395	81.7937	379.395	79.3433	379.395	81.6797	379.395	79.3643	379.395	81.4379	379.395	79.4236	379.395	81.0961	379.395	79.5376	379.395	80.705	379.395	79.7217	379.395	80.3199	379.395	79.9842
392.578	83.6025	392.578	83.37	392.578	83.7127	392.578	83.0359	392.578	83.6884	392.578	82.6263	392.578	83.5269	392.578	82.1669	392.578	83.2371	392.578	81.6751	392.578	82.8434	392.578	81.1585	392.578	82.3911	392.578	80.6212	392.578	81.9472	392.578	80.0782	392.578	81.5868	392.578	79.5684	392.578	81.3622	392.578	79.1517	392.578	81.2737	392.578	78.8862	392.578	81.2701	392.578	78.7975	392.578	81.2797	392.578	78.8684	392.578	81.2442	392.578	79.0563	392.578	81.1357	392.578	79.3164	392.578	80.9575	392.578	79.6115	392.578	80.7311	392.578	79.9134	392.578	80.477	392.578	80.204
405.762	83.211	405.762	82.9692	405.762	83.3188	405.762	82.6148	405.762	83.2803	405.762	82.1776	405.762	83.0952	405.762	81.6931	405.762	82.7792	405.762	81.1963	405.762	82.3681	405.762	80.7133	405.762	81.9185	405.762	80.256	405.762	81.4988	405.762	79.8237	405.762	81.1663	405.762	79.4138	405.762	80.9421	405.762	79.0347	405.762	80.8042	405.762	78.7133	405.762	80.7092	405.762	78.4914	405.762	80.6213	405.762	78.4112	405.762	80.5251	405.762	78.493	405.762	80.4183	405.762	78.7198	405.762	80.2977	405.762	79.0396	405.762	80.1505	405.762	79.3856	405.762	79.9571	405.762	79.7014
420.41	83.6796	420.41	83.4154	420.41	83.8031	420.41	83.0358	420.41	83.7703	420.41	82.573	420.41	83.5758	420.41	82.0602	420.41	83.2277	420.41	81.5232	420.41	82.7539	420.41	80.9746	420.41	82.2101	420.41	80.4185	420.41	81.6819	420.41	79.866	420.41	81.2591	420.41	79.35	420.41	80.9841	420.41	78.9247	420.41	80.8165	420.41	78.642	420.41	80.6646	420.41	78.5201	420.41	80.4523	420.41	78.5328	420.41	80.1616	420.41	78.6305	420.41	79.834	420.41	78.7668	420.41	79.5392	420.41	78.9074	420.41	79.3292	420.41	79.0278	420.41	79.2041	420.41	79.1198
435.059	83.1824	435.059	82.9688	435.059	83.2735	435.059	82.6527	435.059	83.2295	435.059	82.2614	435.059	83.0462	435.059	81.8261	435.059	82.7313	435.059	81.3752	435.059	82.3117	435.059	80.9255	435.059	81.842	435.059	80.4784	435.059	81.4059	435.059	80.0287	435.059	81.0917	435.059	79.5825	435.059	80.9402	435.059	79.1726	435.059	80.9072	435.059	78.8552	435.059	80.8902	435.059	78.6803	435.059	80.7966	435.059	78.6575	435.059	80.5907	435.059	78.7491	435.059	80.2999	435.059	78.8988	435.059	79.9893	435.059	79.0609	435.059	79.72	435.059	79.213	435.059	79.5148	435.059	79.3567
451.172	83.4898	451.172	83.1847	451.172	83.6338	451.172	82.755	451.172	83.5918	451.172	82.2429	451.172	83.3545	451.172	81.6866	451.172	82.9313	451.172	81.1115	451.172	82.3551	451.172	80.5263	451.172	81.6901	451.172	79.9296	451.172	81.0376	451.172	79.3233	451.172	80.5195	451.172	78.7287	451.172	80.2183	451.172	78.1952	451.172	80.1111	451.172	77.7968	451.172	80.0799	451.172	77.604	451.172	79.996	451.172	77.6398	451.172	79.7945	451.172	77.8547	451.172	79.4979	451.172	78.1513	451.172	79.1936	451.172	78.433	451.172	78.9699	451.172	78.6395	451.172	78.8456	451.172	78.7619
465.82	83.3441	465.82	83.0978	465.82	83.4289	465.82	82.7219	465.82	83.3354	465.82	82.2612	465.82	83.0615	465.82	81.7638	465.82	82.6206	465.82	81.2661	465.82	82.0452	465.82	80.7775	465.82	81.3967	465.82	80.2784	465.82	80.7726	465.82	79.736	465.82	80.2873	465.82	79.129	465.82	80.0088	465.82	78.4722	465.82	79.8997	465.82	77.8325	465.82	79.8428	465.82	77.3194	465.82	79.7286	465.82	77.0357	465.82	79.5108	465.82	77.01	465.82	79.2056	465.82	77.1804	465.82	78.8634	465.82	77.445	465.82	78.5351	465.82	77.7234	465.82	78.2459	465.82	77.9854
483.398	83.0345	483.398	82.7686	483.398	83.1546	483.398	82.3875	483.398	83.1107	483.398	81.9325	483.398	82.8957	483.398	81.4465	483.398	82.513	483.398	80.9594	483.398	81.9798	483.398	80.4751	483.398	81.3378	483.398	79.973	483.398	80.6672	483.398	79.4257	483.398	80.0869	483.398	78.8198	483.398	79.7108	483.398	78.1701	483.398	79.5675	483.398	77.5232	483.398	79.5682	483.398	76.9548	483.398	79.5723	483.398	76.5634	483.398	79.4752	483.398	76.4434	483.398	79.2505	483.398	76.6252	483.398	78.9433	483.398	77.0295	483.398	78.6206	483.398	77.5097	483.398	78.3021	483.398	77.9452
499.512	83.0943	499.512	82.8041	499.512	83.2185	499.512	82.3758	499.512	83.1656	499.512	81.8579	499.512	82.9348	499.512	81.3135	499.512	82.531	499.512	80.7995	499.512	81.9692	499.512	80.3362	499.512	81.2888	499.512	79.894	499.512	80.5733	499.512	79.4172	499.512	79.9522	499.512	78.8686	499.512	79.5481	499.512	78.2633	499.512	79.3886	499.512	77.6721	499.512	79.3859	499.512	77.1913	499.512	79.4158	499.512	76.8968	499.512	79.3859	499.512	76.8171	499.512	79.2479	499.512	76.9348	499.512	78.9928	499.512	77.1984	499.512	78.6514	499.512	77.5391	499.512	78.2769	499.512	77.904
517.09	83.1729	517.09	82.8789	517.09	83.3007	517.09	82.4464	517.09	83.2504	517.09	81.9202	517.09	83.0206	517.09	81.3593	517.09	82.617	517.09	80.8238	517.09	82.0549	517.09	80.3554	517.09	81.3693	517.09	79.9596	517.09	80.6332	517.09	79.6061	517.09	79.9674	517.09	79.2477	517.09	79.5038	517.09	78.8493	517.09	79.2926	517.09	78.4099	517.09	79.2522	517.09	77.9774	517.09	79.2474	517.09	77.6433	517.09	79.1959	517.09	77.502	517.09	79.0941	517.09	77.5849	517.09	78.9708	517.09	77.8342	517.09	78.8354	517.09	78.1471	517.09	78.6664	517.09	78.4378
536.133	82.589	536.133	82.2486	536.133	82.7341	536.133	81.7435	536.133	82.6753	536.133	81.1301	536.133	82.423	536.133	80.4902	536.133	82.002	536.133	79.9188	536.133	81.4501	536.133	79.4892	536.133	80.8198	536.133	79.2116	536.133	80.183	536.133	79.0235	536.133	79.6278	536.133	78.8296	536.133	79.2289	536.133	78.5563	536.133	79.0013	536.133	78.1868	536.133	78.8882	536.133	77.7749	536.133	78.8085	536.133	77.4348	536.133	78.7173	536.133	77.2933	536.133	78.6256	536.133	77.4074	536.133	78.5693	536.133	77.7149	536.133	78.5495	536.133	78.0749	536.133	78.5055	536.133	78.3573
555.176	83.3025	555.176	82.9395	555.176	83.4217	555.176	82.3594	555.176	83.2916	555.176	81.6144	555.176	82.922	555.176	80.7802	555.176	82.3345	555.176	79.943	555.176	81.565	555.176	79.1768	555.176	80.679	555.176	78.522	555.176	79.7921	555.176	77.9827	555.176	79.0622	555.176	77.5395	555.176	78.6071	555.176	77.1609	555.176	78.3992	555.176	76.8153	555.176	78.2834	555.176	76.4907	555.176	78.1042	555.176	76.2213	555.176	77.7909	555.176	76.0849	555.176	77.3746	555.176	76.1375	555.176	76.9734	555.176	76.3307	555.176	76.7234	555.176	76.5297	555.176	76.6494	555.176	76.6297
574.219	83.047	574.219	82.7558	574.219	83.1628	574.219	82.3024	574.219	83.0978	574.219	81.7158	574.219	82.8463	574.219	81.0449	574.219	82.4016	574.219	80.3515	574.219	81.7651	574.219	79.6916	574.219	80.9668	574.219	79.0902	574.219	80.0943	574.219	78.5319	574.219	79.3115	574.219	77.9776	574.219	78.8027	574.219	77.3955	574.219	78.6157	574.219	76.7861	574.219	78.591	574.219	76.1939	574.219	78.5037	574.219	75.7072	574.219	78.2195	574.219	75.434	574.219	77.7409	574.219	75.4356	574.219	77.1925	574.219	75.6594	574.219	76.7416	574.219	75.9635	574.219	76.451	574.219	76.2284
594.727	82.3208	594.727	82.0598	594.727	82.4146	594.727	81.6568	594.727	82.3211	594.727	81.1473	594.727	82.0296	594.727	80.5854	594.727	81.548	594.727	80.0387	594.727	80.9087	594.727	79.5562	594.727	80.1745	594.727	79.1325	594.727	79.4475	594.727	78.7126	594.727	78.8667	594.727	78.2385	594.727	78.5365	594.727	77.6929	594.727	78.4186	594.727	77.1085	594.727	78.3524	594.727	76.5479	594.727	78.2125	594.727	76.0841	594.727	78.0002	594.727	75.8013	594.727	77.7875	594.727	75.7796	594.727	77.6051	594.727	76.0246	594.727	77.4164	594.727	76.4266	594.727	77.171	594.727	76.8377
615.234	81.6282	615.234	81.3033	615.234	81.7257	615.234	80.7959	615.234	81.5801	615.234	80.1777	615.234	81.2002	615.234	79.5391	615.234	80.6117	615.234	78.9837	615.234	79.8545	615.234	78.6168	615.234	78.9971	615.234	78.4909	615.234	78.1778	615.234	78.5379	615.234	77.6302	615.234	78.5947	615.234	77.5688	615.234	78.5153	615.234	77.9606	615.234	78.2525	615.234	78.5184	615.234	77.869	615.234	78.9287	615.234	77.4927	615.234	78.9991	615.234	77.2289	615.234	78.6912	615.234	77.092	615.234	78.1273	615.234	77.0315	615.234	77.5518	615.234	77.0058	615.234	77.1762	615.234	77.0273
637.207	82.2728	637.207	81.7632	637.207	82.4842	637.207	80.9784	637.207	82.3978	637.207	79.981	637.207	82.0283	637.207	78.8867	637.207	81.3938	637.207	77.8512	637.207	80.5063	637.207	77.0186	637.207	79.3783	637.207	76.4711	637.207	78.0702	637.207	76.2209	637.207	76.79	637.207	76.217	637.207	75.9464	637.207	76.3594	637.207	75.8706	637.207	76.5562	637.207	76.427	637.207	76.7882	637.207	77.2382	637.207	77.1083	637.207	78.0395	637.207	77.562	637.207	78.6979	637.207	78.116	637.207	79.1592	637.207	78.6711	637.207	79.4234	637.207	79.1242	637.207	79.5068	637.207	79.4094
659.18	83.0891	659.18	82.7309	659.18	83.1711	659.18	82.1084	659.18	82.9918	659.18	81.2622	659.18	82.5806	659.18	80.2619	659.18	81.9598	659.18	79.2065	659.18	81.1327	659.18	78.2085	659.18	80.0985	659.18	77.3506	659.18	78.9037	659.18	76.6588	659.18	77.7122	659.18	76.1326	659.18	76.7994	659.18	75.7726	659.18	76.3271	659.18	75.545	659.18	76.1675	659.18	75.3848	659.18	76.165	659.18	75.3133	659.18	76.3775	659.18	75.5015	659.18	76.8762	659.18	76.0711	659.18	77.5026	659.18	76.8709	659.18	78.0058	659.18	77.6139	659.18	78.2251	659.18	78.094
682.617	83.209	682.617	82.8335	682.617	83.2847	682.617	82.1817	682.617	83.0659	682.617	81.3016	682.617	82.5837	682.617	80.2695	682.617	81.8844	682.617	79.2056	682.617	81.0147	682.617	78.2748	682.617	80.02	682.617	77.6075	682.617	78.971	682.617	77.1682	682.617	78.0047	682.617	76.7757	682.617	77.3119	682.617	76.2922	682.617	77.0098	682.617	75.763	682.617	77.0054	682.617	75.3913	682.617	77.056	682.617	75.3714	682.617	76.9789	682.617	75.7532	682.617	76.8467	682.617	76.4624	682.617	76.9977	682.617	77.3219	682.617	77.5732	682.617	78.0552	682.617	78.1832	682.617	78.3872
707.52	83.6391	707.52	83.1438	707.52	83.844	707.52	82.3981	707.52	83.7466	707.52	81.4813	707.52	83.3488	707.52	80.502	707.52	82.6635	707.52	79.5615	707.52	81.7187	707.52	78.7235	707.52	80.5628	707.52	78.0224	707.52	79.284	707.52	77.4781	707.52	78.0644	707.52	77.0692	707.52	77.1803	707.52	76.7202	707.52	76.7674	707.52	76.372	707.52	76.6447	707.52	76.0714	707.52	76.5952	707.52	75.9636	707.52	76.5706	707.52	76.1585	707.52	76.5843	707.52	76.6141	707.52	76.688	707.52	77.1573	707.52	76.9828	707.52	77.5645	707.52	77.3972	707.52	77.6546
732.422	83.8669	732.422	83.5787	732.422	83.8464	732.422	82.9889	732.422	83.5533	732.422	82.1605	732.422	83.0493	732.422	81.2091	732.422	82.391	732.422	80.2689	732.422	81.591	732.422	79.4337	732.422	80.6068	732.422	78.7313	732.422	79.3981	732.422	78.1686	732.422	78.0531	732.422	77.7578	732.422	76.9355	732.422	77.4457	732.422	76.5051	732.422	77.066	732.422	76.6406	732.422	76.4506	732.422	76.7421	732.422	75.6278	732.422	76.4709	732.422	74.9684	732.422	75.997	732.422	75.0025	732.422	75.8947	732.422	75.7559	732.422	76.4215	732.422	76.6563	732.422	77.033	732.422	77.1586
757.324	83.9832	757.324	83.6926	757.324	84.0028	757.324	83.1686	757.324	83.7385	757.324	82.446	757.324	83.227	757.324	81.5566	757.324	82.5427	757.324	80.5629	757.324	81.7363	757.324	79.596	757.324	80.7883	757.324	78.8139	757.324	79.6552	757.324	78.2666	757.324	78.4143	757.324	77.8563	757.324	77.4215	757.324	77.466	757.324	77.101	757.324	77.0549	757.324	77.2993	757.324	76.6454	757.324	77.4675	757.324	76.3034	757.324	77.3067	757.324	76.1633	757.324	76.8569	757.324	76.3725	757.324	76.4481	757.324	76.8775	757.324	76.5425	757.324	77.3568	757.324	77.0758	757.324	77.4585
785.156	84.431	785.156	84.1895	785.156	84.452	785.156	83.7181	785.156	84.2893	785.156	83.047	785.156	83.9614	785.156	82.2314	785.156	83.4263	785.156	81.3343	785.156	82.5975	785.156	80.4359	785.156	81.4184	785.156	79.6479	785.156	79.9403	785.156	79.0351	785.156	78.3735	785.156	78.4914	785.156	77.0652	785.156	77.811	785.156	76.3139	785.156	76.9212	785.156	76.1797	785.156	76.0063	785.156	76.4252	785.156	75.3593	785.156	76.5794	785.156	75.1258	785.156	76.3169	785.156	75.3697	785.156	75.9357	785.156	76.1101	785.156	76.215	785.156	76.9813	785.156	77.0022	785.156	77.3775
811.523	84.2273	811.523	84.0833	811.523	84.1402	811.523	83.6633	811.523	83.8528	811.523	82.9627	811.523	83.37	811.523	82.0739	811.523	82.6997	811.523	81.1673	811.523	81.8551	811.523	80.3448	811.523	80.8061	811.523	79.5551	811.523	79.4563	811.523	78.7578	811.523	77.7791	811.523	78.0618	811.523	76.1938	811.523	77.5666	811.523	75.627	811.523	77.1695	811.523	76.0336	811.523	76.7191	811.523	76.3646	811.523	76.2626	811.523	76.1411	811.523	76.0608	811.523	75.5871	811.523	76.2995	811.523	75.3354	811.523	76.7798	811.523	75.7635	811.523	77.1082	811.523	76.5011	811.523	77.0264
840.82	84.4876	840.82	84.3661	840.82	84.3647	840.82	83.9663	840.82	84.0215	840.82	83.2366	840.82	83.5142	840.82	82.1668	840.82	82.9249	840.82	80.8971	840.82	82.2657	840.82	79.7523	840.82	81.4168	840.82	78.9678	840.82	80.2069	840.82	78.3992	840.82	78.5325	840.82	77.8168	840.82	76.5387	840.82	77.2522	840.82	75.0826	840.82	76.842	840.82	75.262	840.82	76.4697	840.82	76.2684	840.82	75.8904	840.82	76.7646	840.82	75.2204	840.82	76.3159	840.82	75.0181	840.82	75.3572	840.82	75.5625	840.82	75.2223	840.82	76.3347	840.82	76.0812	840.82	76.6176
870.117	84.5197	870.117	84.4941	870.117	84.1842	870.117	84.0615	870.117	83.631	870.117	83.2591	870.117	83.0287	870.117	82.172	870.117	82.4291	870.117	80.9172	870.117	81.7327	870.117	79.6745	870.117	80.8132	870.117	78.6989	870.117	79.6083	870.117	78.1096	870.117	78.149	870.117	77.6668	870.117	76.6972	870.117	77.0119	870.117	75.817	870.117	76.0466	870.117	75.8013	870.117	75.0751	870.117	76.1807	870.117	74.5222	870.117	76.2894	870.117	74.4795	870.117	75.7685	870.117	74.8297	870.117	74.7836	870.117	75.4134	870.117	74.2718	870.117	75.857	870.117	74.893	870.117	75.6996
900.879	85.0016	900.879	84.9964	900.879	84.6508	900.879	84.6012	900.879	84.0283	900.879	83.7926	900.879	83.2813	900.879	82.5474	900.879	82.5621	900.879	80.9039	900.879	81.9098	900.879	79.0989	900.879	81.1814	900.879	77.629	900.879	80.1271	900.879	76.8546	900.879	78.545	900.879	76.5466	900.879	76.4462	900.879	76.3271	900.879	74.4175	900.879	76.1268	900.879	73.967	900.879	76.0062	900.879	75.3246	900.879	75.8386	900.879	76.6582	900.879	75.4519	900.879	76.8612	900.879	75.2002	900.879	75.9352	900.879	75.7516	900.879	75.2989	900.879	76.6352	900.879	76.1032	900.879	76.8545
933.105	85.0018	933.105	85.0421	933.105	84.539	933.105	84.6329	933.105	83.7563	933.105	83.7892	933.105	82.8215	933.105	82.5235	933.105	81.9147	933.105	80.8546	933.105	81.1428	933.105	78.9176	933.105	80.4614	933.105	77.1322	933.105	79.6883	933.105	76.0574	933.105	78.6275	933.105	75.7141	933.105	77.238	933.105	75.6062	933.105	75.8178	933.105	75.4302	933.105	75.0571	933.105	75.2353	933.105	75.4452	933.105	75.141	933.105	76.3634	933.105	75.1465	933.105	76.6837	933.105	75.2954	933.105	75.8865	933.105	75.6672	933.105	74.789	933.105	76.0257	933.105	75.0463	933.105	75.8584
965.332	85.1213	965.332	85.0948	965.332	84.6831	965.332	84.5212	965.332	83.9681	965.332	83.4463	965.332	83.2137	965.332	82.0498	965.332	82.5379	965.332	80.5722	965.332	81.808	965.332	79.1983	965.332	80.7992	965.332	78.0958	965.332	79.4471	965.332	77.4133	965.332	77.9018	965.332	76.9514	965.332	76.3437	965.332	76.2007	965.332	74.7904	965.332	75.0438	965.332	73.7675	965.332	74.1993	965.332	74.7263	965.332	74.2207	965.332	76.4764	965.332	74.5153	965.332	77.0173	965.332	74.5408	965.332	76.0188	965.332	74.7232	965.332	74.9207	965.332	75.5637	965.332	75.5144	965.332	76.0966
1,000.49	85.0428	1,000.49	85.0318	1,000.49	84.5938	1,000.49	84.5035	1,000.49	83.8143	1,000.49	83.4348	1,000.49	82.8789	1,000.49	81.84	1,000.49	81.9498	1,000.49	79.8804	1,000.49	81.1501	1,000.49	77.9435	1,000.49	80.4742	1,000.49	76.4409	1,000.49	79.706	1,000.49	75.5676	1,000.49	78.5768	1,000.49	75.3202	1,000.49	77.042	1,000.49	75.3617	1,000.49	75.3416	1,000.49	75.2389	1,000.49	73.7893	1,000.49	74.8767	1,000.49	73.2933	1,000.49	74.5998	1,000.49	74.5555	1,000.49	74.6953	1,000.49	75.5155	1,000.49	74.981	1,000.49	74.7053	1,000.49	75.2342	1,000.49	73.1688	1,000.49	75.4025	1,000.49	73.8252	1,000.49	75.076
1,035.64	84.4185	1,035.64	84.7477	1,035.64	83.9377	1,035.64	84.6696	1,035.64	83.443	1,035.64	83.9714	1,035.64	82.9088	1,035.64	82.5649	1,035.64	82.3025	1,035.64	80.4753	1,035.64	81.6298	1,035.64	77.758	1,035.64	80.8309	1,035.64	74.4488	1,035.64	79.8374	1,035.64	71.2581	1,035.64	78.7011	1,035.64	71.0113	1,035.64	77.5313	1,035.64	73.1441	1,035.64	76.2725	1,035.64	74.8833	1,035.64	74.7922	1,035.64	75.5667	1,035.64	73.9499	1,035.64	75.3013	1,035.64	75.0775	1,035.64	74.8049	1,035.64	76.2494	1,035.64	74.9354	1,035.64	75.6854	1,035.64	75.576	1,035.64	73.8057	1,035.64	75.9436	1,035.64	73.7889	1,035.64	75.3374
1,072.27	83.9878	1,072.27	84.1658	1,072.27	83.6614	1,072.27	84.0701	1,072.27	83.2421	1,072.27	83.5489	1,072.27	82.7406	1,072.27	82.5111	1,072.27	82.108	1,072.27	80.9372	1,072.27	81.2957	1,072.27	78.8935	1,072.27	80.319	1,072.27	76.7473	1,072.27	79.1615	1,072.27	75.4033	1,072.27	77.8071	1,072.27	75.1552	1,072.27	76.5635	1,072.27	74.677	1,072.27	75.6289	1,072.27	73.0525	1,072.27	74.4563	1,072.27	71.6185	1,072.27	73.2494	1,072.27	72.2455	1,072.27	73.9584	1,072.27	73.2989	1,072.27	75.6374	1,072.27	73.8009	1,072.27	75.9103	1,072.27	74.2302	1,072.27	74.5378	1,072.27	74.8399	1,072.27	73.6135	1,072.27	74.5465
1,108.89	83.6021	1,108.89	83.5474	1,108.89	83.5589	1,108.89	83.4119	1,108.89	83.3353	1,108.89	83.0421	1,108.89	82.914	1,108.89	82.2391	1,108.89	82.3174	1,108.89	80.9597	1,108.89	81.5506	1,108.89	79.36	1,108.89	80.6064	1,108.89	77.6461	1,108.89	79.3996	1,108.89	76.0721	1,108.89	77.7459	1,108.89	75.249	1,108.89	75.8473	1,108.89	75.0636	1,108.89	74.7695	1,108.89	74.4091	1,108.89	74.73	1,108.89	73.1836	1,108.89	74.8359	1,108.89	72.5535	1,108.89	75.2152	1,108.89	73.1975	1,108.89	75.829	1,108.89	73.9748	1,108.89	75.671	1,108.89	74.1599	1,108.89	74.5271	1,108.89	73.965	1,108.89	73.4774	1,108.89	73.5402
1,148.44	83.6332	1,148.44	83.4318	1,148.44	83.6408	1,148.44	83.0424	1,148.44	83.4329	1,148.44	82.392	1,148.44	83.0144	1,148.44	81.4188	1,148.44	82.4525	1,148.44	80.3105	1,148.44	81.8297	1,148.44	79.3454	1,148.44	81.0254	1,148.44	78.3189	1,148.44	79.6626	1,148.44	76.7886	1,148.44	77.451	1,148.44	75.2418	1,148.44	74.8068	1,148.44	74.7531	1,148.44	73.6247	1,148.44	74.6456	1,148.44	74.0902	1,148.44	73.8625	1,148.44	73.9488	1,148.44	72.2106	1,148.44	73.8531	1,148.44	70.646	1,148.44	75.0412	1,148.44	70.4035	1,148.44	75.5375	1,148.44	71.3038	1,148.44	74.3892	1,148.44	72.44	1,148.44	72.9992	1,148.44	72.8531
1,189.45	84.3131	1,189.45	83.9787	1,189.45	84.1895	1,189.45	83.2817	1,189.45	83.6743	1,189.45	82.3161	1,189.45	82.8938	1,189.45	81.0368	1,189.45	81.9492	1,189.45	79.5531	1,189.45	81.0542	1,189.45	78.3746	1,189.45	80.4216	1,189.45	77.7821	1,189.45	79.7815	1,189.45	76.8668	1,189.45	78.4047	1,189.45	75.0364	1,189.45	75.8222	1,189.45	74.0477	1,189.45	73.1656	1,189.45	74.7468	1,189.45	72.5584	1,189.45	74.8205	1,189.45	72.3922	1,189.45	73.7134	1,189.45	72.6576	1,189.45	71.9084	1,189.45	74.0997	1,189.45	71.3122	1,189.45	74.7079	1,189.45	72.5984	1,189.45	74.2333	1,189.45	73.2385	1,189.45	73.4097	1,189.45	73.1052
1,230.47	84.4335	1,230.47	84.1249	1,230.47	84.1277	1,230.47	83.1345	1,230.47	83.5856	1,230.47	81.9549	1,230.47	82.9248	1,230.47	81.0844	1,230.47	82.1239	1,230.47	80.186	1,230.47	81.4744	1,230.47	78.6572	1,230.47	81.0455	1,230.47	76.8313	1,230.47	80.2384	1,230.47	75.2714	1,230.47	78.4368	1,230.47	72.889	1,230.47	75.6289	1,230.47	70.6699	1,230.47	73.3256	1,230.47	72.5818	1,230.47	72.8331	1,230.47	74.9846	1,230.47	72.2999	1,230.47	75.6818	1,230.47	73.8056	1,230.47	74.161	1,230.47	75.2316	1,230.47	71.5266	1,230.47	74.3135	1,230.47	70.9726	1,230.47	73.6012	1,230.47	72.1888	1,230.47	74.0878	1,230.47	73.527
1,274.41	84.2738	1,274.41	84.2797	1,274.41	83.8487	1,274.41	83.6049	1,274.41	83.4336	1,274.41	82.5074	1,274.41	83.0409	1,274.41	81.5599	1,274.41	82.4092	1,274.41	80.6332	1,274.41	81.4954	1,274.41	78.8547	1,274.41	80.3741	1,274.41	76.1836	1,274.41	79.2128	1,274.41	74.3901	1,274.41	78.0603	1,274.41	72.8085	1,274.41	76.4754	1,274.41	68.5442	1,274.41	74.3748	1,274.41	64.9695	1,274.41	73.478	1,274.41	72.0693	1,274.41	73.2406	1,274.41	75.0948	1,274.41	72.2983	1,274.41	74.8799	1,274.41	73.2496	1,274.41	72.2775	1,274.41	74.1095	1,274.41	71.0002	1,274.41	73.0562	1,274.41	72.2738	1,274.41	72.3137	1,274.41	72.599
1,319.82	83.8243	1,319.82	84.0471	1,319.82	83.7387	1,319.82	83.6324	1,319.82	83.8635	1,319.82	82.254	1,319.82	83.5288	1,319.82	80.2745	1,319.82	82.6984	1,319.82	78.5972	1,319.82	81.4241	1,319.82	77.4825	1,319.82	79.6559	1,319.82	76.0601	1,319.82	78.342	1,319.82	74.6904	1,319.82	77.8479	1,319.82	74.1134	1,319.82	76.4302	1,319.82	72.6188	1,319.82	73.3096	1,319.82	69.1687	1,319.82	71.5475	1,319.82	70.0397	1,319.82	71.6411	1,319.82	73.9421	1,319.82	72.4422	1,319.82	74.693	1,319.82	75.6484	1,319.82	72.1722	1,319.82	76.4926	1,319.82	68.6113	1,319.82	74.657	1,319.82	69.858	1,319.82	73.9524	1,319.82	72.9373
1,366.7	83.876	1,366.7	83.7728	1,366.7	83.9345	1,366.7	83.365	1,366.7	83.7889	1,366.7	82.4301	1,366.7	83.41	1,366.7	81.1004	1,366.7	82.782	1,366.7	79.3934	1,366.7	81.655	1,366.7	77.1597	1,366.7	80.3477	1,366.7	74.4444	1,366.7	79.3565	1,366.7	72.436	1,366.7	78.1088	1,366.7	72.1909	1,366.7	75.9702	1,366.7	71.5382	1,366.7	73.7193	1,366.7	68.6539	1,366.7	72.6943	1,366.7	67.4696	1,366.7	72.6463	1,366.7	73.3592	1,366.7	73.1311	1,366.7	75.1702	1,366.7	74.1807	1,366.7	74.1206	1,366.7	75.1044	1,366.7	72.3627	1,366.7	73.7806	1,366.7	72.1332	1,366.7	71.4371	1,366.7	72.1442
1,413.57	83.5471	1,413.57	83.549	1,413.57	83.4765	1,413.57	83.1757	1,413.57	83.2705	1,413.57	82.1932	1,413.57	83.0819	1,413.57	81.0945	1,413.57	82.785	1,413.57	80.0318	1,413.57	81.8723	1,413.57	78.0797	1,413.57	80.3854	1,413.57	74.5769	1,413.57	78.9008	1,413.57	71.0939	1,413.57	77.6308	1,413.57	71.3409	1,413.57	75.889	1,413.57	72.884	1,413.57	73.0079	1,413.57	71.5541	1,413.57	71.4864	1,413.57	67.6288	1,413.57	73.7227	1,413.57	70.5681	1,413.57	72.1816	1,413.57	73.4946	1,413.57	71.4663	1,413.57	73.2355	1,413.57	74.977	1,413.57	71.2706	1,413.57	74.4523	1,413.57	70.61	1,413.57	72.1294	1,413.57	71.4264
1,463.38	83.6797	1,463.38	82.8565	1,463.38	83.869	1,463.38	81.9763	1,463.38	83.5355	1,463.38	81.4748	1,463.38	83.0556	1,463.38	80.5672	1,463.38	82.4935	1,463.38	78.6117	1,463.38	81.4806	1,463.38	76.777	1,463.38	79.9923	1,463.38	75.8181	1,463.38	78.7355	1,463.38	74.5369	1,463.38	78.0052	1,463.38	73.511	1,463.38	76.7718	1,463.38	74.8789	1,463.38	74.2116	1,463.38	74.4587	1,463.38	72.2145	1,463.38	69.9435	1,463.38	73.0796	1,463.38	66.4942	1,463.38	72.8115	1,463.38	70.5488	1,463.38	72.2542	1,463.38	72.453	1,463.38	72.9665	1,463.38	72.4037	1,463.38	73.4311	1,463.38	70.8272	1,463.38	71.6474	1,463.38	69.5822
1,516.11	84.5152	1,516.11	83.7994	1,516.11	84.5573	1,516.11	82.4925	1,516.11	84.29	1,516.11	81.3689	1,516.11	83.8093	1,516.11	80.7026	1,516.11	82.7356	1,516.11	79.1401	1,516.11	81.1292	1,516.11	75.8554	1,516.11	79.885	1,516.11	73.0138	1,516.11	79.2901	1,516.11	73.2437	1,516.11	78.4008	1,516.11	73.0029	1,516.11	76.6338	1,516.11	73.0139	1,516.11	74.9545	1,516.11	73.6646	1,516.11	73.9319	1,516.11	72.0979	1,516.11	72.82	1,516.11	68.4366	1,516.11	73.5155	1,516.11	68.1266	1,516.11	72.9511	1,516.11	70.9168	1,516.11	73.0557	1,516.11	71.9433	1,516.11	74.6166	1,516.11	71.9851	1,516.11	73.5582	1,516.11	72.0295
1,568.85	84.73	1,568.85	84.0718	1,568.85	84.8274	1,568.85	83.1762	1,568.85	84.5772	1,568.85	82.2764	1,568.85	83.9459	1,568.85	80.7202	1,568.85	82.9066	1,568.85	78.7357	1,568.85	81.1054	1,568.85	77.2437	1,568.85	79.0221	1,568.85	75.5133	1,568.85	78.252	1,568.85	72.3229	1,568.85	77.7953	1,568.85	67.0334	1,568.85	75.5556	1,568.85	69.1299	1,568.85	73.1607	1,568.85	72.9327	1,568.85	73.0001	1,568.85	73.7715	1,568.85	73.481	1,568.85	72.2177	1,568.85	73.7228	1,568.85	70.8264	1,568.85	69.6516	1,568.85	71.2131	1,568.85	71.5982	1,568.85	70.6153	1,568.85	72.7405	1,568.85	71.6234	1,568.85	73.1642	1,568.85	73.552
1,624.51	84.2749	1,624.51	83.8229	1,624.51	84.5727	1,624.51	82.9178	1,624.51	84.7806	1,624.51	82.1332	1,624.51	84.1534	1,624.51	80.9755	1,624.51	83.3578	1,624.51	78.9381	1,624.51	82.2334	1,624.51	78.0078	1,624.51	80.5118	1,624.51	77.7823	1,624.51	79.4457	1,624.51	75.6174	1,624.51	78.7147	1,624.51	71.9818	1,624.51	76.8508	1,624.51	68.8099	1,624.51	73.9515	1,624.51	68.6611	1,624.51	72.9482	1,624.51	71.7885	1,624.51	72.4301	1,624.51	73.7925	1,624.51	69.9004	1,624.51	73.7042	1,624.51	68.2486	1,624.51	71.1383	1,624.51	70.797	1,624.51	67.577	1,624.51	72.9744	1,624.51	69.9809	1,624.51	72.4869	1,624.51	72.568
1,681.64	83.446	1,681.64	83.6808	1,681.64	84.3176	1,681.64	84.1576	1,681.64	84.5733	1,681.64	83.171	1,681.64	84.0911	1,681.64	81.6143	1,681.64	83.0445	1,681.64	80.736	1,681.64	81.428	1,681.64	79.5524	1,681.64	80.1111	1,681.64	77.2865	1,681.64	78.293	1,681.64	75.268	1,681.64	76.218	1,681.64	72.9146	1,681.64	76.073	1,681.64	69.743	1,681.64	75.4689	1,681.64	68.9681	1,681.64	70.723	1,681.64	71.4038	1,681.64	70.5704	1,681.64	74.0606	1,681.64	71.477	1,681.64	75.2345	1,681.64	67.4251	1,681.64	74.3097	1,681.64	67.6111	1,681.64	71.8408	1,681.64	73.5626	1,681.64	70.0604	1,681.64	70.8286	1,681.64	69.6168
1,741.7	84.2386	1,741.7	83.622	1,741.7	84.8659	1,741.7	83.5422	1,741.7	84.9397	1,741.7	82.7597	1,741.7	84.1213	1,741.7	80.2698	1,741.7	82.2573	1,741.7	78.7356	1,741.7	80.2214	1,741.7	79.3878	1,741.7	78.7959	1,741.7	77.135	1,741.7	76.8227	1,741.7	72.0167	1,741.7	74.9136	1,741.7	71.4602	1,741.7	76.0908	1,741.7	72.4218	1,741.7	76.6772	1,741.7	66.4963	1,741.7	72.6961	1,741.7	67.6828	1,741.7	67.6286	1,741.7	72.9788	1,741.7	71.4829	1,741.7	74.3444	1,741.7	73.6442	1,741.7	74.9677	1,741.7	69.8266	1,741.7	72.2748	1,741.7	72.2598	1,741.7	66.8052	1,741.7	73.7328	1,741.7	69.2268
1,803.22	84.208	1,803.22	83.79	1,803.22	84.7437	1,803.22	82.9793	1,803.22	84.7663	1,803.22	82.0749	1,803.22	83.5032	1,803.22	80.6132	1,803.22	81.7331	1,803.22	78.4095	1,803.22	80.4018	1,803.22	76.498	1,803.22	78.7923	1,803.22	75.1913	1,803.22	76.7383	1,803.22	71.2194	1,803.22	74.6911	1,803.22	72.4903	1,803.22	74.6869	1,803.22	76.3169	1,803.22	74.7166	1,803.22	74.5164	1,803.22	72.4984	1,803.22	67.9471	1,803.22	67.5818	1,803.22	69.4619	1,803.22	69.9162	1,803.22	71.7069	1,803.22	72.1096	1,803.22	71.8656	1,803.22	71.6858	1,803.22	70.3897	1,803.22	71.9334	1,803.22	66.6005	1,803.22	65.6888	1,803.22	63.0815
1,866.21	84.3815	1,866.21	83.4436	1,866.21	84.749	1,866.21	81.3838	1,866.21	84.5074	1,866.21	79.9464	1,866.21	83.129	1,866.21	80.1001	1,866.21	80.8273	1,866.21	79.3608	1,866.21	77.9543	1,866.21	76.8374	1,866.21	76.6954	1,866.21	74.8958	1,866.21	77.4972	1,866.21	73.9287	1,866.21	75.6207	1,866.21	70.7689	1,866.21	73.3923	1,866.21	72.9738	1,866.21	74.0388	1,866.21	73.4895	1,866.21	72.4385	1,866.21	71.2479	1,866.21	68.0064	1,866.21	69.2145	1,866.21	66.5393	1,866.21	71.8507	1,866.21	70.8201	1,866.21	73.5623	1,866.21	69.4417	1,866.21	71.2054	1,866.21	72.1277	1,866.21	65.415	1,866.21	70.2544	1,866.21	64.4683
1,932.13	84.0815	1,932.13	82.8957	1,932.13	84.3075	1,932.13	81.4595	1,932.13	83.6657	1,932.13	80.4656	1,932.13	82.6342	1,932.13	80.6421	1,932.13	80.7398	1,932.13	79.8578	1,932.13	77.6358	1,932.13	76.5627	1,932.13	77.2317	1,932.13	74.8754	1,932.13	77.2316	1,932.13	75.5562	1,932.13	73.0481	1,932.13	72.2047	1,932.13	69.2122	1,932.13	66.7964	1,932.13	72.0538	1,932.13	69.1901	1,932.13	72.9268	1,932.13	70.7208	1,932.13	69.2173	1,932.13	69.6022	1,932.13	68.2879	1,932.13	69.9615	1,932.13	72.3393	1,932.13	71.7063	1,932.13	62.7044	1,932.13	70.3259	1,932.13	73.3731	1,932.13	67.7367	1,932.13	74.1526	1,932.13	70.7699
1,999.51	83.7742	1,999.51	81.8827	1,999.51	84.3146	1,999.51	80.3184	1,999.51	83.7634	1,999.51	80.3933	1,999.51	82.1481	1,999.51	80.7574	1,999.51	79.1345	1,999.51	79.7621	1,999.51	76.5077	1,999.51	77.5689	1,999.51	76.6755	1,999.51	76.7427	1,999.51	76.3551	1,999.51	76.0842	1,999.51	73.6929	1,999.51	73.5964	1,999.51	70.0253	1,999.51	70.349	1,999.51	69.3407	1,999.51	69.1086	1,999.51	72.493	1,999.51	70.4116	1,999.51	68.8556	1,999.51	71.1372	1,999.51	66.3788	1,999.51	69.9081	1,999.51	72.0991	1,999.51	68.2203	1,999.51	66.1306	1,999.51	67.1435	1,999.51	70.1241	1,999.51	67.9386	1,999.51	72.3273	1,999.51	70.142
2,069.82	85.0014	2,069.82	82.3134	2,069.82	85.2232	2,069.82	80.4045	2,069.82	83.6632	2,069.82	80.9219	2,069.82	81.6362	2,069.82	80.6461	2,069.82	79.2095	2,069.82	78.6793	2,069.82	77.0954	2,069.82	76.5679	2,069.82	77.2755	2,069.82	76.4863	2,069.82	75.6712	2,069.82	75.1352	2,069.82	73.2226	2,069.82	72.7731	2,069.82	72.6584	2,069.82	72.6996	2,069.82	71.7956	2,069.82	67.2084	2,069.82	71.5072	2,069.82	63.7455	2,069.82	72.497	2,069.82	69.4357	2,069.82	62.6759	2,069.82	74.1147	2,069.82	72.5474	2,069.82	73.3487	2,069.82	69.5237	2,069.82	66.6028	2,069.82	62.9552	2,069.82	63.4396	2,069.82	68.0097	2,069.82	67.8997
2,143.07	84.3935	2,143.07	82.5621	2,143.07	84.7023	2,143.07	80.2409	2,143.07	83.7431	2,143.07	79.5967	2,143.07	81.4797	2,143.07	79.1666	2,143.07	77.9266	2,143.07	78.4478	2,143.07	76.55	2,143.07	79.157	2,143.07	75.1794	2,143.07	77.7978	2,143.07	73.7021	2,143.07	72.0469	2,143.07	74.3285	2,143.07	71.2116	2,143.07	73.5361	2,143.07	73.196	2,143.07	69.5244	2,143.07	66.3116	2,143.07	69.9925	2,143.07	63.9933	2,143.07	71.3572	2,143.07	70.9998	2,143.07	62.4688	2,143.07	72.5464	2,143.07	68.4291	2,143.07	72.3244	2,143.07	68.9297	2,143.07	70.1222	2,143.07	68.4302	2,143.07	65.8153	2,143.07	72.0284	2,143.07	66.9356
2,219.24	83.8928	2,219.24	82.0953	2,219.24	84.7144	2,219.24	79.5687	2,219.24	83.4831	2,219.24	76.355	2,219.24	80.6117	2,219.24	77.8815	2,219.24	77.3879	2,219.24	79.2606	2,219.24	75.1398	2,219.24	78.6058	2,219.24	75.7823	2,219.24	77.751	2,219.24	74.7709	2,219.24	74.0055	2,219.24	73.6675	2,219.24	71.0079	2,219.24	73.6635	2,219.24	74.6951	2,219.24	70.7505	2,219.24	73.7684	2,219.24	67.5719	2,219.24	70.3548	2,219.24	71.4927	2,219.24	70.7326	2,219.24	65.6048	2,219.24	70.8518	2,219.24	63.0601	2,219.24	72.44	2,219.24	69.36	2,219.24	71.8893	2,219.24	64.8372	2,219.24	58.769	2,219.24	63.3229	2,219.24	57.1347
2,296.88	83.8527	2,296.88	81.014	2,296.88	84.1461	2,296.88	78.547	2,296.88	82.7587	2,296.88	77.0984	2,296.88	79.9852	2,296.88	77.1048	2,296.88	77.4013	2,296.88	80.0221	2,296.88	75.8492	2,296.88	79.5689	2,296.88	75.0411	2,296.88	75.7808	2,296.88	74.7761	2,296.88	74.0471	2,296.88	74.3911	2,296.88	73.4098	2,296.88	73.8115	2,296.88	71.8621	2,296.88	70.3786	2,296.88	72.8484	2,296.88	64.2643	2,296.88	73.5094	2,296.88	70.4788	2,296.88	70.547	2,296.88	69.2558	2,296.88	67.1223	2,296.88	64.7854	2,296.88	71.2857	2,296.88	71.1083	2,296.88	68.3042	2,296.88	69.0223	2,296.88	54.8538	2,296.88	64.3084	2,296.88	60.5854
2,378.91	85.0669	2,378.91	81.5158	2,378.91	85.561	2,378.91	75.4756	2,378.91	83.677	2,378.91	76.5799	2,378.91	79.0449	2,378.91	78.9676	2,378.91	72.6716	2,378.91	80.134	2,378.91	68.5492	2,378.91	77.7792	2,378.91	71.4666	2,378.91	74.5193	2,378.91	72.8798	2,378.91	76.2681	2,378.91	74.317	2,378.91	73.7701	2,378.91	76.1229	2,378.91	69.6056	2,378.91	75.9521	2,378.91	68.9417	2,378.91	70.4171	2,378.91	70.6634	2,378.91	66.3526	2,378.91	73.288	2,378.91	69.3103	2,378.91	72.615	2,378.91	59.3023	2,378.91	70.0379	2,378.91	71.5585	2,378.91	62.5343	2,378.91	68.8775	2,378.91	66.7135	2,378.91	67.7118	2,378.91	68.8349
2,462.4	83.9018	2,462.4	81.0189	2,462.4	84.8512	2,462.4	75.5425	2,462.4	83.4183	2,462.4	74.0864	2,462.4	79.0729	2,462.4	79.4661	2,462.4	72.9543	2,462.4	79.9812	2,462.4	69.4664	2,462.4	78.4921	2,462.4	71.4381	2,462.4	77.3142	2,462.4	72.1132	2,462.4	76.137	2,462.4	70.5196	2,462.4	73.9072	2,462.4	73.3603	2,462.4	71.7835	2,462.4	72.993	2,462.4	70.7729	2,462.4	68.3639	2,462.4	69.737	2,462.4	69.99	2,462.4	70.2143	2,462.4	68.7724	2,462.4	70.6461	2,462.4	61.7537	2,462.4	69.5312	2,462.4	65.9659	2,462.4	64.4164	2,462.4	66.2149	2,462.4	58.2672	2,462.4	71.0587	2,462.4	68.5644
2,548.83	83.3269	2,548.83	81.0382	2,548.83	84.1028	2,548.83	74.7888	2,548.83	82.7546	2,548.83	73.8532	2,548.83	78.5542	2,548.83	79.2477	2,548.83	71.3518	2,548.83	79.3326	2,548.83	70.8788	2,548.83	79.3754	2,548.83	73.2285	2,548.83	77.5726	2,548.83	74.0231	2,548.83	74.3358	2,548.83	73.714	2,548.83	74.5711	2,548.83	74.1175	2,548.83	72.2325	2,548.83	73.1266	2,548.83	69.1077	2,548.83	68.8256	2,548.83	71.3333	2,548.83	69.7993	2,548.83	70.9338	2,548.83	67.4442	2,548.83	70.6137	2,548.83	63.3715	2,548.83	70.072	2,548.83	64.7488	2,548.83	63.1886	2,548.83	62.5568	2,548.83	63.0749	2,548.83	71.2021	2,548.83	71.4827
2,639.65	83.8536	2,639.65	81.5418	2,639.65	83.9786	2,639.65	72.0106	2,639.65	82.4105	2,639.65	72.9632	2,639.65	77.7901	2,639.65	78.6326	2,639.65	68.2689	2,639.65	80.1018	2,639.65	73.5085	2,639.65	79.8389	2,639.65	75.7075	2,639.65	78.6756	2,639.65	75.2224	2,639.65	76.0336	2,639.65	73.4908	2,639.65	72.7734	2,639.65	72.0357	2,639.65	72.0586	2,639.65	73.5557	2,639.65	69.4724	2,639.65	73.4301	2,639.65	69.5169	2,639.65	71.4433	2,639.65	72.1024	2,639.65	68.2843	2,639.65	71.1056	2,639.65	59.9455	2,639.65	69.7453	2,639.65	65.3867	2,639.65	64.3293	2,639.65	66.7432	2,639.65	62.8737	2,639.65	72.4021	2,639.65	71.2567
2,731.93	83.9083	2,731.93	81.4546	2,731.93	83.8565	2,731.93	71.2127	2,731.93	81.965	2,731.93	73.6533	2,731.93	76.8589	2,731.93	79.5994	2,731.93	63.4702	2,731.93	81.4353	2,731.93	75.9697	2,731.93	80.2721	2,731.93	78.0483	2,731.93	77.2097	2,731.93	76.914	2,731.93	75.1962	2,731.93	71.6651	2,731.93	72.5467	2,731.93	67.3216	2,731.93	71.8087	2,731.93	73.8201	2,731.93	71.4344	2,731.93	74.5736	2,731.93	69.8431	2,731.93	74.2244	2,731.93	71.0867	2,731.93	71.2235	2,731.93	70.5813	2,731.93	65.6504	2,731.93	70.0067	2,731.93	61.7591	2,731.93	63.643	2,731.93	66.9041	2,731.93	66.722	2,731.93	72.8859	2,731.93	70.9005
2,828.61	83.6252	2,828.61	81.42	2,828.61	83.5254	2,828.61	72.9512	2,828.61	81.6287	2,828.61	74.8289	2,828.61	75.8562	2,828.61	81.0602	2,828.61	66.3405	2,828.61	82.3539	2,828.61	78.3341	2,828.61	80.669	2,828.61	80.4031	2,828.61	78.6067	2,828.61	80.0137	2,828.61	77.2324	2,828.61	75.4886	2,828.61	74.6462	2,828.61	69.1002	2,828.61	73.5523	2,828.61	75.5414	2,828.61	72.1628	2,828.61	74.1663	2,828.61	68.7877	2,828.61	74.4985	2,828.61	71.712	2,828.61	72.8233	2,828.61	71.4309	2,828.61	67.1546	2,828.61	69.7582	2,828.61	61.6972	2,828.61	65.7265	2,828.61	64.0916	2,828.61	65.9667	2,828.61	71.2986	2,828.61	70.3946
2,928.22	83.3885	2,928.22	81.3386	2,928.22	82.9954	2,928.22	73.1572	2,928.22	81.0698	2,928.22	76.5637	2,928.22	74.2439	2,928.22	81.6383	2,928.22	71.221	2,928.22	82.1839	2,928.22	80.6639	2,928.22	80.6898	2,928.22	82.5851	2,928.22	78.8983	2,928.22	81.044	2,928.22	77.9437	2,928.22	76.5048	2,928.22	74.9795	2,928.22	74.4806	2,928.22	70.2641	2,928.22	74.7936	2,928.22	69.8385	2,928.22	73.9421	2,928.22	69.2385	2,928.22	72.6533	2,928.22	70.6035	2,928.22	74.2465	2,928.22	70.7771	2,928.22	67.77	2,928.22	70.055	2,928.22	64.8409	2,928.22	64.8591	2,928.22	67.294	2,928.22	68.6769	2,928.22	73.1293	2,928.22	70.5821
3,030.76	82.9258	3,030.76	81.1008	3,030.76	82.6995	3,030.76	74.225	3,030.76	80.7789	3,030.76	78.0181	3,030.76	73.5814	3,030.76	82.0943	3,030.76	75.3674	3,030.76	82.527	3,030.76	82.2585	3,030.76	81.1909	3,030.76	83.533	3,030.76	79.6335	3,030.76	81.6127	3,030.76	75.1964	3,030.76	78.8653	3,030.76	70.0253	3,030.76	76.8348	3,030.76	71.5712	3,030.76	76.5669	3,030.76	71.6895	3,030.76	73.6377	3,030.76	69.7382	3,030.76	72.6566	3,030.76	70.6493	3,030.76	72.6551	3,030.76	71.0315	3,030.76	70.2287	3,030.76	68.8574	3,030.76	58.6329	3,030.76	66.17	3,030.76	64.191	3,030.76	68.2705	3,030.76	71.0247	3,030.76	71.2691
3,137.7	82.851	3,137.7	81.2922	3,137.7	82.2791	3,137.7	75.4804	3,137.7	80.2571	3,137.7	78.8805	3,137.7	74.2061	3,137.7	82.604	3,137.7	77.7712	3,137.7	82.753	3,137.7	83.6135	3,137.7	81.5964	3,137.7	84.9271	3,137.7	78.3023	3,137.7	82.4359	3,137.7	75.6692	3,137.7	78.641	3,137.7	75.8708	3,137.7	75.8163	3,137.7	73.4352	3,137.7	76.9122	3,137.7	70.8249	3,137.7	76.4277	3,137.7	68.5523	3,137.7	73.2779	3,137.7	70.3687	3,137.7	72.7398	3,137.7	71.6321	3,137.7	71.2114	3,137.7	69.6831	3,137.7	58.8877	3,137.7	65.1694	3,137.7	50.0528	3,137.7	68.9744	3,137.7	71.3378	3,137.7	72.1217
3,249.02	82.2905	3,249.02	80.7933	3,249.02	81.8272	3,249.02	76.3532	3,249.02	79.8689	3,249.02	80.1143	3,249.02	75.2667	3,249.02	82.467	3,249.02	79.2092	3,249.02	82.7591	3,249.02	84.2457	3,249.02	80.9819	3,249.02	85.5154	3,249.02	78.8213	3,249.02	83.2233	3,249.02	78.4873	3,249.02	78.5198	3,249.02	74.8861	3,249.02	75.0971	3,249.02	70.0227	3,249.02	77.5491	3,249.02	70.6586	3,249.02	77.3669	3,249.02	68.0002	3,249.02	73.8945	3,249.02	68.4417	3,249.02	72.6503	3,249.02	70.8211	3,249.02	71.8907	3,249.02	69.3714	3,249.02	59.9883	3,249.02	65.192	3,249.02	57.6293	3,249.02	67.2877	3,249.02	68.837	3,249.02	71.1193
3,363.28	81.7985	3,363.28	80.8013	3,363.28	81.2602	3,363.28	77.1737	3,363.28	79.1714	3,363.28	80.5955	3,363.28	75.6297	3,363.28	82.625	3,363.28	80.8112	3,363.28	82.5753	3,363.28	84.4719	3,363.28	81.721	3,363.28	85.0309	3,363.28	80.389	3,363.28	83.9739	3,363.28	76.2083	3,363.28	80.6035	3,363.28	71.0558	3,363.28	76.1268	3,363.28	72.1438	3,363.28	78.5442	3,363.28	71.7468	3,363.28	74.9374	3,363.28	69.3598	3,363.28	75.0299	3,363.28	68.5222	3,363.28	71.9218	3,363.28	69.5766	3,363.28	73.3949	3,363.28	69.742	3,363.28	59.9673	3,363.28	65.6108	3,363.28	64.9436	3,363.28	68.5054	3,363.28	70.0456	3,363.28	70.6213
3,481.93	81.7801	3,481.93	80.393	3,481.93	81.2357	3,481.93	77.7082	3,481.93	78.6788	3,481.93	80.6554	3,481.93	76.5476	3,481.93	82.0856	3,481.93	82.0698	3,481.93	82.5738	3,481.93	84.7011	3,481.93	81.8353	3,481.93	84.5236	3,481.93	78.5887	3,481.93	82.6727	3,481.93	76.0471	3,481.93	80.1161	3,481.93	75.1997	3,481.93	74.6906	3,481.93	71.3425	3,481.93	75.4325	3,481.93	68.8578	3,481.93	72.5092	3,481.93	67.6158	3,481.93	73.3347	3,481.93	68.6587	3,481.93	70.1366	3,481.93	69.9212	3,481.93	71.7387	3,481.93	69.1149	3,481.93	55.1967	3,481.93	65.3685	3,481.93	64.1922	3,481.93	68.8274	3,481.93	70.0659	3,481.93	69.344
3,604.98	81.8412	3,604.98	79.9592	3,604.98	81.1211	3,604.98	77.4243	3,604.98	79.2135	3,604.98	80.7351	3,604.98	77.9293	3,604.98	81.9667	3,604.98	81.3671	3,604.98	83.342	3,604.98	84.1461	3,604.98	81.6672	3,604.98	83.8017	3,604.98	78.2219	3,604.98	80.7863	3,604.98	76.4961	3,604.98	77.3209	3,604.98	71.4591	3,604.98	72.5482	3,604.98	67.9815	3,604.98	71.98	3,604.98	69.4622	3,604.98	70.6587	3,604.98	66.7587	3,604.98	72.3754	3,604.98	66.4263	3,604.98	69.6861	3,604.98	68.5614	3,604.98	69.8152	3,604.98	68.1256	3,604.98	60.7269	3,604.98	64.3738	3,604.98	59.5111	3,604.98	68.1574	3,604.98	69.9627	3,604.98	69.5917
3,732.42	81.8334	3,732.42	79.5818	3,732.42	81.2656	3,732.42	78.4665	3,732.42	78.4689	3,732.42	79.8403	3,732.42	78.564	3,732.42	82.3836	3,732.42	80.6967	3,732.42	82.7928	3,732.42	83.1936	3,732.42	80.1382	3,732.42	82.8262	3,732.42	78.7015	3,732.42	79.4541	3,732.42	73.8395	3,732.42	70.6173	3,732.42	71.3979	3,732.42	62.0823	3,732.42	70.3589	3,732.42	67.2655	3,732.42	67.7332	3,732.42	69.9975	3,732.42	66.9037	3,732.42	70.4771	3,732.42	66.1415	3,732.42	71.3286	3,732.42	67.5815	3,732.42	69.7248	3,732.42	66.5203	3,732.42	62.3654	3,732.42	64.1018	3,732.42	57.4982	3,732.42	68.4188	3,732.42	67.9957	3,732.42	69.4537
3,864.26	81.7963	3,864.26	79.8512	3,864.26	81.3942	3,864.26	77.9858	3,864.26	78.0757	3,864.26	79.8098	3,864.26	78.8153	3,864.26	82.4832	3,864.26	80.8548	3,864.26	81.884	3,864.26	81.4689	3,864.26	80.3422	3,864.26	81.7666	3,864.26	77.5462	3,864.26	78.5791	3,864.26	74.8003	3,864.26	72.2004	3,864.26	73.1341	3,864.26	70.4173	3,864.26	68.273	3,864.26	65.8647	3,864.26	68.4432	3,864.26	67.6548	3,864.26	66.1034	3,864.26	71.2478	3,864.26	64.3448	3,864.26	71.6877	3,864.26	67.1945	3,864.26	69.3586	3,864.26	65.5907	3,864.26	64.0339	3,864.26	63.6703	3,864.26	56.5176	3,864.26	67.6991	3,864.26	64.8852	3,864.26	68.9651
4,000.49	82.2976	4,000.49	80.334	4,000.49	81.5935	4,000.49	77.4043	4,000.49	77.8347	4,000.49	80.3774	4,000.49	78.9194	4,000.49	82.2158	4,000.49	80.7896	4,000.49	81.2172	4,000.49	80.8044	4,000.49	79.7614	4,000.49	80.5753	4,000.49	78.1926	4,000.49	76.5386	4,000.49	74.8923	4,000.49	68.9928	4,000.49	68.8756	4,000.49	68.9752	4,000.49	67.7629	4,000.49	69.5571	4,000.49	67.2169	4,000.49	63.598	4,000.49	65.4675	4,000.49	68.3946	4,000.49	64.2138	4,000.49	68.0197	4,000.49	64.8333	4,000.49	65.5755	4,000.49	64.2025	4,000.49	63.5273	4,000.49	64.206	4,000.49	60.8283	4,000.49	66.1321	4,000.49	65.5496	4,000.49	68.3507
4,141.11	83.1421	4,141.11	79.9934	4,141.11	82.4411	4,141.11	77.6969	4,141.11	78.6744	4,141.11	81.1141	4,141.11	78.977	4,141.11	81.7924	4,141.11	79.0366	4,141.11	80.6845	4,141.11	80.691	4,141.11	79.6206	4,141.11	80.9336	4,141.11	76.7646	4,141.11	77.4045	4,141.11	72.2502	4,141.11	67.5273	4,141.11	71.6436	4,141.11	60.5835	4,141.11	68.1899	4,141.11	68.6126	4,141.11	66.169	4,141.11	62.5309	4,141.11	63.0897	4,141.11	68.4593	4,141.11	61.4767	4,141.11	65.7823	4,141.11	64.4502	4,141.11	62.9994	4,141.11	63.9257	4,141.11	61.882	4,141.11	61.6553	4,141.11	61.0607	4,141.11	66.5908	4,141.11	65.6743	4,141.11	67.9202
4,287.6	83.4522	4,287.6	79.4395	4,287.6	82.9277	4,287.6	78.231	4,287.6	78.9775	4,287.6	81.0367	4,287.6	78.1578	4,287.6	80.979	4,287.6	78.2522	4,287.6	80.4071	4,287.6	79.2814	4,287.6	78.1217	4,287.6	80.0601	4,287.6	73.5915	4,287.6	78.0238	4,287.6	72.4374	4,287.6	71.8402	4,287.6	65.7244	4,287.6	67.7097	4,287.6	64.5578	4,287.6	67.5957	4,287.6	64.1441	4,287.6	51.865	4,287.6	61.0873	4,287.6	66.6997	4,287.6	57.5218	4,287.6	67.6887	4,287.6	62.1213	4,287.6	59.7702	4,287.6	62.8908	4,287.6	62.6919	4,287.6	61.7871	4,287.6	56.6836	4,287.6	65.0537	4,287.6	67.0205	4,287.6	67.6672
4,438.48	82.9872	4,438.48	79.7566	4,438.48	82.7419	4,438.48	79.7624	4,438.48	79.393	4,438.48	81.3735	4,438.48	79.9608	4,438.48	81.5546	4,438.48	78.8495	4,438.48	79.6548	4,438.48	74.7526	4,438.48	74.9909	4,438.48	77.5908	4,438.48	73.7938	4,438.48	76.4532	4,438.48	70.6928	4,438.48	76.4533	4,438.48	71.4174	4,438.48	72.8203	4,438.48	69.6865	4,438.48	69.663	4,438.48	65.0028	4,438.48	56.2556	4,438.48	64.4475	4,438.48	62.6807	4,438.48	60.6637	4,438.48	66.7844	4,438.48	60.8005	4,438.48	59.6784	4,438.48	60.7782	4,438.48	63.222	4,438.48	59.3219	4,438.48	57.5163	4,438.48	64.1857	4,438.48	63.8642	4,438.48	66.7987
4,595.21	83.6576	4,595.21	80.0622	4,595.21	83.3537	4,595.21	79.9144	4,595.21	81.1522	4,595.21	81.8131	4,595.21	81.7969	4,595.21	81.3592	4,595.21	79.2092	4,595.21	78.3938	4,595.21	74.5743	4,595.21	74.8671	4,595.21	76.069	4,595.21	75.6301	4,595.21	76.0241	4,595.21	74.1738	4,595.21	78.4472	4,595.21	70.4323	4,595.21	73.6536	4,595.21	68.4233	4,595.21	68.0099	4,595.21	66.7829	4,595.21	51.2908	4,595.21	64.9396	4,595.21	59.3997	4,595.21	61.9937	4,595.21	62.4932	4,595.21	61.8459	4,595.21	48.8233	4,595.21	58.6585	4,595.21	65.4106	4,595.21	62.6408	4,595.21	62.2971	4,595.21	61.6747	4,595.21	60.6708	4,595.21	66.1816
4,756.35	83.5979	4,756.35	81.1782	4,756.35	83.587	4,756.35	80.5642	4,756.35	81.5147	4,756.35	81.7871	4,756.35	80.8318	4,756.35	81.1668	4,756.35	79.7879	4,756.35	76.8885	4,756.35	77.1819	4,756.35	77.403	4,756.35	73.5196	4,756.35	76.5737	4,756.35	76.8657	4,756.35	72.1011	4,756.35	78.1637	4,756.35	71.2438	4,756.35	74.2017	4,756.35	68.4646	4,756.35	70.7264	4,756.35	67.3958	4,756.35	52.0161	4,756.35	66.2054	4,756.35	62.2826	4,756.35	63.1719	4,756.35	61.4471	4,756.35	64.3659	4,756.35	56.7626	4,756.35	60.7299	4,756.35	66.9761	4,756.35	59.564	4,756.35	64.504	4,756.35	64.3439	4,756.35	65.8075	4,756.35	68.9519
4,924.8	84.1805	4,924.8	81.1745	4,924.8	83.1395	4,924.8	80.8083	4,924.8	80.2437	4,924.8	82.1638	4,924.8	81.2111	4,924.8	79.9683	4,924.8	80.6307	4,924.8	77.8188	4,924.8	76.3532	4,924.8	77.863	4,924.8	75.5417	4,924.8	75.6327	4,924.8	80.4463	4,924.8	74.3966	4,924.8	77.6362	4,924.8	70.3242	4,924.8	74.2861	4,924.8	67.6366	4,924.8	72.2412	4,924.8	66.8446	4,924.8	57.0959	4,924.8	64.8234	4,924.8	58.3515	4,924.8	63.7077	4,924.8	65.0092	4,924.8	62.7502	4,924.8	56.4387	4,924.8	63.331	4,924.8	66.8594	4,924.8	59.0327	4,924.8	59.7309	4,924.8	63.2973	4,924.8	64.4945	4,924.8	65.8471
5,097.66	84.3744	5,097.66	81.5026	5,097.66	83.6236	5,097.66	81.0606	5,097.66	82.097	5,097.66	81.3887	5,097.66	82.9707	5,097.66	78.9889	5,097.66	79.4367	5,097.66	78.7669	5,097.66	73.3732	5,097.66	78.0039	5,097.66	78.1999	5,097.66	75.6491	5,097.66	82.1147	5,097.66	72.6371	5,097.66	76.1836	5,097.66	71.2143	5,097.66	72.2279	5,097.66	67.1885	5,097.66	70.8373	5,097.66	67.0006	5,097.66	53.8743	5,097.66	65.0963	5,097.66	55.5706	5,097.66	57.9891	5,097.66	65.9713	5,097.66	62.8379	5,097.66	61.1357	5,097.66	60.8038	5,097.66	64.5164	5,097.66	56.0738	5,097.66	62.5457	5,097.66	62.1637	5,097.66	62.3528	5,097.66	63.5308
5,277.83	84.4244	5,277.83	81.3808	5,277.83	83.3223	5,277.83	81.172	5,277.83	81.5755	5,277.83	80.8156	5,277.83	81.1336	5,277.83	78.918	5,277.83	78.2661	5,277.83	78.9482	5,277.83	73.4225	5,277.83	77.5642	5,277.83	78.4667	5,277.83	76.2405	5,277.83	80.8184	5,277.83	73.2651	5,277.83	74.3857	5,277.83	70.289	5,277.83	71.3105	5,277.83	66.2682	5,277.83	65.6523	5,277.83	64.4489	5,277.83	49.663	5,277.83	64.2449	5,277.83	57.7142	5,277.83	58.7771	5,277.83	54.9025	5,277.83	57.3841	5,277.83	57.8358	5,277.83	57.3986	5,277.83	62.1023	5,277.83	56.6603	5,277.83	61.5147	5,277.83	62.9475	5,277.83	62.0428	5,277.83	64.2762
5,463.87	84.0615	5,463.87	81.366	5,463.87	82.2454	5,463.87	80.5984	5,463.87	80.4078	5,463.87	79.8044	5,463.87	81.3389	5,463.87	79.0519	5,463.87	80.7179	5,463.87	79.2461	5,463.87	74.8882	5,463.87	77.3202	5,463.87	79.4793	5,463.87	74.1063	5,463.87	78.8087	5,463.87	69.0186	5,463.87	73.4106	5,463.87	69.2508	5,463.87	70.14	5,463.87	66.3627	5,463.87	61.9067	5,463.87	63.8144	5,463.87	58.0315	5,463.87	63.3745	5,463.87	59.2011	5,463.87	61.2972	5,463.87	60.3346	5,463.87	58.7183	5,463.87	62.4012	5,463.87	56.9803	5,463.87	61.4469	5,463.87	60.4471	5,463.87	60.0167	5,463.87	57.9353	5,463.87	55.964	5,463.87	64.3278
5,657.23	83.8072	5,657.23	81.0339	5,657.23	83.3286	5,657.23	80.2888	5,657.23	82.0365	5,657.23	79.2552	5,657.23	83.5105	5,657.23	80.244	5,657.23	82.2577	5,657.23	79.4833	5,657.23	76.827	5,657.23	76.3116	5,657.23	77.3395	5,657.23	74.1576	5,657.23	75.6949	5,657.23	72.6498	5,657.23	72.5628	5,657.23	69.6585	5,657.23	63.086	5,657.23	68.3631	5,657.23	66.6878	5,657.23	65.4388	5,657.23	60.3045	5,657.23	64.0027	5,657.23	58.9333	5,657.23	63.1574	5,657.23	58.2285	5,657.23	59.3509	5,657.23	57.1259	5,657.23	59.605	5,657.23	58.577	5,657.23	59.9714	5,657.23	63.5911	5,657.23	59.9248	5,657.23	61.1444	5,657.23	61.2703
5,856.45	83.3746	5,856.45	80.2082	5,856.45	82.5458	5,856.45	79.2046	5,856.45	81.6646	5,856.45	80.2043	5,856.45	82.8267	5,856.45	81.0281	5,856.45	82.6068	5,856.45	79.4436	5,856.45	77.9199	5,856.45	78.3183	5,856.45	75.4335	5,856.45	76.3876	5,856.45	73.3849	5,856.45	74.3646	5,856.45	73.7958	5,856.45	71.4103	5,856.45	64.2467	5,856.45	68.8229	5,856.45	67.8984	5,856.45	66.048	5,856.45	56.5279	5,856.45	65.4314	5,856.45	57.1496	5,856.45	65.8017	5,856.45	59.5625	5,856.45	59.6896	5,856.45	51.1573	5,856.45	61.214	5,856.45	62.4306	5,856.45	59.5251	5,856.45	61.8421	5,856.45	56.8669	5,856.45	57.4636	5,856.45	60.7393
6,062.99	82.7743	6,062.99	80.931	6,062.99	81.9622	6,062.99	80.9323	6,062.99	79.7721	6,062.99	81.5134	6,062.99	81.4566	6,062.99	80.6579	6,062.99	81.3768	6,062.99	79.521	6,062.99	78.4118	6,062.99	79.112	6,062.99	73.6867	6,062.99	77.088	6,062.99	73.7369	6,062.99	72.9719	6,062.99	74.8132	6,062.99	68.6478	6,062.99	69.1884	6,062.99	66.6819	6,062.99	68.8266	6,062.99	64.302	6,062.99	60.8672	6,062.99	64.1309	6,062.99	53.5559	6,062.99	64.153	6,062.99	59.0418	6,062.99	60.2072	6,062.99	54.2704	6,062.99	61.2317	6,062.99	62.0119	6,062.99	58.2751	6,062.99	56.7488	6,062.99	56.2244	6,062.99	57.7478	6,062.99	61.2216
6,276.86	82.7685	6,276.86	81.4647	6,276.86	82.0898	6,276.86	81.9597	6,276.86	80.9014	6,276.86	81.6419	6,276.86	81.406	6,276.86	79.9397	6,276.86	80.8865	6,276.86	79.2754	6,276.86	78.2445	6,276.86	78.1265	6,276.86	73.6019	6,276.86	75.0008	6,276.86	74.2894	6,276.86	70.8421	6,276.86	71.1385	6,276.86	66.5209	6,276.86	67.3018	6,276.86	63.8752	6,276.86	67.6243	6,276.86	63.0087	6,276.86	63.0849	6,276.86	60.7044	6,276.86	56.2048	6,276.86	61.1023	6,276.86	49.5444	6,276.86	59.4996	6,276.86	55.7198	6,276.86	57.2859	6,276.86	61.4242	6,276.86	51.4015	6,276.86	54.9722	6,276.86	54.5146	6,276.86	53.5582	6,276.86	61.3001
6,498.05	82.6148	6,498.05	82.0778	6,498.05	82.0573	6,498.05	82.5219	6,498.05	80.7006	6,498.05	81.5119	6,498.05	81.1454	6,498.05	79.5073	6,498.05	81.05	6,498.05	78.4857	6,498.05	77.941	6,498.05	75.9905	6,498.05	75.7751	6,498.05	72.4573	6,498.05	73.6772	6,498.05	68.5148	6,498.05	69.1795	6,498.05	66.3897	6,498.05	67.0654	6,498.05	63.0024	6,498.05	60.8443	6,498.05	62.2112	6,498.05	57.2111	6,498.05	61.0543	6,498.05	55.8731	6,498.05	59.0923	6,498.05	54.7981	6,498.05	56.7207	6,498.05	59.1214	6,498.05	58.3402	6,498.05	58.8586	6,498.05	49.1482	6,498.05	55.8561	6,498.05	54.1332	6,498.05	51.5149	6,498.05	60.8732
6,726.56	82.9012	6,726.56	82.3737	6,726.56	82.0067	6,726.56	82.1938	6,726.56	80.5599	6,726.56	80.9198	6,726.56	81.0123	6,726.56	79.5097	6,726.56	80.2794	6,726.56	77.8545	6,726.56	78.9937	6,726.56	74.3229	6,726.56	77.1007	6,726.56	73.2874	6,726.56	69.427	6,726.56	69.6166	6,726.56	71.3067	6,726.56	66.9796	6,726.56	69.3803	6,726.56	64.7174	6,726.56	60.9944	6,726.56	62.3178	6,726.56	55.0586	6,726.56	61.1777	6,726.56	56.3235	6,726.56	59.2531	6,726.56	53.2836	6,726.56	56.082	6,726.56	58.5409	6,726.56	59.8649	6,726.56	57.3786	6,726.56	56.0661	6,726.56	53.7969	6,726.56	51.1213	6,726.56	56.0353	6,726.56	60.685
6,963.87	82.3674	6,963.87	82.0892	6,963.87	81.7082	6,963.87	82.0356	6,963.87	80.7063	6,963.87	80.7328	6,963.87	80.1474	6,963.87	79.2557	6,963.87	79.1723	6,963.87	77.0948	6,963.87	79.086	6,963.87	75.2692	6,963.87	75.864	6,963.87	74.1469	6,963.87	70.8927	6,963.87	70.454	6,963.87	74.9908	6,963.87	67.4303	6,963.87	67.9343	6,963.87	63.9276	6,963.87	58.2774	6,963.87	61.2392	6,963.87	56.001	6,963.87	61.472	6,963.87	58.5811	6,963.87	60.1863	6,963.87	59.0422	6,963.87	57.112	6,963.87	57.2907	6,963.87	58.8143	6,963.87	56.1349	6,963.87	57.5982	6,963.87	57.5138	6,963.87	54.1784	6,963.87	53.333	6,963.87	59.2922
7,209.96	81.8141	7,209.96	81.6591	7,209.96	81.1918	7,209.96	81.4083	7,209.96	80.6237	7,209.96	80.1678	7,209.96	80.1088	7,209.96	78.865	7,209.96	79.0556	7,209.96	76.6943	7,209.96	77.0005	7,209.96	76.203	7,209.96	72.3055	7,209.96	73.4088	7,209.96	75.1789	7,209.96	69.9445	7,209.96	77.2043	7,209.96	66.9395	7,209.96	65.7443	7,209.96	63.6978	7,209.96	53.6028	7,209.96	61.4694	7,209.96	50.589	7,209.96	60.5512	7,209.96	54.9513	7,209.96	59.9965	7,209.96	55.9821	7,209.96	58.2624	7,209.96	54.5109	7,209.96	58.9723	7,209.96	52.0895	7,209.96	57.5703	7,209.96	56.58	7,209.96	52.2935	7,209.96	54.1486	7,209.96	58.3957
7,464.84	81.4932	7,464.84	81.1887	7,464.84	81.1317	7,464.84	80.9304	7,464.84	80.5135	7,464.84	79.7485	7,464.84	79.6428	7,464.84	78.2711	7,464.84	78.1817	7,464.84	77.1144	7,464.84	75.6311	7,464.84	76.3677	7,464.84	69.2892	7,464.84	73.3304	7,464.84	77.2101	7,464.84	69.316	7,464.84	77.2534	7,464.84	65.7122	7,464.84	67.2342	7,464.84	63.7087	7,464.84	61.0661	7,464.84	60.077	7,464.84	56.2365	7,464.84	61.0794	7,464.84	60.352	7,464.84	58.1112	7,464.84	60.7343	7,464.84	56.856	7,464.84	49.0927	7,464.84	58.5724	7,464.84	51.0342	7,464.84	56.8353	7,464.84	53.601	7,464.84	52.1887	7,464.84	54.4274	7,464.84	56.9529
7,727.05	81.1698	7,727.05	81.2992	7,727.05	80.8313	7,727.05	81.0703	7,727.05	80.1779	7,727.05	79.5067	7,727.05	78.9174	7,727.05	78.1567	7,727.05	78.31	7,727.05	77.7331	7,727.05	72.8705	7,727.05	76.4208	7,727.05	73.608	7,727.05	73.0518	7,727.05	78.4928	7,727.05	69.2897	7,727.05	76.162	7,727.05	65.6351	7,727.05	67.3136	7,727.05	64.2145	7,727.05	58.0497	7,727.05	60.4739	7,727.05	59.3346	7,727.05	60.2915	7,727.05	59.6375	7,727.05	59.2007	7,727.05	58.675	7,727.05	57.564	7,727.05	46.7283	7,727.05	58.4088	7,727.05	44.4677	7,727.05	57.5846	7,727.05	53.9272	7,727.05	44.9289	7,727.05	51.9585	7,727.05	56.0284
7,999.51	81.6658	7,999.51	81.7316	7,999.51	81.2378	7,999.51	80.8067	7,999.51	80.4612	7,999.51	79.1124	7,999.51	79.6801	7,999.51	78.3662	7,999.51	77.5522	7,999.51	77.8121	7,999.51	74.7448	7,999.51	76.3683	7,999.51	76.2066	7,999.51	73.2564	7,999.51	77.1119	7,999.51	68.926	7,999.51	72.6902	7,999.51	65.34	7,999.51	66.9987	7,999.51	62.5605	7,999.51	62.0932	7,999.51	59.5297	7,999.51	61.9194	7,999.51	61.0926	7,999.51	58.2496	7,999.51	57.8517	7,999.51	55.065	7,999.51	57.2265	7,999.51	52.4036	7,999.51	58.4384	7,999.51	50.6335	7,999.51	56.8475	7,999.51	52.7592	7,999.51	51.1925	7,999.51	54.1015	7,999.51	55.0551
8,282.23	82.4047	8,282.23	82.2114	8,282.23	81.7636	8,282.23	80.962	8,282.23	80.6967	8,282.23	79.0369	8,282.23	79.2992	8,282.23	78.2671	8,282.23	78.3817	8,282.23	77.9814	8,282.23	75.8711	8,282.23	76.1423	8,282.23	75.9943	8,282.23	72.9861	8,282.23	73.1016	8,282.23	67.975	8,282.23	67.2068	8,282.23	64.9529	8,282.23	64.2852	8,282.23	60.873	8,282.23	62.7638	8,282.23	58.4871	8,282.23	63.493	8,282.23	59.0092	8,282.23	52.9756	8,282.23	57.2238	8,282.23	54.3911	8,282.23	57.9385	8,282.23	55.0348	8,282.23	56.5561	8,282.23	47.1858	8,282.23	58.1734	8,282.23	53.4584	8,282.23	49.8285	8,282.23	49.9823	8,282.23	54.2456
8,573.73	82.8641	8,573.73	82.2844	8,573.73	82.5144	8,573.73	81.1469	8,573.73	81.2499	8,573.73	79.1173	8,573.73	79.8212	8,573.73	78.1789	8,573.73	78.6105	8,573.73	77.6187	8,573.73	76.7098	8,573.73	75.5457	8,573.73	74.6052	8,573.73	71.9506	8,573.73	64.6487	8,573.73	67.2396	8,573.73	64.6028	8,573.73	64.2798	8,573.73	63.1083	8,573.73	60.4646	8,573.73	55.0557	8,573.73	58.3003	8,573.73	60.3	8,573.73	56.7796	8,573.73	40.8138	8,573.73	57.0971	8,573.73	50.5552	8,573.73	57.6939	8,573.73	55.0896	8,573.73	57.0812	8,573.73	36.341	8,573.73	56.7183	8,573.73	52.997	8,573.73	43.9498	8,573.73	48.4941	8,573.73	54.4373
8,876.95	82.8429	8,876.95	82.2963	8,876.95	82.8271	8,876.95	81.2914	8,876.95	81.1846	8,876.95	79.1948	8,876.95	79.4791	8,876.95	78.2884	8,876.95	78.2329	8,876.95	76.9821	8,876.95	76.0966	8,876.95	74.6315	8,876.95	72.5078	8,876.95	71.2899	8,876.95	67.7653	8,876.95	67.8054	8,876.95	70.5951	8,876.95	64.0346	8,876.95	65.9033	8,876.95	60.384	8,876.95	52.9859	8,876.95	57.9246	8,876.95	61.3233	8,876.95	56.5069	8,876.95	44.5568	8,876.95	56.696	8,876.95	49.7281	8,876.95	56.8791	8,876.95	53.2737	8,876.95	56.7372	8,876.95	44.0366	8,876.95	56.3192	8,876.95	52.5448	8,876.95	39.9256	8,876.95	46.637	8,876.95	54.8114
9,188.96	82.7115	9,188.96	82.2138	9,188.96	82.8179	9,188.96	81.3011	9,188.96	81.6372	9,188.96	79.6204	9,188.96	79.9371	9,188.96	78.17	9,188.96	77.5215	9,188.96	76.018	9,188.96	75.0739	9,188.96	73.8518	9,188.96	70.6953	9,188.96	71.6246	9,188.96	72.2644	9,188.96	67.4432	9,188.96	71.1545	9,188.96	63.5417	9,188.96	64.6635	9,188.96	58.7953	9,188.96	50.9329	9,188.96	56.804	9,188.96	61.085	9,188.96	56.0761	9,188.96	49.0914	9,188.96	56.4571	9,188.96	50.3327	9,188.96	56.3887	9,188.96	49.8844	9,188.96	56.6913	9,188.96	46.3922	9,188.96	55.3562	9,188.96	55.3763	9,188.96	29.562	9,188.96	48.1909	9,188.96	52.8313
9,514.16	82.7913	9,514.16	82.2189	9,514.16	82.5265	9,514.16	81.2765	9,514.16	81.4541	9,514.16	79.9919	9,514.16	80.2232	9,514.16	78.0486	9,514.16	77.274	9,514.16	75.3245	9,514.16	73.8709	9,514.16	73.5186	9,514.16	70.3314	9,514.16	70.4908	9,514.16	73.2042	9,514.16	65.8338	9,514.16	69.3598	9,514.16	62.7947	9,514.16	62.7546	9,514.16	56.9413	9,514.16	54.8824	9,514.16	54.9745	9,514.16	59.8616	9,514.16	54.3714	9,514.16	47.5762	9,514.16	54.6772	9,514.16	49.4948	9,514.16	56.2343	9,514.16	50.0991	9,514.16	54.8852	9,514.16	47.0328	9,514.16	54.851	9,514.16	51.7584	9,514.16	38.4257	9,514.16	48.829	9,514.16	51.581
9,849.61	83.0864	9,849.61	82.3801	9,849.61	82.593	9,849.61	81.3148	9,849.61	81.5939	9,849.61	79.936	9,849.61	80.3101	9,849.61	77.6493	9,849.61	77.3489	9,849.61	75.0574	9,849.61	72.7954	9,849.61	73.12	9,849.61	71.6285	9,849.61	69.2617	9,849.61	70.1178	9,849.61	65.1638	9,849.61	66.2458	9,849.61	60.5646	9,849.61	57.5085	9,849.61	55.0506	9,849.61	53.0754	9,849.61	53.3584	9,849.61	59.055	9,849.61	53.4217	9,849.61	34.4313	9,849.61	52.8285	9,849.61	49.6699	9,849.61	54.776	9,849.61	47.1261	9,849.61	53.3528	9,849.61	47.5729	9,849.61	50.914	9,849.61	52.1561	9,849.61	38.6142	9,849.61	37.2328	9,849.61	48.736
10,196.8	83.4233	10,196.8	82.5613	10,196.8	82.5819	10,196.8	81.2075	10,196.8	81.7667	10,196.8	79.521	10,196.8	80.2273	10,196.8	76.9102	10,196.8	77.3582	10,196.8	74.8268	10,196.8	73.9214	10,196.8	72.8354	10,196.8	71.8361	10,196.8	68.3447	10,196.8	68.5062	10,196.8	63.5368	10,196.8	63.6355	10,196.8	59.3286	10,196.8	60.034	10,196.8	55.1843	10,196.8	52.6379	10,196.8	52.8887	10,196.8	59.5568	10,196.8	53.4627	10,196.8	44.4015	10,196.8	50.8806	10,196.8	48.7698	10,196.8	50.9751	10,196.8	46.7006	10,196.8	51.8261	10,196.8	43.7881	10,196.8	50.8411	10,196.8	50.8821	10,196.8	34.5388	10,196.8	40.8391	10,196.8	45.8563
10,555.7	83.4424	10,555.7	82.5268	10,555.7	82.7316	10,555.7	81.0511	10,555.7	81.8031	10,555.7	79.1148	10,555.7	79.8681	10,555.7	75.9465	10,555.7	76.8708	10,555.7	74.6015	10,555.7	74.5526	10,555.7	72.214	10,555.7	70.52	10,555.7	67.6036	10,555.7	68.8567	10,555.7	61.3318	10,555.7	60.3725	10,555.7	58.329	10,555.7	62.5434	10,555.7	53.6486	10,555.7	41.3578	10,555.7	52.0522	10,555.7	58.4572	10,555.7	52.8397	10,555.7	49.5199	10,555.7	49.3033	10,555.7	48.3719	10,555.7	49.6789	10,555.7	38.2643	10,555.7	51.9019	10,555.7	44.0899	10,555.7	49.6495	10,555.7	49.0799	10,555.7	42.5156	10,555.7	34.8643	10,555.7	41.3742
10,927.7	83.2117	10,927.7	82.0149	10,927.7	82.7634	10,927.7	81.0502	10,927.7	81.6645	10,927.7	78.891	10,927.7	79.5321	10,927.7	75.4901	10,927.7	76.7931	10,927.7	74.5654	10,927.7	74.1756	10,927.7	71.3321	10,927.7	70.0126	10,927.7	66.9645	10,927.7	67.8912	10,927.7	62.768	10,927.7	55.0122	10,927.7	59.8648	10,927.7	62.474	10,927.7	55.8453	10,927.7	51.8259	10,927.7	52.1048	10,927.7	60.4421	10,927.7	53.3553	10,927.7	52.0923	10,927.7	49.9627	10,927.7	49.4427	10,927.7	51.2435	10,927.7	39.4329	10,927.7	52.8726	10,927.7	38.3425	10,927.7	51.7594	10,927.7	49.1798	10,927.7	45.6776	10,927.7	40.9289	10,927.7	45.3762
11,313	82.8406	11,313	81.7046	11,313	82.6579	11,313	81.3731	11,313	81.6543	11,313	78.8644	11,313	79.6098	11,313	75.9985	11,313	77.4698	11,313	73.9233	11,313	74.8372	11,313	71.5477	11,313	70.6238	11,313	68.0848	11,313	65.5902	11,313	63.5208	11,313	61.9814	11,313	59.4611	11,313	61.4351	11,313	56.1164	11,313	60.1912	11,313	50.0398	11,313	64.5362	11,313	52.8786	11,313	50.1781	11,313	47.8431	11,313	50.8716	11,313	52.7173	11,313	49.3086	11,313	53.3742	11,313	39.0466	11,313	51.3583	11,313	40.9883	11,313	48.2772	11,313	45.0781	11,313	47.7877
11,712.9	82.475	11,712.9	81.8039	11,712.9	82.0611	11,712.9	81.4886	11,712.9	81.3543	11,712.9	79.3215	11,712.9	79.4049	11,712.9	76.564	11,712.9	77.8117	11,712.9	73.7401	11,712.9	74.7116	11,712.9	72.4318	11,712.9	71.541	11,712.9	68.5817	11,712.9	68.5691	11,712.9	63.4693	11,712.9	64.009	11,712.9	59.9017	11,712.9	63.433	11,712.9	56.0619	11,712.9	59.8681	11,712.9	51.5889	11,712.9	65.8093	11,712.9	50.9764	11,712.9	51.3329	11,712.9	46.6524	11,712.9	43.4175	11,712.9	55.5379	11,712.9	52.1382	11,712.9	51.4813	11,712.9	38.1555	11,712.9	51.9744	11,712.9	26.3822	11,712.9	47.5839	11,712.9	46.5012	11,712.9	45.1401
12,126	82.4643	12,126	82.0942	12,126	81.5302	12,126	81.1255	12,126	81.1398	12,126	79.5058	12,126	79.4915	12,126	76.5973	12,126	77.4143	12,126	73.9849	12,126	74.0772	12,126	72.2581	12,126	69.9486	12,126	68.5803	12,126	69.5342	12,126	63.7356	12,126	61.8169	12,126	58.7409	12,126	64.5401	12,126	55.4315	12,126	61.2339	12,126	50.5523	12,126	64.9101	12,126	49.6738	12,126	51.1703	12,126	48.645	12,126	45.1987	12,126	54.6943	12,126	41.1913	12,126	48.69	12,126	35.3101	12,126	50.6965	12,126	49.5373	12,126	46.4945	12,126	47.7253	12,126	46.0784
12,553.7	82.6936	12,553.7	81.9856	12,553.7	81.9681	12,553.7	80.7863	12,553.7	81.0483	12,553.7	79.3647	12,553.7	79.1245	12,553.7	76.1705	12,553.7	75.6414	12,553.7	73.0914	12,553.7	73.4075	12,553.7	70.8546	12,553.7	68.9559	12,553.7	66.1012	12,553.7	66.6416	12,553.7	61.6546	12,553.7	61.009	12,553.7	55.1801	12,553.7	62.1255	12,553.7	52.2754	12,553.7	60.9116	12,553.7	46.3626	12,553.7	63.4253	12,553.7	47.5655	12,553.7	48.7602	12,553.7	42.9104	12,553.7	47.4888	12,553.7	50.8068	12,553.7	42.3417	12,553.7	44.4463	12,553.7	42.518	12,553.7	49.2968	12,553.7	49.1575	12,553.7	39.1233	12,553.7	45.6766	12,553.7	46.435
12,996.1	82.4821	12,996.1	81.5216	12,996.1	82.186	12,996.1	80.2903	12,996.1	80.7267	12,996.1	78.471	12,996.1	78.483	12,996.1	74.9684	12,996.1	75.4374	12,996.1	71.3749	12,996.1	72.545	12,996.1	67.9537	12,996.1	68.6249	12,996.1	62.0565	12,996.1	63.2893	12,996.1	57.1445	12,996.1	56.7972	12,996.1	52.1465	12,996.1	58.0093	12,996.1	48.8121	12,996.1	59.7391	12,996.1	43.4889	12,996.1	63.0839	12,996.1	39.3816	12,996.1	41.2388	12,996.1	47.7686	12,996.1	40.0107	12,996.1	47.4152	12,996.1	44.3094	12,996.1	42.4283	12,996.1	27.8994	12,996.1	48.8675	12,996.1	41.8356	12,996.1	27.9325	12,996.1	47.9818	12,996.1	43.3836
13,454.6	82.256	13,454.6	81.3989	13,454.6	81.8102	13,454.6	79.8241	13,454.6	80.0303	13,454.6	77.1041	13,454.6	77.2633	13,454.6	73.2409	13,454.6	73.8269	13,454.6	69.1877	13,454.6	69.3144	13,454.6	65.1304	13,454.6	65.2863	13,454.6	58.3013	13,454.6	59.4003	13,454.6	55.5348	13,454.6	52.7941	13,454.6	50.814	13,454.6	56.5802	13,454.6	46.9436	13,454.6	58.4457	13,454.6	44.0914	13,454.6	60.8479	13,454.6	33.135	13,454.6	37.0699	13,454.6	47.3008	13,454.6	38.475	13,454.6	44.6381	13,454.6	43.474	13,454.6	44.2722	13,454.6	37.3751	13,454.6	46.5308	13,454.6	43.2588	13,454.6	37.751	13,454.6	45.7767	13,454.6	36.1096
13,929.2	82.1153	13,929.2	81.3135	13,929.2	81.2536	13,929.2	79.3704	13,929.2	79.5062	13,929.2	76.5232	13,929.2	76.6407	13,929.2	71.832	13,929.2	72.7379	13,929.2	68.4099	13,929.2	67.9126	13,929.2	63.6582	13,929.2	62.746	13,929.2	59.0753	13,929.2	54.4642	13,929.2	56.4772	13,929.2	53.2419	13,929.2	50.1489	13,929.2	57.1674	13,929.2	47.9134	13,929.2	60.9237	13,929.2	45.3564	13,929.2	62.0908	13,929.2	31.916	13,929.2	39.8829	13,929.2	48.2831	13,929.2	34.4431	13,929.2	42.3119	13,929.2	33.417	13,929.2	44.8872	13,929.2	41.1643	13,929.2	46.835	13,929.2	46.6801	13,929.2	43.0113	13,929.2	42.2054	13,929.2	41.1806
14,419.9	82.0136	14,419.9	81.0399	14,419.9	81.0154	14,419.9	79.1545	14,419.9	79.2917	14,419.9	76.3547	14,419.9	76.6471	14,419.9	71.6967	14,419.9	72.5981	14,419.9	68.323	14,419.9	67.0185	14,419.9	64.2027	14,419.9	62.9711	14,419.9	59.4303	14,419.9	57.0552	14,419.9	57.0492	14,419.9	52.2578	14,419.9	51.7403	14,419.9	56.8011	14,419.9	46.6981	14,419.9	62.3572	14,419.9	46.1319	14,419.9	63.8652	14,419.9	13.5716	14,419.9	27.1116	14,419.9	48.817	14,419.9	35.4559	14,419.9	42.8854	14,419.9	43.2994	14,419.9	47.6393	14,419.9	40.8401	14,419.9	47.1348	14,419.9	45.8325	14,419.9	43.9249	14,419.9	41.9817	14,419.9	43.3829
14,928.2	82.0698	14,928.2	80.9988	14,928.2	81.3183	14,928.2	79.1932	14,928.2	79.5999	14,928.2	76.2238	14,928.2	76.6628	14,928.2	72.1839	14,928.2	72.2467	14,928.2	68.2702	14,928.2	68.264	14,928.2	64.7404	14,928.2	62.9751	14,928.2	58.7842	14,928.2	57.8094	14,928.2	56.6719	14,928.2	54.8944	14,928.2	51.3486	14,928.2	57.5828	14,928.2	43.6895	14,928.2	63.731	14,928.2	44.7172	14,928.2	65.1144	14,928.2	32.0261	14,928.2	27.648	14,928.2	47.3556	14,928.2	44.6153	14,928.2	39.8687	14,928.2	45.5087	14,928.2	48.064	14,928.2	42.6246	14,928.2	44.979	14,928.2	41.4073	14,928.2	42.3491	14,928.2	42.8751	14,928.2	43.9023
15,455.6	82.5261	15,455.6	81.4882	15,455.6	81.8814	15,455.6	79.5201	15,455.6	79.9787	15,455.6	76.4009	15,455.6	76.9053	15,455.6	72.4104	15,455.6	71.9723	15,455.6	68.1493	15,455.6	67.0898	15,455.6	64.4703	15,455.6	61.7404	15,455.6	56.2655	15,455.6	56.4935	15,455.6	53.8594	15,455.6	52.7569	15,455.6	50.5343	15,455.6	54.9983	15,455.6	41.4616	15,455.6	62.7409	15,455.6	44.3683	15,455.6	64.3988	15,455.6	36.0263	15,455.6	14.4009	15,455.6	47.6816	15,455.6	43.4893	15,455.6	40.9203	15,455.6	47.3729	15,455.6	46.7716	15,455.6	35.4761	15,455.6	44.7919	15,455.6	40.7676	15,455.6	42.9007	15,455.6	41.2001	15,455.6	43.2239
16,000.5	82.5534	16,000.5	81.5323	16,000.5	81.9507	16,000.5	79.3162	16,000.5	79.8188	16,000.5	75.6915	16,000.5	76.2596	16,000.5	70.8843	16,000.5	70.1763	16,000.5	65.8284	16,000.5	64.6371	16,000.5	60.4918	16,000.5	57.0078	16,000.5	50.9059	16,000.5	53.8659	16,000.5	50.0819	16,000.5	51.4494	16,000.5	45.3883	16,000.5	51.4856	16,000.5	31.7144	16,000.5	61.7724	16,000.5	39.9223	16,000.5	63.0106	16,000.5	36.9865	16,000.5	29.9889	16,000.5	44.2834	16,000.5	41.3382	16,000.5	35.5137	16,000.5	44.9676	16,000.5	43.803	16,000.5	33.3265	16,000.5	43.8654	16,000.5	42.247	16,000.5	40.9355	16,000.5	35.5204	16,000.5	41.6996
16,564.5	81.977	16,564.5	81.0003	16,564.5	81.2316	16,564.5	78.6031	16,564.5	78.9124	16,564.5	74.5185	16,564.5	74.8023	16,564.5	68.4384	16,564.5	68.4183	16,564.5	62.6319	16,564.5	61.1958	16,564.5	55.3488	16,564.5	57.5583	16,564.5	46.2497	16,564.5	52.5829	16,564.5	47.3406	16,564.5	55.1676	16,564.5	47.5469	16,564.5	44.986	16,564.5	29.365	16,564.5	60.2032	16,564.5	39.9886	16,564.5	61.3745	16,564.5	37.4616	16,564.5	35.5858	16,564.5	40.7791	16,564.5	39.4391	16,564.5	33.8293	16,564.5	43.2908	16,564.5	44.3084	16,564.5	37.4877	16,564.5	44.0541	16,564.5	43.4639	16,564.5	35.788	16,564.5	34.9153	16,564.5	40.2697
17,148.9	80.5607	17,148.9	79.546	17,148.9	79.7688	17,148.9	77.2224	17,148.9	77.3756	17,148.9	73.0379	17,148.9	72.8183	17,148.9	66.5589	17,148.9	67.2852	17,148.9	60.4831	17,148.9	62.0839	17,148.9	53.9625	17,148.9	58.7266	17,148.9	48.9796	17,148.9	54.8388	17,148.9	47.5362	17,148.9	56.2102	17,148.9	48.2207	17,148.9	48.5634	17,148.9	35.1625	17,148.9	59.3013	17,148.9	38.8235	17,148.9	60.9465	17,148.9	38.8957	17,148.9	29.0246	17,148.9	37.1767	17,148.9	38.468	17,148.9	35.2543	17,148.9	44.572	17,148.9	45.0755	17,148.9	39.5734	17,148.9	42.2995	17,148.9	38.8687	17,148.9	27.6267	17,148.9	40.7723	17,148.9	40.0498
17,752.4	82.5349	17,752.4	81.1756	17,752.4	81.7247	17,752.4	78.3501	17,752.4	78.9507	17,752.4	73.7771	17,752.4	74.5794	17,752.4	67.2792	17,752.4	69.1218	17,752.4	59.586	17,752.4	61.9341	17,752.4	52.7855	17,752.4	54.0633	17,752.4	44.3115	17,752.4	53.7302	17,752.4	42.0821	17,752.4	52.4507	17,752.4	44.6361	17,752.4	40.8002	17,752.4	33.3898	17,752.4	61.3278	17,752.4	33.2838	17,752.4	62.3348	17,752.4	35.6349	17,752.4	36.5038	17,752.4	30.5963	17,752.4	38.9354	17,752.4	34.0665	17,752.4	44.0572	17,752.4	42.4692	17,752.4	34.0508	17,752.4	40.3109	17,752.4	28.088	17,752.4	35.3561	17,752.4	35.1661	17,752.4	30.0861
18,379.4	82.259	18,379.4	80.9126	18,379.4	81.3454	18,379.4	77.7583	18,379.4	78.234	18,379.4	72.3001	18,379.4	73.4587	18,379.4	64.7892	18,379.4	67.1134	18,379.4	54.1679	18,379.4	56.9622	18,379.4	44.478	18,379.4	50.423	18,379.4	47.3537	18,379.4	46.4872	18,379.4	44.5165	18,379.4	51.4894	18,379.4	44.2098	18,379.4	45.9453	18,379.4	37.0739	18,379.4	60.1828	18,379.4	29.2757	18,379.4	59.1482	18,379.4	26.7161	18,379.4	42.6087	18,379.4	35.9361	18,379.4	35.0861	18,379.4	33.92	18,379.4	36.3565	18,379.4	41.9851	18,379.4	35.9752	18,379.4	33.4231	18,379.4	30.5738	18,379.4	41.6334	18,379.4	35.4725	18,379.4	33.6552
19,026.9	80.9669	19,026.9	79.5799	19,026.9	79.9147	19,026.9	76.1954	19,026.9	76.4598	19,026.9	70.2463	19,026.9	71.383	19,026.9	61.4845	19,026.9	63.9275	19,026.9	42.2651	19,026.9	51.8086	19,026.9	48.0489	19,026.9	42.1834	19,026.9	49.87	19,026.9	43.9075	19,026.9	47.0927	19,026.9	50.8354	19,026.9	43.12	19,026.9	48.0064	19,026.9	36.152	19,026.9	57.8925	19,026.9	33.3804	19,026.9	56.0015	19,026.9	25.7006	19,026.9	43.8502	19,026.9	36.4452	19,026.9	35.5646	19,026.9	28.8533	19,026.9	27.9911	19,026.9	40.1386	19,026.9	36.1478	19,026.9	28.7595	19,026.9	33.406	19,026.9	42.6658	19,026.9	39.4183	19,026.9	36.0823
19,697.8	80.2928	19,697.8	78.4997	19,697.8	79.0274	19,697.8	74.4695	19,697.8	75.0047	19,697.8	68.0448	19,697.8	69.2355	19,697.8	56.3654	19,697.8	59.368	19,697.8	49.0104	19,697.8	42.7372	19,697.8	51.9406	19,697.8	46.9044	19,697.8	48.7702	19,697.8	41.0532	19,697.8	47.0895	19,697.8	51.0482	19,697.8	41.3398	19,697.8	49.567	19,697.8	32.6459	19,697.8	55.7333	19,697.8	32.4791	19,697.8	53.7212	19,697.8	31.9216	19,697.8	46.0432	19,697.8	36.8043	19,697.8	41.2904	19,697.8	27.5767	19,697.8	37.4564	19,697.8	37.6655	19,697.8	39.3254	19,697.8	35.7244	19,697.8	34.8212	19,697.8	42.5191	19,697.8	43.5766	19,697.8	37.7595
19,999.5	79.8773	19,999.5	77.993	19,999.5	78.5542	19,999.5	73.7633	19,999.5	74.3055	19,999.5	66.4492	19,999.5	68.5239	19,999.5	52.442	19,999.5	57.6864	19,999.5	51.6837	19,999.5	44.8245	19,999.5	52.5692	19,999.5	46.5194	19,999.5	48.9373	19,999.5	41.9684	19,999.5	44.9635	19,999.5	48.5161	19,999.5	43.2186	19,999.5	47.3848	19,999.5	22.469	19,999.5	55.4743	19,999.5	37.1757	19,999.5	52.7887	19,999.5	42.8586	19,999.5	45.0685	19,999.5	33.4715	19,999.5	47.4359	19,999.5	40.2611	19,999.5	37.6435	19,999.5	41.7925	19,999.5	43.5131	19,999.5	30.6086	19,999.5	45.5172	19,999.5	39.2836	19,999.5	49.6235	19,999.5	34.9751
