"SPL Horizontal"																																																																							
"On-Axis"		"10°"		"-10°"		"20°"		"-20°"		"30°"		"-30°"		"40°"		"-40°"		"50°"		"-50°"		"60°"		"-60°"		"70°"		"-70°"		"80°"		"-80°"		"90°"		"-90°"		"100°"		"-100°"		"110°"		"-110°"		"120°"		"-120°"		"130°"		"-130°"		"140°"		"-140°"		"150°"		"-150°"		"160°"		"-160°"		"170°"		"-170°"		"180°"	
"Frequency [Hz]"	"Sound Pessure Level [dB]  / [2.83V 1m] "	"Frequency [Hz]"	"Sound Pessure Level [dB]  / [2.83V 1m] "	"Frequency [Hz]"	"Sound Pessure Level [dB]  / [2.83V 1m] "	"Frequency [Hz]"	"Sound Pessure Level [dB]  / [2.83V 1m] "	"Frequency [Hz]"	"Sound Pessure Level [dB]  / [2.83V 1m] "	"Frequency [Hz]"	"Sound Pessure Level [dB]  / [2.83V 1m] "	"Frequency [Hz]"	"Sound Pessure Level [dB]  / [2.83V 1m] "	"Frequency [Hz]"	"Sound Pessure Level [dB]  / [2.83V 1m] "	"Frequency [Hz]"	"Sound Pessure Level [dB]  / [2.83V 1m] "	"Frequency [Hz]"	"Sound Pessure Level [dB]  / [2.83V 1m] "	"Frequency [Hz]"	"Sound Pessure Level [dB]  / [2.83V 1m] "	"Frequency [Hz]"	"Sound Pessure Level [dB]  / [2.83V 1m] "	"Frequency [Hz]"	"Sound Pessure Level [dB]  / [2.83V 1m] "	"Frequency [Hz]"	"Sound Pessure Level [dB]  / [2.83V 1m] "	"Frequency [Hz]"	"Sound Pessure Level [dB]  / [2.83V 1m] "	"Frequency [Hz]"	"Sound Pessure Level [dB]  / [2.83V 1m] "	"Frequency [Hz]"	"Sound Pessure Level [dB]  / [2.83V 1m] "	"Frequency [Hz]"	"Sound Pessure Level [dB]  / [2.83V 1m] "	"Frequency [Hz]"	"Sound Pessure Level [dB]  / [2.83V 1m] "	"Frequency [Hz]"	"Sound Pessure Level [dB]  / [2.83V 1m] "	"Frequency [Hz]"	"Sound Pessure Level [dB]  / [2.83V 1m] "	"Frequency [Hz]"	"Sound Pessure Level [dB]  / [2.83V 1m] "	"Frequency [Hz]"	"Sound Pessure Level [dB]  / [2.83V 1m] "	"Frequency [Hz]"	"Sound Pessure Level [dB]  / [2.83V 1m] "	"Frequency [Hz]"	"Sound Pessure Level [dB]  / [2.83V 1m] "	"Frequency [Hz]"	"Sound Pessure Level [dB]  / [2.83V 1m] "	"Frequency [Hz]"	"Sound Pessure Level [dB]  / [2.83V 1m] "	"Frequency [Hz]"	"Sound Pessure Level [dB]  / [2.83V 1m] "	"Frequency [Hz]"	"Sound Pessure Level [dB]  / [2.83V 1m] "	"Frequency [Hz]"	"Sound Pessure Level [dB]  / [2.83V 1m] "	"Frequency [Hz]"	"Sound Pessure Level [dB]  / [2.83V 1m] "	"Frequency [Hz]"	"Sound Pessure Level [dB]  / [2.83V 1m] "	"Frequency [Hz]"	"Sound Pessure Level [dB]  / [2.83V 1m] "	"Frequency [Hz]"	"Sound Pessure Level [dB]  / [2.83V 1m] "	"Frequency [Hz]"	"Sound Pessure Level [dB]  / [2.83V 1m] "	"Frequency [Hz]"	"Sound Pessure Level [dB]  / [2.83V 1m] "
20.5078	39.9787	20.5078	39.738	20.5078	39.9146	20.5078	39.1714	20.5078	39.5412	20.5078	38.2281	20.5078	38.828	20.5078	36.8223	20.5078	37.7144	20.5078	34.8518	20.5078	36.1117	20.5078	32.4416	20.5078	33.979	20.5078	31.1736	20.5078	31.8639	20.5078	33.2786	20.5078	32.0347	20.5078	36.5903	20.5078	34.8707	20.5078	39.4704	20.5078	37.9678	20.5078	41.7772	20.5078	40.5492	20.5078	43.6116	20.5078	42.6197	20.5078	45.0622	20.5078	44.2704	20.5078	46.1866	20.5078	45.5713	20.5078	47.0201	20.5078	46.567	20.5078	47.5834	20.5078	47.2846	20.5078	47.888	20.5078	47.7395	20.5078	47.9397
21.9727	40.5997	21.9727	40.3825	21.9727	40.4989	21.9727	39.8332	21.9727	40.0727	21.9727	38.921	21.9727	39.2916	21.9727	37.6221	21.9727	38.109	21.9727	36.0382	21.9727	36.5058	21.9727	34.8099	21.9727	34.7286	21.9727	35.3079	21.9727	33.9684	21.9727	37.5528	21.9727	35.5567	21.9727	40.1743	21.9727	38.3212	21.9727	42.5181	21.9727	40.9697	21.9727	44.4808	21.9727	43.2068	21.9727	46.0909	21.9727	45.0471	21.9727	47.3894	21.9727	46.545	21.9727	48.4077	21.9727	47.7442	21.9727	49.1665	21.9727	48.6738	21.9727	49.6783	21.9727	49.3515	21.9727	49.9504	21.9727	49.7874	21.9727	49.9865
23.4375	43.0002	23.4375	42.7722	23.4375	42.952	23.4375	42.2532	23.4375	42.6268	23.4375	41.4134	23.4375	42.0086	23.4375	40.2192	23.4375	41.0711	23.4375	38.6919	23.4375	39.8004	23.4375	37.1475	23.4375	38.2934	23.4375	36.6556	23.4375	37.0644	23.4375	38.1151	23.4375	37.2278	23.4375	40.5588	23.4375	39.0411	23.4375	42.9506	23.4375	41.4143	23.4375	44.9958	23.4375	43.6322	23.4375	46.6773	23.4375	45.5199	23.4375	48.0294	23.4375	47.0751	23.4375	49.085	23.4375	48.3266	23.4375	49.8671	23.4375	49.3	23.4375	50.3905	23.4375	50.0127	23.4375	50.6638	23.4375	50.4748	23.4375	50.6914
24.9023	44.3944	24.9023	44.2037	24.9023	44.3337	24.9023	43.756	24.9023	44.02	24.9023	43.045	24.9023	43.4462	24.9023	42.0858	24.9023	42.6097	24.9023	40.985	24.9023	41.5492	24.9023	40.1006	24.9023	40.4486	24.9023	40.1043	24.9023	39.8165	24.9023	41.3262	24.9023	40.3205	24.9023	43.2381	24.9023	41.9189	24.9023	45.2261	24.9023	43.9261	24.9023	47.0193	24.9023	45.8627	24.9023	48.5468	24.9023	47.5619	24.9023	49.8041	24.9023	48.9912	24.9023	50.8017	24.9023	50.156	24.9023	51.5503	24.9023	51.068	24.9023	52.0576	24.9023	51.7367	24.9023	52.3284	24.9023	52.168	24.9023	52.3649
26.3672	45.8945	26.3672	45.7231	26.3672	45.8394	26.3672	45.3246	26.3672	45.558	26.3672	44.7047	26.3672	45.0515	26.3672	43.8996	26.3672	44.3345	26.3672	43.036	26.3672	43.4711	26.3672	42.4287	26.3672	42.6532	26.3672	42.5532	26.3672	42.2831	26.3672	43.6082	26.3672	42.7899	26.3672	45.2446	26.3672	44.1336	26.3672	47.0078	26.3672	45.8589	26.3672	48.6485	26.3672	47.5881	26.3672	50.0758	26.3672	49.1498	26.3672	51.2663	26.3672	50.489	26.3672	52.2188	26.3672	51.5941	26.3672	52.937	26.3672	52.4667	26.3672	53.4249	26.3672	53.1103	26.3672	53.685	26.3672	53.5273	26.3672	53.7188
27.832	47.6932	27.832	47.5325	27.832	47.6513	27.832	47.1699	27.832	47.4077	27.832	46.6148	27.832	46.9669	27.832	45.9044	27.832	46.3469	27.832	45.1495	27.832	45.607	27.832	44.6006	27.832	44.9012	27.832	44.6301	27.832	44.5313	27.832	45.4455	27.832	44.8415	27.832	46.8391	27.832	45.8891	27.832	48.4338	27.832	47.3716	27.832	49.9728	27.832	48.9486	27.832	51.3402	27.832	50.4237	27.832	52.4948	27.832	51.7144	27.832	53.4249	27.832	52.7926	27.832	54.1287	27.832	53.6503	27.832	54.6073	27.832	54.2863	27.832	54.8615	27.832	54.7004	27.832	54.8923
29.2969	49.4939	29.2969	49.3573	29.2969	49.4585	29.2969	49.0531	29.2969	49.2522	29.2969	48.5972	29.2969	48.8832	29.2969	48.0329	29.2969	48.375	29.2969	47.4611	29.2969	47.787	29.2969	47.0735	29.2969	47.2479	29.2969	47.1235	29.2969	46.9777	29.2969	47.7608	29.2969	47.2157	29.2969	48.8809	29.2969	48.0308	29.2969	50.2289	29.2969	49.2479	29.2969	51.5872	29.2969	50.6125	29.2969	52.8314	29.2969	51.9402	29.2969	53.9031	29.2969	53.1336	29.2969	54.7772	29.2969	54.1481	29.2969	55.4436	29.2969	54.9649	29.2969	55.8979	29.2969	55.5756	29.2969	56.1382	29.2969	55.9761	29.2969	56.1641
30.7617	51.124	30.7617	51.0016	30.7617	51.0922	30.7617	50.7302	30.7617	50.9075	30.7617	50.3271	30.7617	50.579	30.7617	49.8344	30.7617	50.1309	30.7617	49.3412	30.7617	49.6186	30.7617	49.0063	30.7617	49.1528	30.7617	49.0334	30.7617	48.9126	30.7617	49.5551	30.7617	49.093	30.7617	50.5147	30.7617	49.7696	30.7617	51.7157	30.7617	50.8267	30.7617	52.9636	30.7617	52.0576	30.7617	54.1317	30.7617	53.2891	30.7617	55.1524	30.7617	54.4172	30.7617	55.9931	30.7617	55.3882	30.7617	56.6381	30.7617	56.1762	30.7617	57.0797	30.7617	56.7681	30.7617	57.3141	30.7617	57.1573	30.7617	57.3399
32.2266	52.7782	32.2266	52.6779	32.2266	52.7483	32.2266	52.4547	32.2266	52.5895	32.2266	52.1285	32.2266	52.3122	32.2266	51.7414	32.2266	51.942	32.2266	51.3726	32.2266	51.5311	32.2266	51.147	32.2266	51.1735	32.2266	51.2124	32.2266	51.0079	32.2266	51.6641	32.2266	51.1782	32.2266	52.4719	32.2266	51.7465	32.2266	53.5016	32.2266	52.6423	32.2266	54.6005	32.2266	53.7146	32.2266	55.6538	32.2266	54.8184	32.2266	56.5908	32.2266	55.853	32.2266	57.3718	32.2266	56.7592	32.2266	57.9751	32.2266	57.5042	32.2266	58.3888	32.2266	58.0698	32.2266	58.6064	32.2266	58.4454	32.2266	58.6253
33.6914	54.5106	33.6914	54.4332	33.6914	54.4755	33.6914	54.2498	33.6914	54.3293	33.6914	53.978	33.6914	54.0824	33.6914	53.6531	33.6914	53.7582	33.6914	53.3384	33.6914	53.4022	33.6914	53.1307	33.6914	53.0914	33.6914	53.1464	33.6914	52.9355	33.6914	53.4736	33.6914	53.0504	33.6914	54.1149	33.6914	53.498	33.6914	54.9826	33.6914	54.2425	33.6914	55.9517	33.6914	55.1726	33.6914	56.9119	33.6914	56.1628	33.6914	57.7864	33.6914	57.1148	33.6914	58.5275	33.6914	57.9636	33.6914	59.1067	33.6914	58.6698	33.6914	59.5074	33.6914	59.21	33.6914	59.7204	33.6914	59.5698	33.6914	59.7412
35.1563	56.0385	35.1563	55.9677	35.1563	56.0119	35.1563	55.8059	35.1563	55.8898	35.1563	55.5702	35.1563	55.6832	35.1563	55.294	35.1563	55.4155	35.1563	55.0336	35.1563	55.1291	35.1563	54.8713	35.1563	54.891	35.1563	54.9027	35.1563	54.7912	35.1563	55.1999	35.1563	54.9203	35.1563	55.77	35.1563	55.3272	35.1563	56.5469	35.1563	55.9877	35.1563	57.4279	35.1563	56.8168	35.1563	58.315	35.1563	57.711	35.1563	59.1344	35.1563	58.5819	35.1563	59.8371	35.1563	59.3667	35.1563	60.3921	35.1563	60.0242	35.1563	60.7803	35.1563	60.5283	35.1563	60.9909	35.1563	60.8629	35.1563	61.0185
36.6211	57.71	36.6211	57.64	36.6211	57.6935	36.6211	57.4892	36.6211	57.5922	36.6211	57.2728	36.6211	57.4162	36.6211	57.0199	36.6211	57.1859	36.6211	56.7784	36.6211	56.9371	36.6211	56.6173	36.6211	56.7245	36.6211	56.6176	36.6211	56.621	36.6211	56.8452	36.6211	56.702	36.6211	57.3169	36.6211	57.0162	36.6211	57.9878	36.6211	57.5576	36.6211	58.7735	36.6211	58.2665	36.6211	59.5842	36.6211	59.0574	36.6211	60.3468	36.6211	59.8481	36.6211	61.0091	36.6211	60.5744	36.6211	61.5367	36.6211	61.1913	36.6211	61.9079	36.6211	61.6688	36.6211	62.1098	36.6211	61.9877	36.6211	62.1365
38.0859	59.061	38.0859	58.9947	38.0859	59.0508	38.0859	58.8577	38.0859	58.9658	38.0859	58.6653	38.0859	58.8155	38.0859	58.4452	38.0859	58.6194	38.0859	58.2416	38.0859	58.4098	38.0859	58.1159	38.0859	58.2351	38.0859	58.1372	38.0859	58.1572	38.0859	58.3609	38.0859	58.2398	38.0859	58.801	38.0859	58.5251	38.0859	59.4203	38.0859	59.0117	38.0859	60.1467	38.0859	59.6536	38.0859	60.9009	38.0859	60.3788	38.0859	61.6148	38.0859	61.1136	38.0859	62.2381	38.0859	61.7968	38.0859	62.7362	38.0859	62.3831	38.0859	63.0865	38.0859	62.841	38.0859	63.2754	38.0859	63.1497	38.0859	63.2965
39.5508	60.6402	39.5508	60.5908	39.5508	60.627	39.5508	60.4848	39.5508	60.5527	39.5508	60.3363	39.5508	60.4259	39.5508	60.17	39.5508	60.264	39.5508	60.0233	39.5508	60.095	39.5508	59.9454	39.5508	59.9593	39.5508	59.9899	39.5508	59.9071	39.5508	60.1989	39.5508	59.9894	39.5508	60.585	39.5508	60.2412	39.5508	61.1225	39.5508	60.6653	39.5508	61.7571	39.5508	61.2286	39.5508	62.4238	39.5508	61.8743	39.5508	63.0628	39.5508	62.5391	39.5508	63.6264	39.5508	63.1664	39.5508	64.0796	39.5508	63.7118	39.5508	64.3984	39.5508	64.1428	39.5508	64.5679	39.5508	64.4371	39.5508	64.581
41.0156	62.5727	41.0156	62.5278	41.0156	62.5574	41.0156	62.4281	41.0156	62.4824	41.0156	62.285	41.0156	62.3538	41.0156	62.1186	41.0156	62.1844	41.0156	61.9583	41.0156	61.9959	41.0156	61.8439	41.0156	61.8205	41.0156	61.8206	41.0156	61.7009	41.0156	61.9289	41.0156	61.6847	41.0156	62.1897	41.0156	61.8126	41.0156	62.594	41.0156	62.1023	41.0156	63.1038	41.0156	62.5388	41.0156	63.6647	41.0156	63.078	41.0156	64.2201	41.0156	63.6614	41.0156	64.721	41.0156	64.2309	41.0156	65.129	41.0156	64.7379	41.0156	65.417	41.0156	65.1456	41.0156	65.5675	41.0156	65.4287	41.0156	65.5717
42.4805	63.6222	42.4805	63.5876	42.4805	63.6019	42.4805	63.5027	42.4805	63.5275	42.4805	63.3784	42.4805	63.4057	42.4805	63.2334	42.4805	63.2497	42.4805	63.0953	42.4805	63.0813	42.4805	63.0008	42.4805	62.9317	42.4805	62.9917	42.4805	62.8411	42.4805	63.1056	42.4805	62.8529	42.4805	63.3626	42.4805	63.0021	42.4805	63.7554	42.4805	63.3021	42.4805	64.2498	42.4805	63.7365	42.4805	64.7951	42.4805	64.2638	42.4805	65.3371	42.4805	64.83	42.4805	65.8278	42.4805	65.3809	42.4805	66.2293	42.4805	65.8709	42.4805	66.5142	42.4805	66.2645	42.4805	66.6651	42.4805	66.537	42.4805	66.6729
43.9453	64.8166	43.9453	64.7885	43.9453	64.7934	43.9453	64.7132	43.9453	64.7199	43.9453	64.601	43.9453	64.6028	43.9453	64.4689	43.9453	64.4548	43.9453	64.3424	43.9453	64.2965	43.9453	64.2551	43.9453	64.1571	43.9453	64.2454	43.9453	64.0738	43.9453	64.3481	43.9453	64.086	43.9453	64.583	43.9453	64.226	43.9453	64.9455	43.9453	64.5066	43.9453	65.4061	43.9453	64.914	43.9453	65.9185	43.9453	65.4109	43.9453	66.4317	43.9453	65.9471	43.9453	66.8993	43.9453	66.4716	43.9453	67.2837	43.9453	66.9399	43.9453	67.5574	43.9453	67.3175	43.9453	67.7027	43.9453	67.5795	43.9453	67.7103
45.4102	66.1272	45.4102	66.1039	45.4102	66.1082	45.4102	66.0423	45.4102	66.0477	45.4102	65.9517	45.4102	65.9518	45.4102	65.8476	45.4102	65.8318	45.4102	65.752	45.4102	65.7057	45.4102	65.6934	45.4102	65.5986	45.4102	65.7032	45.4102	65.5412	45.4102	65.8095	45.4102	65.5659	45.4102	66.028	45.4102	65.6991	45.4102	66.3556	45.4102	65.9519	45.4102	66.7686	45.4102	66.3147	45.4102	67.2289	45.4102	66.7581	45.4102	67.6926	45.4102	67.2402	45.4102	68.1178	45.4102	67.7161	45.4102	68.4693	45.4102	68.145	45.4102	68.7206	45.4102	68.4934	45.4102	68.8536	45.4102	68.7368	45.4102	68.8594
46.875	67.4243	46.875	67.4063	46.875	67.4041	46.875	67.3536	46.875	67.3468	46.875	67.2743	46.875	67.2578	46.875	67.1816	46.875	67.1474	46.875	67.0947	46.875	67.0317	46.875	67.038	46.875	66.9327	46.875	67.0389	46.875	66.8771	46.875	67.1225	46.875	66.8936	46.875	67.3047	46.875	67.0056	46.875	67.5857	46.875	67.2246	46.875	67.9478	46.875	67.5441	46.875	68.3587	46.875	67.9398	46.875	68.7792	46.875	68.3754	46.875	69.1699	46.875	68.8098	46.875	69.4964	46.875	69.2045	46.875	69.7319	46.875	69.5268	46.875	69.8581	46.875	69.7524	46.875	69.8653
48.3398	68.6665	48.3398	68.6479	48.3398	68.6476	48.3398	68.5948	48.3398	68.5922	48.3398	68.5145	48.3398	68.5055	48.3398	68.4189	48.3398	68.397	48.3398	68.3255	48.3398	68.2815	48.3398	68.257	48.3398	68.1793	48.3398	68.2392	48.3398	68.1152	48.3398	68.2966	48.3398	68.116	48.3398	68.4464	48.3398	68.2045	48.3398	68.6916	48.3398	68.3932	48.3398	69.0182	48.3398	68.6783	48.3398	69.3976	48.3398	69.0391	48.3398	69.7926	48.3398	69.4422	48.3398	70.1645	48.3398	69.8487	48.3398	70.4787	48.3398	70.2205	48.3398	70.7078	48.3398	70.5254	48.3398	70.8327	48.3398	70.7384	48.3398	70.8433
51.2695	70.8221	51.2695	70.8067	51.2695	70.8104	51.2695	70.7666	51.2695	70.7722	51.2695	70.708	51.2695	70.7118	51.2695	70.6407	51.2695	70.6367	51.2695	70.5786	51.2695	70.5587	51.2695	70.5392	51.2695	70.4932	51.2695	70.5419	51.2695	70.4587	51.2695	70.605	51.2695	70.4746	51.2695	70.7411	51.2695	70.558	51.2695	70.9527	51.2695	70.7185	51.2695	71.2298	51.2695	70.9545	51.2695	71.5506	51.2695	71.2522	51.2695	71.8857	51.2695	71.587	51.2695	72.2029	51.2695	71.9283	51.2695	72.4725	51.2695	72.2444	51.2695	72.6695	51.2695	72.5066	51.2695	72.7765	51.2695	72.6917	51.2695	72.7842
52.7344	71.9391	52.7344	71.9259	52.7344	71.9274	52.7344	71.8903	52.7344	71.8917	52.7344	71.8374	52.7344	71.8356	52.7344	71.7761	52.7344	71.766	52.7344	71.7185	52.7344	71.693	52.7344	71.68	52.7344	71.6304	52.7344	71.6777	52.7344	71.5946	52.7344	71.7281	52.7344	71.6031	52.7344	71.8432	52.7344	71.6714	52.7344	72.0265	52.7344	71.8091	52.7344	72.2706	52.7344	72.0161	52.7344	72.5572	52.7344	72.2813	52.7344	72.8602	52.7344	72.5834	52.7344	73.15	52.7344	72.8947	52.7344	73.3981	52.7344	73.1855	52.7344	73.5805	52.7344	73.4282	52.7344	73.6799	52.7344	73.6005	52.7344	73.6869
54.1992	72.9352	54.1992	72.9224	54.1992	72.9257	54.1992	72.8894	54.1992	72.8945	54.1992	72.8407	54.1992	72.845	54.1992	72.7842	54.1992	72.7834	54.1992	72.7307	54.1992	72.7186	54.1992	72.6938	54.1992	72.6627	54.1992	72.6888	54.1992	72.6302	54.1992	72.7306	54.1992	72.6364	54.1992	72.8304	54.1992	72.6951	54.1992	72.9921	54.1992	72.8154	54.1992	73.2101	54.1992	72.9981	54.1992	73.4688	54.1992	73.2342	54.1992	73.7448	54.1992	73.5055	54.1992	74.0111	54.1992	73.7873	54.1992	74.2407	54.1992	74.0524	54.1992	74.4106	54.1992	74.2747	54.1992	74.504	54.1992	74.4329	54.1992	74.5117
55.6641	73.8854	55.6641	73.8741	55.6641	73.8768	55.6641	73.8445	55.6641	73.8486	55.6641	73.801	55.6641	73.8039	55.6641	73.7505	55.6641	73.7481	55.6641	73.7029	55.6641	73.6894	55.6641	73.6702	55.6641	73.6385	55.6641	73.6662	55.6641	73.6084	55.6641	73.7042	55.6641	73.6128	55.6641	73.7943	55.6641	73.6644	55.6641	73.9406	55.6641	73.7716	55.6641	74.1385	55.6641	73.9359	55.6641	74.3744	55.6641	74.15	55.6641	74.6274	55.6641	74.3981	55.6641	74.8726	55.6641	74.6576	55.6641	75.0848	55.6641	74.9035	55.6641	75.2421	55.6641	75.111	55.6641	75.3282	55.6641	75.2595	55.6641	75.3343
58.5938	75.6864	58.5938	75.6794	58.5938	75.6776	58.5938	75.6579	58.5938	75.6535	58.5938	75.6256	58.5938	75.6163	58.5938	75.5877	58.5938	75.5704	58.5938	75.5517	58.5938	75.522	58.5938	75.5273	58.5938	75.4797	58.5938	75.5249	58.5938	75.4536	58.5938	75.5552	58.5938	75.4548	58.5938	75.6267	58.5938	75.4938	58.5938	75.7435	58.5938	75.578	58.5938	75.9029	58.5938	75.7098	58.5938	76.0953	58.5938	75.8846	58.5938	76.3042	58.5938	76.0904	58.5938	76.5089	58.5938	76.309	58.5938	76.6876	58.5938	76.519	58.5938	76.8205	58.5938	76.6986	58.5938	76.8926	58.5938	76.8287	58.5938	76.8956
60.0586	76.6277	60.0586	76.6224	60.0586	76.6184	60.0586	76.6037	60.0586	76.5951	60.0586	76.5746	60.0586	76.5598	60.0586	76.5397	60.0586	76.5163	60.0586	76.5056	60.0586	76.4705	60.0586	76.4807	60.0586	76.4297	60.0586	76.4744	60.0586	76.4033	60.0586	76.4966	60.0586	76.4012	60.0586	76.5552	60.0586	76.4328	60.0586	76.6547	60.0586	76.5054	60.0586	76.7937	60.0586	76.6214	60.0586	76.9643	60.0586	76.7773	60.0586	77.152	60.0586	76.9626	60.0586	77.3381	60.0586	77.161	60.0586	77.5021	60.0586	77.3525	60.0586	77.6252	60.0586	77.5169	60.0586	77.6929	60.0586	77.636	60.0586	77.6968
62.9883	78.3082	62.9883	78.303	62.9883	78.3032	62.9883	78.2884	62.9883	78.2883	62.9883	78.2667	62.9883	78.2651	62.9883	78.2417	62.9883	78.2368	62.9883	78.2185	62.9883	78.2078	62.9883	78.2036	62.9883	78.1837	62.9883	78.2046	62.9883	78.1717	62.9883	78.2291	62.9883	78.1793	62.9883	78.2835	62.9883	78.2135	62.9883	78.3713	62.9883	78.28	62.9883	78.4919	62.9883	78.3806	62.9883	78.6389	62.9883	78.5128	62.9883	78.8007	62.9883	78.6685	62.9883	78.9618	62.9883	78.8347	62.9883	79.1047	62.9883	78.9951	62.9883	79.2132	62.9883	79.1326	62.9883	79.2744	62.9883	79.2317	62.9883	79.2808
64.4531	78.9486	64.4531	78.9458	64.4531	78.9436	64.4531	78.9361	64.4531	78.931	64.4531	78.9212	64.4531	78.9124	64.4531	78.9043	64.4531	78.8903	64.4531	78.8898	64.4531	78.8683	64.4531	78.883	64.4531	78.8513	64.4531	78.8903	64.4531	78.8452	64.4531	78.918	64.4531	78.8563	64.4531	78.9716	64.4531	78.8909	64.4531	79.0543	64.4531	78.9537	64.4531	79.1653	64.4531	79.0467	64.4531	79.2993	64.4531	79.1678	64.4531	79.4463	64.4531	79.3102	64.4531	79.5923	64.4531	79.4625	64.4531	79.7217	64.4531	79.6103	64.4531	79.8195	64.4531	79.7378	64.4531	79.8737	64.4531	79.8305	64.4531	79.8777
67.3828	79.8915	67.3828	79.8909	67.3828	79.8875	67.3828	79.886	67.3828	79.879	67.3828	79.8783	67.3828	79.8671	67.3828	79.8696	67.3828	79.8532	67.3828	79.8629	67.3828	79.84	67.3828	79.862	67.3828	79.8307	67.3828	79.8714	67.3828	79.8297	67.3828	79.8957	67.3828	79.8414	67.3828	79.9394	67.3828	79.8706	67.3828	80.0051	67.3828	79.9213	67.3828	80.093	67.3828	79.9954	67.3828	80.1997	67.3828	80.092	67.3828	80.3176	67.3828	80.2061	67.3828	80.4359	67.3828	80.3293	67.3828	80.5417	67.3828	80.4499	67.3828	80.6223	67.3828	80.5547	67.3828	80.6673	67.3828	80.6314	67.3828	80.6705
68.8477	80.2561	68.8477	80.2558	68.8477	80.2527	68.8477	80.2522	68.8477	80.2457	68.8477	80.2462	68.8477	80.236	68.8477	80.2396	68.8477	80.2249	68.8477	80.2346	68.8477	80.2144	68.8477	80.2344	68.8477	80.2073	68.8477	80.2429	68.8477	80.2072	68.8477	80.2641	68.8477	80.218	68.8477	80.3019	68.8477	80.2439	68.8477	80.3591	68.8477	80.2884	68.8477	80.436	68.8477	80.3535	68.8477	80.5298	68.8477	80.4385	68.8477	80.6344	68.8477	80.5394	68.8477	80.74	68.8477	80.6487	68.8477	80.8351	68.8477	80.756	68.8477	80.9079	68.8477	80.8495	68.8477	80.949	68.8477	80.918	68.8477	80.9526
71.7773	81.1576	71.7773	81.1582	71.7773	81.157	71.7773	81.159	71.7773	81.1567	71.7773	81.1602	71.7773	81.1569	71.7773	81.1629	71.7773	81.1585	71.7773	81.1681	71.7773	81.1625	71.7773	81.1777	71.7773	81.1703	71.7773	81.1939	71.7773	81.1841	71.7773	81.2194	71.7773	81.206	71.7773	81.2569	71.7773	81.2384	71.7773	81.3082	71.7773	81.2835	71.7773	81.3739	71.7773	81.3422	71.7773	81.4522	71.7773	81.4141	71.7773	81.5387	71.7773	81.4961	71.7773	81.6262	71.7773	81.5829	71.7773	81.7059	71.7773	81.6667	71.7773	81.7683	71.7773	81.7385	71.7773	81.8057	71.7773	81.7895	71.7773	81.813
74.707	81.5134	74.707	81.5133	74.707	81.5167	74.707	81.5165	74.707	81.5233	74.707	81.5228	74.707	81.533	74.707	81.5321	74.707	81.5457	74.707	81.5446	74.707	81.5611	74.707	81.5607	74.707	81.5793	74.707	81.5813	74.707	81.6006	74.707	81.6076	74.707	81.6259	74.707	81.6412	74.707	81.6561	74.707	81.6833	74.707	81.6926	74.707	81.7345	74.707	81.7362	74.707	81.794	74.707	81.7872	74.707	81.8591	74.707	81.8445	74.707	81.9248	74.707	81.905	74.707	81.9848	74.707	81.9637	74.707	82.0321	74.707	82.0145	74.707	82.0607	74.707	82.0507	74.707	82.0671
77.6367	81.4935	77.6367	81.4968	77.6367	81.4946	77.6367	81.5044	77.6367	81.5001	77.6367	81.5158	77.6367	81.5094	77.6367	81.5305	77.6367	81.522	77.6367	81.5478	77.6367	81.537	77.6367	81.5672	77.6367	81.5538	77.6367	81.5886	77.6367	81.572	77.6367	81.6121	77.6367	81.5915	77.6367	81.6385	77.6367	81.6129	77.6367	81.6685	77.6367	81.6371	77.6367	81.7027	77.6367	81.6652	77.6367	81.7409	77.6367	81.698	77.6367	81.7817	77.6367	81.7356	77.6367	81.8224	77.6367	81.7766	77.6367	81.859	77.6367	81.818	77.6367	81.8866	77.6367	81.8557	77.6367	81.9013	77.6367	81.8846	77.6367	81.9006
79.1016	81.6529	79.1016	81.6609	79.1016	81.651	79.1016	81.6746	79.1016	81.6549	79.1016	81.6933	79.1016	81.6643	79.1016	81.7158	79.1016	81.6782	79.1016	81.7409	79.1016	81.6955	79.1016	81.7676	79.1016	81.7152	79.1016	81.7948	79.1016	81.7364	79.1016	81.8223	79.1016	81.7586	79.1016	81.8499	79.1016	81.7818	79.1016	81.8781	79.1016	81.8066	79.1016	81.9075	79.1016	81.8338	79.1016	81.9382	79.1016	81.8642	79.1016	81.9697	79.1016	81.898	79.1016	82	79.1016	81.9345	79.1016	82.0264	79.1016	81.9715	79.1016	82.0454	79.1016	82.0055	79.1016	82.0537	79.1016	82.0326	79.1016	82.0494
82.0313	82.0052	82.0313	82.0178	82.0313	81.9998	82.0313	82.0368	82.0313	82.0014	82.0313	82.0608	82.0313	82.0097	82.0313	82.088	82.0313	82.0232	82.0313	82.1163	82.0313	82.0406	82.0313	82.1437	82.0313	82.06	82.0313	82.1683	82.0313	82.0797	82.0313	82.189	82.0313	82.0984	82.0313	82.2054	82.0313	82.1153	82.0313	82.2175	82.0313	82.1303	82.0313	82.2265	82.0313	82.1439	82.0313	82.2335	82.0313	82.1571	82.0313	82.2396	82.0313	82.1709	82.0313	82.2451	82.0313	82.1859	82.0313	82.2495	82.0313	82.2021	82.0313	82.2517	82.0313	82.2183	82.0313	82.25	82.0313	82.2328	82.0313	82.2437
84.9609	81.8976	84.9609	81.907	84.9609	81.894	84.9609	81.9215	84.9609	81.8964	84.9609	81.9395	84.9609	81.904	84.9609	81.959	84.9609	81.9153	84.9609	81.9775	84.9609	81.9285	84.9609	81.9928	84.9609	81.9412	84.9609	82.0026	84.9609	81.9515	84.9609	82.0057	84.9609	81.9574	84.9609	82.0013	84.9609	81.9578	84.9609	81.9902	84.9609	81.9526	84.9609	81.9737	84.9609	81.9422	84.9609	81.9543	84.9609	81.9285	84.9609	81.9344	84.9609	81.9135	84.9609	81.9162	84.9609	81.8994	84.9609	81.9012	84.9609	81.8883	84.9609	81.89	84.9609	81.8809	84.9609	81.8824	84.9609	81.8777	84.9609	81.8783
87.8906	81.9274	87.8906	81.9362	87.8906	81.9259	87.8906	81.9514	87.8906	81.9314	87.8906	81.9716	87.8906	81.9428	87.8906	81.9945	87.8906	81.9582	87.8906	82.0174	87.8906	81.9754	87.8906	82.0375	87.8906	81.9917	87.8906	82.0522	87.8906	82.0046	87.8906	82.0594	87.8906	82.0119	87.8906	82.0582	87.8906	82.0123	87.8906	82.0487	87.8906	82.0054	87.8906	82.0321	87.8906	81.9922	87.8906	82.0106	87.8906	81.9743	87.8906	81.987	87.8906	81.9547	87.8906	81.964	87.8906	81.936	87.8906	81.9436	87.8906	81.9208	87.8906	81.9271	87.8906	81.9108	87.8906	81.9152	87.8906	81.9067	87.8906	81.9082
90.8203	81.679	90.8203	81.6773	90.8203	81.6987	90.8203	81.6931	90.8203	81.7356	90.8203	81.7249	90.8203	81.788	90.8203	81.7701	90.8203	81.853	90.8203	81.8255	90.8203	81.927	90.8203	81.8876	90.8203	82.0063	90.8203	81.9529	90.8203	82.0866	90.8203	82.0183	90.8203	82.1644	90.8203	82.0814	90.8203	82.2364	90.8203	82.1408	90.8203	82.3003	90.8203	82.1957	90.8203	82.3545	90.8203	82.2463	90.8203	82.3986	90.8203	82.293	90.8203	82.4325	90.8203	82.3361	90.8203	82.4566	90.8203	82.3754	90.8203	82.4712	90.8203	82.4099	90.8203	82.4765	90.8203	82.4385	90.8203	82.4726	90.8203	82.4598
95.2148	81.92	95.2148	81.9381	95.2148	81.9113	95.2148	81.9644	95.2148	81.9118	95.2148	81.9962	95.2148	81.9205	95.2148	82.0304	95.2148	81.9349	95.2148	82.0626	95.2148	81.9517	95.2148	82.0884	95.2148	81.967	95.2148	82.1033	95.2148	81.9767	95.2148	82.1036	95.2148	81.977	95.2148	82.0865	95.2148	81.9646	95.2148	82.0508	95.2148	81.9378	95.2148	81.9975	95.2148	81.8964	95.2148	81.9294	95.2148	81.8424	95.2148	81.8518	95.2148	81.7798	95.2148	81.7715	95.2148	81.7147	95.2148	81.6962	95.2148	81.6543	95.2148	81.6338	95.2148	81.6063	95.2148	81.5908	95.2148	81.5771	95.2148	81.5714
98.1445	81.7258	98.1445	81.744	98.1445	81.7219	98.1445	81.7753	98.1445	81.7325	98.1445	81.8168	98.1445	81.756	98.1445	81.8646	98.1445	81.7895	98.1445	81.9139	98.1445	81.829	98.1445	81.9595	98.1445	81.87	98.1445	81.9964	98.1445	81.9073	98.1445	82.0201	98.1445	81.9363	98.1445	82.0274	98.1445	81.953	98.1445	82.0166	98.1445	81.9546	98.1445	81.9881	98.1445	81.94	98.1445	81.9444	98.1445	81.9105	98.1445	81.8904	98.1445	81.8692	98.1445	81.8323	98.1445	81.8212	98.1445	81.7773	98.1445	81.7732	98.1445	81.7325	98.1445	81.732	98.1445	81.7035	98.1445	81.704	98.1445	81.6938
101.074	81.908	101.074	81.9248	101.074	81.9059	101.074	81.9547	101.074	81.9182	101.074	81.9951	101.074	81.9435	101.074	82.0419	101.074	81.9787	101.074	82.0904	101.074	82.02	101.074	82.1352	101.074	82.0626	101.074	82.1711	101.074	82.1012	101.074	82.1932	101.074	82.131	101.074	82.1981	101.074	82.1476	101.074	82.1839	101.074	82.1479	101.074	82.1509	101.074	82.1307	101.074	82.102	101.074	82.0969	101.074	82.0422	101.074	82.0496	101.074	81.9786	101.074	81.9942	101.074	81.9193	101.074	81.9379	101.074	81.8721	101.074	81.8883	101.074	81.8434	101.074	81.8527	101.074	81.8368
105.469	81.7259	105.469	81.7396	105.469	81.7288	105.469	81.7685	105.469	81.7479	105.469	81.8098	105.469	81.7817	105.469	81.8594	105.469	81.8269	105.469	81.9121	105.469	81.8794	105.469	81.9625	105.469	81.9339	105.469	82.0046	105.469	81.9851	105.469	82.0335	105.469	82.0273	105.469	82.0451	105.469	82.0557	105.469	82.0374	105.469	82.0666	105.469	82.0104	105.469	82.058	105.469	81.9671	105.469	82.0302	105.469	81.9129	105.469	81.9859	105.469	81.8551	105.469	81.9302	105.469	81.8022	105.469	81.8702	105.469	81.7625	105.469	81.8142	105.469	81.7423	105.469	81.7702	105.469	81.745
108.398	81.7817	108.398	81.8027	108.398	81.7765	108.398	81.8379	108.398	81.7872	108.398	81.8843	108.398	81.8122	108.398	81.9374	108.398	81.8484	108.398	81.9919	108.398	81.8914	108.398	82.0419	108.398	81.9362	108.398	82.0815	108.398	81.9769	108.398	82.1053	108.398	82.0081	108.398	82.1093	108.398	82.0249	108.398	82.0912	108.398	82.0239	108.398	82.0512	108.398	82.0034	108.398	81.9922	108.398	81.9641	108.398	81.92	108.398	81.9095	108.398	81.8428	108.398	81.8455	108.398	81.77	108.398	81.7801	108.398	81.7113	108.398	81.7226	108.398	81.6746	108.398	81.6817	108.398	81.6645
112.793	82.2414	112.793	82.2681	112.793	82.2289	112.793	82.3074	112.793	82.2306	112.793	82.3563	112.793	82.2452	112.793	82.4104	112.793	82.2697	112.793	82.4643	112.793	82.2999	112.793	82.5121	112.793	82.3307	112.793	82.5476	112.793	82.3566	112.793	82.5651	112.793	82.3719	112.793	82.5601	112.793	82.3717	112.793	82.5296	112.793	82.3525	112.793	82.4734	112.793	82.3129	112.793	82.3943	112.793	82.2544	112.793	82.2982	112.793	82.1812	112.793	82.194	112.793	82.1011	112.793	82.0927	112.793	82.024	112.793	82.0063	112.793	81.9611	112.793	81.9451	112.793	81.9228	112.793	81.9165
117.188	82.0817	117.188	82.0848	117.188	82.092	117.188	82.1007	117.188	82.1149	117.188	82.1273	117.188	82.1484	117.188	82.1611	117.188	82.1893	117.188	82.1974	117.188	82.2332	117.188	82.2306	117.188	82.2751	117.188	82.2548	117.188	82.3095	117.188	82.2642	117.188	82.3309	117.188	82.2542	117.188	82.3343	117.188	82.2222	117.188	82.316	117.188	82.1678	117.188	82.274	117.188	82.0941	117.188	82.2093	117.188	82.0077	117.188	82.1256	117.188	81.9178	117.188	82.0301	117.188	81.8359	117.188	81.9328	117.188	81.7735	117.188	81.845	117.188	81.7402	117.188	81.7783	117.188	81.7417
120.117	82.5528	120.117	82.5271	120.117	82.5899	120.117	82.5126	120.117	82.6371	120.117	82.5081	120.117	82.692	120.117	82.5108	120.117	82.7512	120.117	82.5169	120.117	82.8102	120.117	82.5219	120.117	82.8636	120.117	82.5206	120.117	82.906	120.117	82.5084	120.117	82.9316	120.117	82.4817	120.117	82.9354	120.117	82.4385	120.117	82.9133	120.117	82.3798	120.117	82.8633	120.117	82.3093	120.117	82.7859	120.117	82.2342	120.117	82.6843	120.117	82.1642	120.117	82.5654	120.117	82.1102	120.117	82.4389	120.117	82.0825	120.117	82.3165	120.117	82.0889	120.117	82.2107	120.117	82.1324
124.512	82.4415	124.512	82.4481	124.512	82.45	124.512	82.4677	124.512	82.474	124.512	82.4968	124.512	82.5122	124.512	82.5309	124.512	82.5615	124.512	82.5643	124.512	82.6174	124.512	82.5912	124.512	82.6737	124.512	82.6054	124.512	82.7236	124.512	82.6018	124.512	82.76	124.512	82.5764	124.512	82.7762	124.512	82.5275	124.512	82.7668	124.512	82.4564	124.512	82.7288	124.512	82.3679	124.512	82.6616	124.512	82.2702	124.512	82.5686	124.512	82.1749	124.512	82.4566	124.512	82.0951	124.512	82.3361	124.512	82.0432	124.512	82.2201	124.512	82.0289	124.512	82.1227	124.512	82.0562
128.906	82.417	128.906	82.4534	128.906	82.3942	128.906	82.5012	128.906	82.3859	128.906	82.5568	128.906	82.3912	128.906	82.6152	128.906	82.4078	128.906	82.6704	128.906	82.4316	128.906	82.7154	128.906	82.4571	128.906	82.7432	128.906	82.4779	128.906	82.7469	128.906	82.4869	128.906	82.7208	128.906	82.4776	128.906	82.6615	128.906	82.4446	128.906	82.5687	128.906	82.3852	128.906	82.4461	128.906	82.3	128.906	82.302	128.906	82.1936	128.906	82.1493	128.906	82.0754	128.906	82.0039	128.906	81.9586	128.906	81.8834	128.906	81.8591	128.906	81.8028	128.906	81.7927	128.906	81.7719
133.301	82.5443	133.301	82.5791	133.301	82.5208	133.301	82.6237	133.301	82.5087	133.301	82.6755	133.301	82.5069	133.301	82.7302	133.301	82.5131	133.301	82.7825	133.301	82.5237	133.301	82.8257	133.301	82.5341	133.301	82.8529	133.301	82.5388	133.301	82.8572	133.301	82.5319	133.301	82.8326	133.301	82.5081	133.301	82.7754	133.301	82.4629	133.301	82.6845	133.301	82.3945	133.301	82.563	133.301	82.304	133.301	82.4183	133.301	82.1968	133.301	82.2622	133.301	82.0825	133.301	82.1099	133.301	81.9745	133.301	81.9784	133.301	81.8881	133.301	81.8832	133.301	81.8381	133.301	81.8351
139.16	82.5453	139.16	82.5556	139.16	82.5488	139.16	82.5791	139.16	82.5654	139.16	82.614	139.16	82.5934	139.16	82.6568	139.16	82.6297	139.16	82.7027	139.16	82.6701	139.16	82.7455	139.16	82.7093	139.16	82.778	139.16	82.7414	139.16	82.7932	139.16	82.7597	139.16	82.7847	139.16	82.7584	139.16	82.7481	139.16	82.7325	139.16	82.6821	139.16	82.6797	139.16	82.5894	139.16	82.6007	139.16	82.4771	139.16	82.5001	139.16	82.3563	139.16	82.3868	139.16	82.2415	139.16	82.2733	139.16	82.148	139.16	82.1742	139.16	82.0892	139.16	82.104	139.16	82.0739
143.555	82.655	143.555	82.6562	143.555	82.6654	143.555	82.6684	143.555	82.6865	143.555	82.6905	143.555	82.7168	143.555	82.72	143.555	82.7539	143.555	82.753	143.555	82.7941	143.555	82.7845	143.555	82.8325	143.555	82.8085	143.555	82.8634	143.555	82.8183	143.555	82.8807	143.555	82.8082	143.555	82.8783	143.555	82.7737	143.555	82.8515	143.555	82.7132	143.555	82.7976	143.555	82.6287	143.555	82.7173	143.555	82.5265	143.555	82.6152	143.555	82.4168	143.555	82.5	143.555	82.3131	143.555	82.3841	143.555	82.2299	143.555	82.2819	143.555	82.1801	143.555	82.2076	143.555	82.172
147.949	82.5685	147.949	82.5662	147.949	82.583	147.949	82.5755	147.949	82.6094	147.949	82.5949	147.949	82.6466	147.949	82.6219	147.949	82.6923	147.949	82.6529	147.949	82.7429	147.949	82.6831	147.949	82.7934	147.949	82.7067	147.949	82.8379	147.949	82.7178	147.949	82.8695	147.949	82.7109	147.949	82.8819	147.949	82.6822	147.949	82.8698	147.949	82.6307	147.949	82.83	147.949	82.5589	147.949	82.7627	147.949	82.4729	147.949	82.6715	147.949	82.3827	147.949	82.5644	147.949	82.3008	147.949	82.4525	147.949	82.2399	147.949	82.3493	147.949	82.2109	147.949	82.2683	147.949	82.2202
153.809	82.9391	153.809	82.9513	153.809	82.9302	153.809	82.9658	153.809	82.9251	153.809	82.9814	153.809	82.9241	153.809	82.9963	153.809	82.9272	153.809	83.0074	153.809	82.9333	153.809	83.0108	153.809	82.94	153.809	83.0016	153.809	82.9433	153.809	82.9747	153.809	82.9382	153.809	82.9254	153.809	82.9185	153.809	82.8509	153.809	82.8786	153.809	82.7513	153.809	82.8144	153.809	82.6306	153.809	82.7247	153.809	82.4972	153.809	82.6128	153.809	82.3633	153.809	82.4864	153.809	82.2439	153.809	82.3577	153.809	82.154	153.809	82.2415	153.809	82.1056	153.809	82.1532	153.809	82.1055
159.668	83.228	159.668	83.2366	159.668	83.223	159.668	83.2485	159.668	83.2213	159.668	83.2624	159.668	83.2218	159.668	83.2761	159.668	83.2228	159.668	83.2859	159.668	83.2216	159.668	83.2869	159.668	83.2145	159.668	83.2728	159.668	83.1967	159.668	83.2371	159.668	83.1628	159.668	83.1739	159.668	83.1076	159.668	83.0792	159.668	83.027	159.668	82.9526	159.668	82.9191	159.668	82.7982	159.668	82.7854	159.668	82.6252	159.668	82.6318	159.668	82.4479	159.668	82.469	159.668	82.2843	159.668	82.312	159.668	82.1531	159.668	82.1785	159.668	82.0708	159.668	82.0859	159.668	82.0477
165.527	83.2646	165.527	83.2733	165.527	83.2597	165.527	83.2852	165.527	83.2587	165.527	83.2992	165.527	83.261	165.527	83.3133	165.527	83.2654	165.527	83.3243	165.527	83.2696	165.527	83.3279	165.527	83.2698	165.527	83.3189	165.527	83.2615	165.527	83.2914	165.527	83.239	165.527	83.2401	165.527	83.197	165.527	83.1616	165.527	83.1311	165.527	83.0552	165.527	83.0394	165.527	82.9243	165.527	82.9233	165.527	82.7769	165.527	82.7887	165.527	82.6254	165.527	82.6456	165.527	82.4852	165.527	82.5081	165.527	82.3724	165.527	82.3921	165.527	82.3011	165.527	82.3124	165.527	82.2804
171.387	83.2443	171.387	83.2496	171.387	83.2416	171.387	83.2572	171.387	83.2413	171.387	83.2668	171.387	83.2432	171.387	83.2771	171.387	83.2464	171.387	83.2855	171.387	83.2493	171.387	83.288	171.387	83.2486	171.387	83.2792	171.387	83.24	171.387	83.2531	171.387	83.218	171.387	83.2039	171.387	83.1771	171.387	83.1277	171.387	83.1128	171.387	83.0239	171.387	83.0227	171.387	82.8957	171.387	82.9082	171.387	82.7515	171.387	82.7751	171.387	82.6037	171.387	82.6337	171.387	82.4675	171.387	82.4977	171.387	82.3585	171.387	82.3829	171.387	82.2903	171.387	82.3039	171.387	82.2714
177.246	83.2012	177.246	83.2024	177.246	83.1994	177.246	83.203	177.246	83.1976	177.246	83.2028	177.246	83.1963	177.246	83.2011	177.246	83.1956	177.246	83.1964	177.246	83.1951	177.246	83.1855	177.246	83.1924	177.246	83.164	177.246	83.1838	177.246	83.1265	177.246	83.164	177.246	83.0679	177.246	83.1271	177.246	82.9846	177.246	83.0676	177.246	82.8761	177.246	82.9822	177.246	82.746	177.246	82.8708	177.246	82.6029	177.246	82.7378	177.246	82.4595	177.246	82.5927	177.246	82.3313	177.246	82.4487	177.246	82.2341	177.246	82.3218	177.246	82.1806	177.246	82.2275	177.246	82.1783
183.105	83.1721	183.105	83.1798	183.105	83.1609	183.105	83.184	183.105	83.1467	183.105	83.1846	183.105	83.1306	183.105	83.1816	183.105	83.1134	183.105	83.1738	183.105	83.0951	183.105	83.1589	183.105	83.0744	183.105	83.1328	183.105	83.048	183.105	83.0905	183.105	83.0114	183.105	83.0271	183.105	82.9591	183.105	82.939	183.105	82.8865	183.105	82.8259	183.105	82.7909	183.105	82.691	183.105	82.6736	183.105	82.5424	183.105	82.5399	183.105	82.3921	183.105	82.3999	183.105	82.2547	183.105	82.2672	183.105	82.1448	183.105	82.1567	183.105	82.0751	183.105	82.0822	183.105	82.0535
188.965	83.2804	188.965	83.2852	188.965	83.2675	188.965	83.2822	188.965	83.2471	188.965	83.2719	188.965	83.2204	188.965	83.2546	188.965	83.1888	188.965	83.2297	188.965	83.1534	188.965	83.1955	188.965	83.1138	188.965	83.149	188.965	83.0683	188.965	83.0862	188.965	83.0131	188.965	83.0036	188.965	82.9438	188.965	82.8991	188.965	82.8561	188.965	82.7734	188.965	82.7481	188.965	82.631	188.965	82.6214	188.965	82.4801	188.965	82.482	188.965	82.3322	188.965	82.3403	188.965	82.2001	188.965	82.2096	188.965	82.096	188.965	82.1036	188.965	82.0301	188.965	82.0342	188.965	82.0087
196.289	83.4464	196.289	83.4377	196.289	83.4467	196.289	83.4223	196.289	83.438	196.289	83.4019	196.289	83.42	196.289	83.3778	196.289	83.3929	196.289	83.3497	196.289	83.357	196.289	83.3156	196.289	83.3112	196.289	83.2709	196.289	83.2537	196.289	83.2101	196.289	83.1812	196.289	83.1273	196.289	83.0901	196.289	83.0183	196.289	82.9775	196.289	82.8822	196.289	82.8423	196.289	82.7229	196.289	82.6873	196.289	82.5492	196.289	82.5196	196.289	82.3745	196.289	82.3513	196.289	82.2146	196.289	82.1973	196.289	82.0857	196.289	82.074	196.289	82.001	196.289	81.995	196.289	81.9697
203.613	83.3938	203.613	83.3721	203.613	83.3966	203.613	83.3327	203.613	83.3808	203.613	83.2779	203.613	83.3482	203.613	83.2108	203.613	83.3014	203.613	83.1338	203.613	83.2428	203.613	83.0483	203.613	83.174	203.613	82.9542	203.613	83.095	203.613	82.8495	203.613	83.0041	203.613	82.7321	203.613	82.8983	203.613	82.6006	203.613	82.7748	203.613	82.456	203.613	82.6325	203.613	82.3026	203.613	82.4733	203.613	82.1481	203.613	82.3037	203.613	82.0028	203.613	82.1343	203.613	81.8778	203.613	81.9786	203.613	81.7838	203.613	81.851	203.613	81.7298	203.613	81.763	203.613	81.722
210.938	83.4098	210.938	83.3944	210.938	83.4084	210.938	83.3619	210.938	83.3913	210.938	83.313	210.938	83.3607	210.938	83.2486	210.938	83.3188	210.938	83.1694	210.938	83.2673	210.938	83.075	210.938	83.2066	210.938	82.964	210.938	83.1351	210.938	82.8346	210.938	83.0492	210.938	82.6856	210.938	82.9447	210.938	82.5181	210.938	82.8175	210.938	82.3368	210.938	82.6662	210.938	82.1504	210.938	82.493	210.938	81.9712	210.938	82.3049	210.938	81.8128	210.938	82.1135	210.938	81.688	210.938	81.9333	210.938	81.6063	210.938	81.7789	210.938	81.5738	210.938	81.6626	210.938	81.5929
218.262	83.3746	218.262	83.3737	218.262	83.3574	218.262	83.3549	218.262	83.323	218.262	83.3196	218.262	83.2741	218.262	83.2692	218.262	83.2137	218.262	83.2044	218.262	83.1452	218.262	83.1243	218.262	83.0704	218.262	83.0268	218.262	82.9893	218.262	82.9085	218.262	82.8993	218.262	82.767	218.262	82.7963	218.262	82.6024	218.262	82.6762	218.262	82.4191	218.262	82.5365	218.262	82.2265	218.262	82.3785	218.262	82.0379	218.262	82.2079	218.262	81.8681	218.262	82.0354	218.262	81.7306	218.262	81.8744	218.262	81.635	218.262	81.7392	218.262	81.5873	218.262	81.6416	218.262	81.5897
225.586	83.3702	225.586	83.3755	225.586	83.3416	225.586	83.358	225.586	83.2907	225.586	83.3197	225.586	83.2209	225.586	83.2625	225.586	83.1364	225.586	83.1881	225.586	83.0426	225.586	83.0966	225.586	82.9439	225.586	82.9865	225.586	82.843	225.586	82.8555	225.586	82.7402	225.586	82.7021	225.586	82.6336	225.586	82.5275	225.586	82.5198	225.586	82.3381	225.586	82.3962	225.586	82.1454	225.586	82.2629	225.586	81.9652	225.586	82.1236	225.586	81.8131	225.586	81.9857	225.586	81.7005	225.586	81.8584	225.586	81.6322	225.586	81.7509	225.586	81.607	225.586	81.6702	225.586	81.621
232.91	83.4244	232.91	83.4332	232.91	83.3851	232.91	83.4137	232.91	83.3151	232.91	83.3699	232.91	83.217	232.91	83.3057	232.91	83.0949	232.91	83.2242	232.91	82.9539	232.91	83.1261	232.91	82.7983	232.91	83.0094	232.91	82.6313	232.91	82.8703	232.91	82.4546	232.91	82.7049	232.91	82.2693	232.91	82.5114	232.91	82.0779	232.91	82.2929	232.91	81.8849	232.91	82.059	232.91	81.698	232.91	81.8255	232.91	81.527	232.91	81.6113	232.91	81.3823	232.91	81.4329	232.91	81.2717	232.91	81.2999	232.91	81.1994	232.91	81.2136	232.91	81.1658	232.91	81.1701
241.699	83.3968	241.699	83.3664	241.699	83.3907	241.699	83.3044	241.699	83.3461	241.699	83.2177	241.699	83.2648	241.699	83.1139	241.699	83.1512	241.699	82.9991	241.699	83.0117	241.699	82.8764	241.699	82.8528	241.699	82.7454	241.699	82.6791	241.699	82.6022	241.699	82.4928	241.699	82.4417	241.699	82.2941	241.699	82.2602	241.699	82.0836	241.699	82.0584	241.699	81.8646	241.699	81.843	241.699	81.6456	241.699	81.6269	241.699	81.4396	241.699	81.426	241.699	81.2614	241.699	81.255	241.699	81.1235	241.699	81.1236	241.699	81.0325	241.699	81.0356	241.699	80.9891	241.699	80.9907
250.488	83.3635	250.488	83.3254	250.488	83.3619	250.488	83.2514	250.488	83.3188	250.488	83.1462	250.488	83.2344	250.488	83.0149	250.488	83.1119	250.488	82.8622	250.488	82.9568	250.488	82.6922	250.488	82.7759	250.488	82.5079	250.488	82.5759	250.488	82.3115	250.488	82.3623	250.488	82.105	250.488	82.1388	250.488	81.8905	250.488	81.9079	250.488	81.6725	250.488	81.6736	250.488	81.458	250.488	81.4433	250.488	81.2571	250.488	81.229	250.488	81.0811	250.488	81.0444	250.488	80.9393	250.488	80.9011	250.488	80.8361	250.488	80.8047	250.488	80.7716	250.488	80.754	250.488	80.7441
259.277	83.543	259.277	83.502	259.277	83.5509	259.277	83.4309	259.277	83.5238	259.277	83.3341	259.277	83.4613	259.277	83.2159	259.277	83.365	259.277	83.0796	259.277	83.2373	259.277	82.9268	259.277	83.0814	259.277	82.7566	259.277	82.9003	259.277	82.5668	259.277	82.6957	259.277	82.3552	259.277	82.4685	259.277	82.1224	259.277	82.2196	259.277	81.8736	259.277	81.9529	259.277	81.6192	259.277	81.6776	259.277	81.3744	259.277	81.41	259.277	81.1561	259.277	81.1706	259.277	80.9787	259.277	80.9787	259.277	80.8509	259.277	80.845	259.277	80.7745	259.277	80.7697	259.277	80.7476
268.066	83.0125	268.066	82.9487	268.066	83.0355	268.066	82.8502	268.066	83.014	268.066	82.7253	268.066	82.9467	268.066	82.5832	268.066	82.8356	268.066	82.4329	268.066	82.685	268.066	82.2811	268.066	82.5012	268.066	82.1308	268.066	82.292	268.066	81.98	268.066	82.0647	268.066	81.8233	268.066	81.8253	268.066	81.6543	268.066	81.5785	268.066	81.4697	268.066	81.3276	268.066	81.2723	268.066	81.0781	268.066	81.0706	268.066	80.8398	268.066	80.8763	268.066	80.629	268.066	80.7002	268.066	80.465	268.066	80.5503	268.066	80.3631	268.066	80.433	268.066	80.3285	268.066	80.3555
276.855	83.0801	276.855	83.0574	276.855	83.0614	276.855	82.9822	276.855	83.013	276.855	82.8474	276.855	82.9439	276.855	82.6509	276.855	82.8579	276.855	82.3964	276.855	82.7537	276.855	82.0931	276.855	82.6264	276.855	81.7555	276.855	82.4716	276.855	81.4035	276.855	82.2883	276.855	81.0604	276.855	82.0808	276.855	80.7496	276.855	81.8587	276.855	80.4895	276.855	81.6329	276.855	80.29	276.855	81.4112	276.855	80.1524	276.855	81.1954	276.855	80.0729	276.855	80.9838	276.855	80.0464	276.855	80.7759	276.855	80.0689	276.855	80.5771	276.855	80.1371	276.855	80.3976	276.855	80.2483
287.109	83.3947	287.109	83.4556	287.109	83.2854	287.109	83.4663	287.109	83.1326	287.109	83.4266	287.109	82.9453	287.109	83.3352	287.109	82.7358	287.109	83.1895	287.109	82.5155	287.109	82.986	287.109	82.2907	287.109	82.7223	287.109	82.0598	287.109	82.4	287.109	81.8138	287.109	82.0284	287.109	81.5424	287.109	81.6262	287.109	81.2424	287.109	81.2216	287.109	80.9248	287.109	80.8475	287.109	80.6158	287.109	80.5336	287.109	80.3488	287.109	80.2971	287.109	80.1497	287.109	80.1377	287.109	80.0255	287.109	80.0408	287.109	79.9648	287.109	79.986	287.109	79.9476	287.109	79.9569
297.363	83.3951	297.363	83.3857	297.363	83.3492	297.363	83.3429	297.363	83.2303	297.363	83.2863	297.363	83.0304	297.363	83.226	297.363	82.7538	297.363	83.1575	297.363	82.4162	297.363	83.0626	297.363	82.04	297.363	82.9149	297.363	81.6468	297.363	82.689	297.363	81.249	297.363	82.3713	297.363	80.8475	297.363	81.9678	297.363	80.4389	297.363	81.5089	297.363	80.0297	297.363	81.0444	297.363	79.6488	297.363	80.6286	297.363	79.3458	297.363	80.2976	297.363	79.1692	297.363	80.0535	297.363	79.1361	297.363	79.869	297.363	79.2207	297.363	79.7073	297.363	79.3721	297.363	79.5426
307.617	83.0186	307.617	82.9019	307.617	83.1099	307.617	82.7723	307.617	83.1635	307.617	82.6441	307.617	83.1679	307.617	82.5324	307.617	83.113	307.617	82.4494	307.617	82.9927	307.617	82.3979	307.617	82.8064	307.617	82.3654	307.617	82.5579	307.617	82.3244	307.617	82.2541	307.617	82.2401	307.617	81.9016	307.617	82.0819	307.617	81.5055	307.617	81.8344	307.617	81.0724	307.617	81.5045	307.617	80.6186	307.617	81.1218	307.617	80.1799	307.617	80.7306	307.617	79.8115	307.617	80.3731	307.617	79.5686	307.617	80.0729	307.617	79.4757	307.617	79.8316	307.617	79.5141	307.617	79.643
319.336	82.5255	319.336	82.3889	319.336	82.6211	319.336	82.2156	319.336	82.6767	319.336	82.0154	319.336	82.6962	319.336	81.8024	319.336	82.6842	319.336	81.5921	319.336	82.643	319.336	81.3975	319.336	82.5718	319.336	81.2246	319.336	82.4664	319.336	81.0705	319.336	82.3199	319.336	80.9245	319.336	82.1239	319.336	80.774	319.336	81.8701	319.336	80.6098	319.336	81.5531	319.336	80.4316	319.336	81.1766	319.336	80.2475	319.336	80.7616	319.336	80.0707	319.336	80.3504	319.336	79.9132	319.336	79.9998	319.336	79.7821	319.336	79.758	319.336	79.6826	319.336	79.6403	319.336	79.6266
329.59	82.5194	329.59	82.4158	329.59	82.5594	329.59	82.2504	329.59	82.5423	329.59	82.0336	329.59	82.4809	329.59	81.7831	329.59	82.3913	329.59	81.5195	329.59	82.2874	329.59	81.2613	329.59	82.1766	329.59	81.0188	329.59	82.0569	329.59	80.7914	329.59	81.9192	329.59	80.5703	329.59	81.7518	329.59	80.3452	329.59	81.5449	329.59	80.1116	329.59	81.2924	329.59	79.876	329.59	80.9931	329.59	79.6543	329.59	80.6522	329.59	79.4658	329.59	80.2871	329.59	79.3255	329.59	79.9299	329.59	79.241	329.59	79.6215	329.59	79.2171	329.59	79.3955	329.59	79.2637
341.309	82.1107	341.309	82.0591	341.309	82.0737	341.309	81.9228	341.309	81.9547	341.309	81.7151	341.309	81.7715	341.309	81.4578	341.309	81.5525	341.309	81.1786	341.309	81.3328	341.309	80.907	341.309	81.145	341.309	80.6663	341.309	81.0084	341.309	80.4668	341.309	80.9216	341.309	80.3027	341.309	80.8646	341.309	80.1575	341.309	80.8103	341.309	80.0148	341.309	80.7357	341.309	79.8687	341.309	80.6291	341.309	79.7281	341.309	80.4893	341.309	79.6126	341.309	80.3234	341.309	79.5423	341.309	80.1431	341.309	79.5284	341.309	79.963	341.309	79.5713	341.309	79.7987	341.309	79.6644
353.027	82.3936	353.027	82.2685	353.027	82.4107	353.027	82.0488	353.027	82.3138	353.027	81.7536	353.027	82.1043	353.027	81.4073	353.027	81.7935	353.027	81.0375	353.027	81.403	353.027	80.6717	353.027	80.9641	353.027	80.3329	353.027	80.5139	353.027	80.0346	353.027	80.0872	353.027	79.7787	353.027	79.7092	353.027	79.5575	353.027	79.3916	353.027	79.3617	353.027	79.1349	353.027	79.1864	353.027	78.9342	353.027	79.033	353.027	78.7844	353.027	78.9059	353.027	78.6815	353.027	78.8065	353.027	78.622	353.027	78.7315	353.027	78.5997	353.027	78.6753	353.027	78.6065	353.027	78.6335
366.211	82.9627	366.211	82.7865	366.211	83.0136	366.211	82.4866	366.211	82.945	366.211	82.0737	366.211	82.7683	366.211	81.5701	366.211	82.5006	366.211	81.0129	366.211	82.1638	366.211	80.4528	366.211	81.7824	366.211	79.9461	366.211	81.3787	366.211	79.5373	366.211	80.9665	366.211	79.2394	366.211	80.5463	366.211	79.0279	366.211	80.1076	366.211	78.8567	366.211	79.6408	366.211	78.685	366.211	79.1532	366.211	78.4965	366.211	78.6785	366.211	78.3013	366.211	78.2702	366.211	78.1218	366.211	77.9769	366.211	77.9744	366.211	77.815	366.211	77.8635	366.211	77.7646	366.211	77.79
379.395	83.842	379.395	83.7544	379.395	83.8147	379.395	83.5458	379.395	83.679	379.395	83.2114	379.395	83.4436	379.395	82.751	379.395	83.1213	379.395	82.1752	379.395	82.7325	379.395	81.5136	379.395	82.3066	379.395	80.8234	379.395	81.8826	379.395	80.1905	379.395	81.5031	379.395	79.7088	379.395	81.204	379.395	79.438	379.395	81	379.395	79.3682	379.395	80.8761	379.395	79.4315	379.395	80.794	379.395	79.5478	379.395	80.7103	379.395	79.661	379.395	80.5958	379.395	79.7495	379.395	80.4453	379.395	79.819	379.395	80.2757	379.395	79.8898	379.395	80.1147	379.395	79.9842
392.578	83.6025	392.578	83.5398	392.578	83.5634	392.578	83.3745	392.578	83.4237	392.578	83.1068	392.578	83.1861	392.578	82.739	392.578	82.8568	392.578	82.2781	392.578	82.4475	392.578	81.7395	392.578	81.9775	392.578	81.1498	392.578	81.4753	392.578	80.55	392.578	80.9785	392.578	79.9956	392.578	80.5309	392.578	79.5492	392.578	80.1755	392.578	79.2645	392.578	79.9443	392.578	79.1654	392.578	79.8464	392.578	79.2345	392.578	79.8636	392.578	79.4217	392.578	79.9567	392.578	79.6638	392.578	80.0778	392.578	79.9019	392.578	80.1815	392.578	80.0911	392.578	80.2314	392.578	80.204
405.762	83.211	405.762	83.0946	405.762	83.2044	405.762	82.8594	405.762	83.0742	405.762	82.512	405.762	82.8247	405.762	82.0602	405.762	82.4654	405.762	81.5127	405.762	82.0115	405.762	80.8832	405.762	81.4844	405.762	80.1976	405.762	80.9135	405.762	79.5045	405.762	80.3397	405.762	78.8799	405.762	79.8162	405.762	78.4157	405.762	79.4017	405.762	78.1837	405.762	79.1432	405.762	78.1971	405.762	79.0557	405.762	78.4049	405.762	79.1156	405.762	78.7218	405.762	79.2711	405.762	79.0634	405.762	79.459	405.762	79.3647	405.762	79.6203	405.762	79.5844	405.762	79.7101	405.762	79.7014
420.41	83.6796	420.41	83.5854	420.41	83.6751	420.41	83.396	420.41	83.5674	420.41	83.1126	420.41	83.352	420.41	82.7343	420.41	83.027	420.41	82.2587	420.41	82.5954	420.41	81.6819	420.41	82.0665	420.41	81.0017	420.41	81.4584	420.41	80.2264	420.41	80.8007	420.41	79.3946	420.41	80.1355	420.41	78.6027	420.41	79.5169	420.41	78.0092	420.41	79.0051	420.41	77.7618	420.41	78.6546	420.41	77.8749	420.41	78.4961	420.41	78.2116	420.41	78.5177	420.41	78.5967	420.41	78.6648	420.41	78.907	420.41	78.8606	420.41	79.0849	420.41	79.0316	420.41	79.1198
435.059	83.1824	435.059	83.0907	435.059	83.1862	435.059	82.9147	435.059	83.0997	435.059	82.6575	435.059	82.9225	435.059	82.3205	435.059	82.6563	435.059	81.9047	435.059	82.3021	435.059	81.4124	435.059	81.8595	435.059	80.8498	435.059	81.3293	435.059	80.2296	435.059	80.7221	435.059	79.5777	435.059	80.0719	435.059	78.947	435.059	79.4452	435.059	78.4302	435.059	78.9327	435.059	78.1403	435.059	78.6151	435.059	78.1407	435.059	78.5236	435.059	78.3824	435.059	78.6259	435.059	78.7342	435.059	78.8456	435.059	79.0636	435.059	79.0917	435.059	79.2839	435.059	79.2821	435.059	79.3567
451.172	83.4898	451.172	83.4332	451.172	83.4473	451.172	83.2713	451.172	83.3118	451.172	83.0011	451.172	83.0855	451.172	82.624	451.172	82.7664	451.172	82.1434	451.172	82.3511	451.172	81.5597	451.172	81.8382	451.172	80.8664	451.172	81.2312	451.172	80.0541	451.172	80.5409	451.172	79.1272	451.172	79.7915	451.172	78.1442	451.172	79.0335	451.172	77.2747	451.172	78.357	451.172	76.7951	451.172	77.882	451.172	76.8799	451.172	77.7005	451.172	77.3793	451.172	77.8027	451.172	77.9754	451.172	78.0789	451.172	78.4447	451.172	78.3934	451.172	78.7065	451.172	78.6429	451.172	78.7619
465.82	83.3441	465.82	83.2705	465.82	83.3102	465.82	83.0913	465.82	83.1723	465.82	82.8141	465.82	82.9386	465.82	82.4503	465.82	82.619	465.82	82.012	465.82	82.2227	465.82	81.5083	465.82	81.7546	465.82	80.9436	465.82	81.213	465.82	80.3181	465.82	80.5902	465.82	79.63	465.82	79.8807	465.82	78.8817	465.82	79.1004	465.82	78.098	465.82	78.3129	465.82	77.3658	465.82	77.6437	465.82	76.8594	465.82	77.2438	465.82	76.7516	465.82	77.1878	465.82	77.0243	465.82	77.398	465.82	77.4566	465.82	77.7008	465.82	77.8184	465.82	77.9317	465.82	77.9854
483.398	83.0345	483.398	82.9366	483.398	83.0388	483.398	82.7573	483.398	82.9357	483.398	82.5033	483.398	82.7147	483.398	82.1748	483.398	82.3716	483.398	81.7676	483.398	81.9103	483.398	81.2745	483.398	81.3449	483.398	80.6854	483.398	80.7003	483.398	79.988	483.398	80.0083	483.398	79.1815	483.398	79.2957	483.398	78.3085	483.398	78.5796	483.398	77.493	483.398	77.8857	483.398	76.9277	483.398	77.2879	483.398	76.7519	483.398	76.9171	483.398	76.9237	483.398	76.8784	483.398	77.2711	483.398	77.1322	483.398	77.6259	483.398	77.5046	483.398	77.8737	483.398	77.8122	483.398	77.9452
499.512	83.0943	499.512	82.9905	499.512	83.0974	499.512	82.7883	499.512	82.9966	499.512	82.4915	499.512	82.7879	499.512	82.1068	499.512	82.4678	499.512	81.6439	499.512	82.0352	499.512	81.1149	499.512	81.4928	499.512	80.533	499.512	80.8491	499.512	79.9096	499.512	80.1247	499.512	79.2525	499.512	79.3585	499.512	78.5759	499.512	78.6091	499.512	77.927	499.512	77.9471	499.512	77.4114	499.512	77.4439	499.512	77.161	499.512	77.1565	499.512	77.2226	499.512	77.1025	499.512	77.4867	499.512	77.2405	499.512	77.7671	499.512	77.4842	499.512	77.9228	499.512	77.7352	499.512	77.904
517.09	83.1729	517.09	83.069	517.09	83.1777	517.09	82.8581	517.09	83.0888	517.09	82.5336	517.09	82.9067	517.09	82.0928	517.09	82.6273	517.09	81.5377	517.09	82.2441	517.09	80.8758	517.09	81.7488	517.09	80.1236	517.09	81.1324	517.09	79.3163	517.09	80.39	517.09	78.5189	517.09	79.535	517.09	77.8256	517.09	78.6257	517.09	77.3364	517.09	77.7906	517.09	77.1196	517.09	77.2148	517.09	77.1803	517.09	77.0412	517.09	77.4501	517.09	77.2455	517.09	77.8112	517.09	77.6487	517.09	78.145	517.09	78.0525	517.09	78.3687	517.09	78.3316	517.09	78.4378
536.133	82.589	536.133	82.525	536.133	82.549	536.133	82.3647	536.133	82.3982	536.133	82.109	536.133	82.1348	536.133	81.7476	536.133	81.7608	536.133	81.2577	536.133	81.2795	536.133	80.6082	536.133	80.6947	536.133	79.7679	536.133	80.0142	536.133	78.7201	536.133	79.2529	536.133	77.4975	536.133	78.4369	536.133	76.2502	536.133	77.6166	536.133	75.3084	536.133	76.8963	536.133	75.0445	536.133	76.4436	536.133	75.486	536.133	76.4044	536.133	76.2903	536.133	76.7567	536.133	77.1183	536.133	77.3101	536.133	77.7855	536.133	77.8499	536.133	78.2097	536.133	78.2262	536.133	78.3573
555.176	83.3025	555.176	83.2102	555.176	83.2968	555.176	83.0193	555.176	83.1901	555.176	82.7274	555.176	82.9775	555.176	82.3316	555.176	82.6547	555.176	81.8278	555.176	82.2176	555.176	81.2035	555.176	81.6558	555.176	80.4316	555.176	80.9432	555.176	79.4695	555.176	80.0333	555.176	78.2733	555.176	78.8685	555.176	76.8364	555.176	77.4052	555.176	75.2826	555.176	75.68	555.176	74.0316	555.176	73.977	555.176	73.7095	555.176	73.0163	555.176	74.3626	555.176	73.3523	555.176	75.3443	555.176	74.45	555.176	76.1435	555.176	75.5355	555.176	76.5818	555.176	76.2826	555.176	76.6297
574.219	83.047	574.219	83.0165	574.219	83.0238	574.219	82.9159	574.219	82.9575	574.219	82.731	574.219	82.8417	574.219	82.4486	574.219	82.6495	574.219	82.0506	574.219	82.3428	574.219	81.5112	574.219	81.8876	574.219	80.7984	574.219	81.2639	574.219	79.8767	574.219	80.4662	574.219	78.7092	574.219	79.4966	574.219	77.2771	574.219	78.3576	574.219	75.657	574.219	77.0725	574.219	74.1948	574.219	75.7654	574.219	73.5442	574.219	74.7641	574.219	73.9598	574.219	74.4544	574.219	74.8697	574.219	74.8131	574.219	75.6809	574.219	75.4308	574.219	76.1482	574.219	75.9604	574.219	76.2284
594.727	82.3208	594.727	82.238	594.727	82.3614	594.727	82.1236	594.727	82.3473	594.727	81.9775	594.727	82.2725	594.727	81.7852	594.727	82.1372	594.727	81.5169	594.727	81.936	594.727	81.127	594.727	81.6402	594.727	80.559	594.727	81.1907	594.727	79.7627	594.727	80.5098	594.727	78.7226	594.727	79.5324	594.727	77.4913	594.727	78.2486	594.727	76.2224	594.727	76.7566	594.727	75.1833	594.727	75.328	594.727	74.6843	594.727	74.4129	594.727	74.8564	594.727	74.3615	594.727	75.4899	594.727	75.011	594.727	76.2086	594.727	75.866	594.727	76.712	594.727	76.5378	594.727	76.8377
615.234	81.6282	615.234	81.5828	615.234	81.6893	615.234	81.5607	615.234	81.7571	615.234	81.5602	615.234	81.822	615.234	81.5583	615.234	81.8692	615.234	81.5054	615.234	81.8726	615.234	81.3278	615.234	81.7907	615.234	80.9331	615.234	81.5638	615.234	80.2204	615.234	81.1145	615.234	79.0989	615.234	80.3544	615.234	77.5353	615.234	79.2071	615.234	75.6868	615.234	77.665	615.234	74.1805	615.234	75.9271	615.234	73.9179	615.234	74.6023	615.234	74.7513	615.234	74.3991	615.234	75.7869	615.234	75.1241	615.234	76.5614	615.234	76.0355	615.234	76.9765	615.234	76.7099	615.234	77.0273
637.207	82.2728	637.207	82.2188	637.207	82.1966	637.207	82.0557	637.207	82.0147	637.207	81.8447	637.207	81.7858	637.207	81.6593	637.207	81.5773	637.207	81.5403	637.207	81.4342	637.207	81.463	637.207	81.354	637.207	81.3354	637.207	81.2808	637.207	81.0209	637.207	81.1172	637.207	80.362	637.207	80.7421	637.207	79.2037	637.207	80.0346	637.207	77.4599	637.207	78.9203	637.207	75.4218	637.207	77.4996	637.207	74.4526	637.207	76.3103	637.207	75.5608	637.207	76.2016	637.207	77.2946	637.207	77.1259	637.207	78.5877	637.207	78.2413	637.207	79.2745	637.207	79.0495	637.207	79.4094
659.18	83.0891	659.18	82.961	659.18	83.0802	659.18	82.7012	659.18	82.9393	659.18	82.3374	659.18	82.6765	659.18	81.9191	659.18	82.3164	659.18	81.5	659.18	81.907	659.18	81.1078	659.18	81.4994	659.18	80.7177	659.18	81.1008	659.18	80.2401	659.18	80.6479	659.18	79.5362	659.18	80.0281	659.18	78.4609	659.18	79.1153	659.18	76.9395	659.18	77.799	659.18	75.1575	659.18	76.0683	659.18	73.9665	659.18	74.338	659.18	74.4063	659.18	73.8303	659.18	75.8578	659.18	74.9837	659.18	77.1796	659.18	76.5214	659.18	77.9475	659.18	77.6161	659.18	78.094
682.617	83.209	682.617	83.0925	682.617	83.1695	682.617	82.831	682.617	82.978	682.617	82.4584	682.617	82.6515	682.617	82.036	682.617	82.2238	682.617	81.6289	682.617	81.7515	682.617	81.2516	682.617	81.3067	682.617	80.8393	682.617	80.9277	682.617	80.2842	682.617	80.5566	682.617	79.4825	682.617	80.0499	682.617	78.3455	682.617	79.2528	682.617	76.8174	682.617	78.0597	682.617	75.0495	682.617	76.4776	682.617	73.8715	682.617	74.8547	682.617	74.3785	682.617	74.2181	682.617	75.9377	682.617	75.1754	682.617	77.3654	682.617	76.701	682.617	78.2151	682.617	77.8665	682.617	78.3872
707.52	83.6391	707.52	83.5309	707.52	83.5919	707.52	83.2932	707.52	83.3839	707.52	82.9535	707.52	83.0405	707.52	82.534	707.52	82.6081	707.52	82.0709	707.52	82.134	707.52	81.6231	707.52	81.6542	707.52	81.216	707.52	81.1956	707.52	80.7593	707.52	80.7611	707.52	80.0493	707.52	80.2709	707.52	78.8441	707.52	79.5245	707.52	76.9161	707.52	78.2586	707.52	74.1647	707.52	76.3014	707.52	71.5781	707.52	73.9737	707.52	72.2788	707.52	72.8562	707.52	74.8512	707.52	73.9433	707.52	76.7399	707.52	75.6451	707.52	77.6297	707.52	76.9561	707.52	77.6546
732.422	83.8669	732.422	83.7187	732.422	83.7994	732.422	83.3669	732.422	83.5494	732.422	82.883	732.422	83.1708	732.422	82.3751	732.422	82.7232	732.422	81.9296	732.422	82.2699	732.422	81.5603	732.422	81.8562	732.422	81.2111	732.422	81.4658	732.422	80.78	732.422	81.0159	732.422	80.1156	732.422	80.4058	732.422	79.0134	732.422	79.5454	732.422	77.2403	732.422	78.3295	732.422	74.6483	732.422	76.6269	732.422	71.8949	732.422	74.4823	732.422	71.7243	732.422	72.9502	732.422	73.8797	732.422	73.7055	732.422	75.7633	732.422	75.4798	732.422	76.8407	732.422	76.7213	732.422	77.1586
757.324	83.9832	757.324	83.801	757.324	84.0115	757.324	83.4501	757.324	83.8822	757.324	82.9362	757.324	83.5816	757.324	82.3424	757.324	83.1274	757.324	81.8254	757.324	82.602	757.324	81.5014	757.324	82.1269	757.324	81.3279	757.324	81.7554	757.324	81.1324	757.324	81.3893	757.324	80.7142	757.324	80.8364	757.324	79.8835	757.324	79.9138	757.324	78.4442	757.324	78.4717	757.324	76.201	757.324	76.3851	757.324	73.2992	757.324	73.7872	757.324	71.8511	757.324	72.1926	757.324	73.6673	757.324	73.4501	757.324	75.8343	757.324	75.5359	757.324	77.1066	757.324	76.9372	757.324	77.4585
785.156	84.431	785.156	84.3435	785.156	84.2958	785.156	84.0367	785.156	83.9773	785.156	83.5363	785.156	83.5471	785.156	82.8826	785.156	83.0629	785.156	82.1664	785.156	82.5414	785.156	81.5598	785.156	81.9958	785.156	81.2098	785.156	81.4926	785.156	81.0227	785.156	81.1085	785.156	80.6621	785.156	80.7743	785.156	79.7615	785.156	80.2236	785.156	78.0507	785.156	79.1354	785.156	75.4291	785.156	77.2542	785.156	72.4584	785.156	74.4558	785.156	71.557	785.156	71.4584	785.156	73.4487	785.156	71.5904	785.156	75.6377	785.156	74.3364	785.156	77.05	785.156	76.4782	785.156	77.3775
811.523	84.2273	811.523	84.0419	811.523	84.1863	811.523	83.6601	811.523	83.896	811.523	83.1187	811.523	83.3682	811.523	82.4772	811.523	82.6845	811.523	81.8233	811.523	81.9921	811.523	81.2595	811.523	81.4225	811.523	80.852	811.523	80.9981	811.523	80.5464	811.523	80.6395	811.523	80.1521	811.523	80.2293	811.523	79.4299	811.523	79.6179	811.523	78.1465	811.523	78.5857	811.523	76.0731	811.523	76.8451	811.523	73.2935	811.523	74.1976	811.523	71.9936	811.523	71.6334	811.523	73.9814	811.523	72.3216	811.523	76.0282	811.523	74.6582	811.523	76.9904	811.523	76.2777	811.523	77.0264
840.82	84.4876	840.82	84.3536	840.82	84.3941	840.82	83.9419	840.82	84.1186	840.82	83.2397	840.82	83.6684	840.82	82.3185	840.82	83.0095	840.82	81.3599	840.82	82.1365	840.82	80.6027	840.82	81.1955	840.82	80.1954	840.82	80.5098	840.82	80.0751	840.82	80.2802	840.82	79.979	840.82	80.2631	840.82	79.5403	840.82	80.0016	840.82	78.3842	840.82	79.1408	840.82	76.1681	840.82	77.4254	840.82	72.739	840.82	74.6147	840.82	70.0246	840.82	71.1045	840.82	71.9289	840.82	70.9273	840.82	74.6149	840.82	73.874	840.82	76.1786	840.82	75.9047	840.82	76.6176
870.117	84.5197	870.117	84.2993	870.117	84.4819	870.117	83.8506	870.117	84.1586	870.117	83.1966	870.117	83.5573	870.117	82.3581	870.117	82.7529	870.117	81.3807	870.117	81.8791	870.117	80.4107	870.117	81.0707	870.117	79.7066	870.117	80.4243	870.117	79.3964	870.117	80.0009	870.117	79.2557	870.117	79.7707	870.117	78.8907	870.117	79.5186	870.117	77.9342	870.117	78.8904	870.117	76.0371	870.117	77.5394	870.117	72.9785	870.117	75.2618	870.117	70.2037	870.117	72.4169	870.117	71.6095	870.117	71.1028	870.117	74.188	870.117	72.6286	870.117	75.595	870.117	74.6048	870.117	75.6996
900.879	85.0016	900.879	84.8354	900.879	84.9389	900.879	84.4443	900.879	84.6401	900.879	83.8202	900.879	84.1087	900.879	82.9614	900.879	83.3673	900.879	81.9112	900.879	82.4683	900.879	80.7992	900.879	81.512	900.879	79.8809	900.879	80.6514	900.879	79.4349	900.879	80.0276	900.879	79.3652	900.879	79.6281	900.879	79.1114	900.879	79.2234	900.879	78.0806	900.879	78.4765	900.879	75.8147	900.879	77.0454	900.879	71.9336	900.879	74.5652	900.879	68.2145	900.879	71.0606	900.879	70.9805	900.879	70.4593	900.879	74.4254	900.879	73.7694	900.879	76.3125	900.879	76.0734	900.879	76.8545
933.105	85.0018	933.105	84.8288	933.105	84.9162	933.105	84.386	933.105	84.5994	933.105	83.6951	933.105	84.076	933.105	82.8042	933.105	83.3594	933.105	81.767	933.105	82.4585	933.105	80.6844	933.105	81.4306	933.105	79.8116	933.105	80.4705	933.105	79.435	933.105	79.8781	933.105	79.4459	933.105	79.7217	933.105	79.3589	933.105	79.6494	933.105	78.6799	933.105	79.1997	933.105	76.9422	933.105	77.9939	933.105	73.535	933.105	75.661	933.105	68.4695	933.105	72.0415	933.105	69.4152	933.105	70.114	933.105	73.25	933.105	72.8486	933.105	75.2659	933.105	75.1174	933.105	75.8584
965.332	85.1213	965.332	84.9652	965.332	85.0558	965.332	84.6051	965.332	84.7642	965.332	84.0505	965.332	84.2419	965.332	83.2738	965.332	83.4792	965.332	82.2357	965.332	82.493	965.332	80.9837	965.332	81.358	965.332	79.7812	965.332	80.2298	965.332	79.041	965.332	79.3693	965.332	78.8078	965.332	78.9789	965.332	78.5721	965.332	78.8351	965.332	77.8111	965.332	78.3629	965.332	76.2209	965.332	77.0008	965.332	73.4989	965.332	74.2725	965.332	69.5315	965.332	70.1673	965.332	69.3406	965.332	69.2018	965.332	73.4001	965.332	72.5882	965.332	75.6838	965.332	75.0398	965.332	76.0966
1,000.49	85.0428	1,000.49	84.873	1,000.49	84.9725	1,000.49	84.5048	1,000.49	84.6307	1,000.49	83.9334	1,000.49	84.0378	1,000.49	83.1	1,000.49	83.2417	1,000.49	81.9523	1,000.49	82.2554	1,000.49	80.5687	1,000.49	81.0686	1,000.49	79.3022	1,000.49	79.8107	1,000.49	78.6297	1,000.49	78.9065	1,000.49	78.5404	1,000.49	78.6976	1,000.49	78.5581	1,000.49	78.8007	1,000.49	78.2479	1,000.49	78.4899	1,000.49	77.1795	1,000.49	77.2369	1,000.49	74.7553	1,000.49	74.6204	1,000.49	70.5663	1,000.49	70.1261	1,000.49	69.0684	1,000.49	66.8478	1,000.49	72.4863	1,000.49	70.9449	1,000.49	74.6058	1,000.49	73.9769	1,000.49	75.076
1,035.64	84.4185	1,035.64	84.3238	1,035.64	84.3211	1,035.64	84.0166	1,035.64	84.0093	1,035.64	83.4652	1,035.64	83.4478	1,035.64	82.672	1,035.64	82.6354	1,035.64	81.6623	1,035.64	81.6152	1,035.64	80.4559	1,035.64	80.45	1,035.64	79.1362	1,035.64	79.2313	1,035.64	78.0662	1,035.64	78.1793	1,035.64	77.7657	1,035.64	77.6301	1,035.64	77.9556	1,035.64	77.5707	1,035.64	77.63	1,035.64	77.4176	1,035.64	76.0402	1,035.64	76.5035	1,035.64	72.9234	1,035.64	74.2509	1,035.64	69.1055	1,035.64	69.8717	1,035.64	68.7213	1,035.64	65.7508	1,035.64	71.8964	1,035.64	70.7466	1,035.64	74.4496	1,035.64	74.2606	1,035.64	75.3374
1,072.27	83.9878	1,072.27	83.8879	1,072.27	83.8623	1,072.27	83.5911	1,072.27	83.54	1,072.27	83.1187	1,072.27	83.0711	1,072.27	82.3991	1,072.27	82.429	1,072.27	81.278	1,072.27	81.4942	1,072.27	79.7024	1,072.27	80.1745	1,072.27	78.0283	1,072.27	78.5782	1,072.27	77.0313	1,072.27	77.1622	1,072.27	76.9344	1,072.27	76.4922	1,072.27	77.0567	1,072.27	76.4603	1,072.27	76.765	1,072.27	76.3526	1,072.27	75.5813	1,072.27	75.5211	1,072.27	72.8544	1,072.27	73.4203	1,072.27	68.2865	1,072.27	69.3932	1,072.27	68.5121	1,072.27	64.6885	1,072.27	72.4766	1,072.27	68.6729	1,072.27	74.4487	1,072.27	72.7582	1,072.27	74.5465
1,108.89	83.6021	1,108.89	83.4912	1,108.89	83.5807	1,108.89	83.181	1,108.89	83.3886	1,108.89	82.5755	1,108.89	82.972	1,108.89	81.6874	1,108.89	82.3238	1,108.89	80.6171	1,108.89	81.3979	1,108.89	79.3925	1,108.89	80.0818	1,108.89	77.9622	1,108.89	78.3764	1,108.89	76.5563	1,108.89	76.6272	1,108.89	75.8588	1,108.89	75.5238	1,108.89	75.9121	1,108.89	75.4516	1,108.89	75.7655	1,108.89	75.8174	1,108.89	74.5634	1,108.89	75.6703	1,108.89	71.5846	1,108.89	74.2205	1,108.89	66.306	1,108.89	70.4796	1,108.89	66.7313	1,108.89	63.5109	1,108.89	71.2162	1,108.89	67.4143	1,108.89	73.3045	1,108.89	71.9192	1,108.89	73.5402
1,148.44	83.6332	1,148.44	83.3188	1,148.44	83.6402	1,148.44	82.8429	1,148.44	83.3362	1,148.44	82.3082	1,148.44	82.846	1,148.44	81.6404	1,148.44	82.2378	1,148.44	80.687	1,148.44	81.4333	1,148.44	79.3555	1,148.44	80.323	1,148.44	77.6622	1,148.44	78.8878	1,148.44	75.9658	1,148.44	77.2835	1,148.44	75.2443	1,148.44	75.9626	1,148.44	75.5794	1,148.44	75.5305	1,148.44	75.5177	1,148.44	75.8462	1,148.44	74.1312	1,148.44	75.8396	1,148.44	71.0674	1,148.44	74.4618	1,148.44	65.5446	1,148.44	70.696	1,148.44	63.4073	1,148.44	62.7742	1,148.44	69.8097	1,148.44	65.5216	1,148.44	72.687	1,148.44	70.7714	1,148.44	72.8531
1,189.45	84.3131	1,189.45	84.1332	1,189.45	84.3058	1,189.45	83.7297	1,189.45	84.0766	1,189.45	83.0513	1,189.45	83.588	1,189.45	82.1257	1,189.45	82.8523	1,189.45	81.0288	1,189.45	81.8944	1,189.45	79.7379	1,189.45	80.698	1,189.45	78.0809	1,189.45	79.1968	1,189.45	76.0808	1,189.45	77.3859	1,189.45	74.6999	1,189.45	75.742	1,189.45	74.8572	1,189.45	75.3295	1,189.45	75.3256	1,189.45	75.8875	1,189.45	74.7971	1,189.45	75.9742	1,189.45	72.47	1,189.45	74.8273	1,189.45	67.0842	1,189.45	71.8815	1,189.45	64.3444	1,189.45	66.1532	1,189.45	70.0918	1,189.45	66.8834	1,189.45	72.6401	1,189.45	71.5508	1,189.45	73.1052
1,230.47	84.4335	1,230.47	84.2339	1,230.47	84.4109	1,230.47	83.7933	1,230.47	84.1053	1,230.47	83.0863	1,230.47	83.5378	1,230.47	82.2414	1,230.47	82.844	1,230.47	81.3503	1,230.47	82.0764	1,230.47	80.1781	1,230.47	81.0961	1,230.47	78.4806	1,230.47	79.7302	1,230.47	76.7041	1,230.47	78.0724	1,230.47	75.8255	1,230.47	76.7186	1,230.47	75.679	1,230.47	76.1975	1,230.47	75.4189	1,230.47	76.004	1,230.47	74.4603	1,230.47	75.4071	1,230.47	71.8055	1,230.47	73.9017	1,230.47	65.0485	1,230.47	70.3809	1,230.47	60.8312	1,230.47	63.2339	1,230.47	69.6367	1,230.47	67.3664	1,230.47	72.8694	1,230.47	71.9781	1,230.47	73.527
1,274.41	84.2738	1,274.41	84.0758	1,274.41	84.2399	1,274.41	83.6005	1,274.41	83.9978	1,274.41	82.9899	1,274.41	83.4848	1,274.41	82.409	1,274.41	82.7541	1,274.41	81.7183	1,274.41	81.9292	1,274.41	80.5908	1,274.41	80.8958	1,274.41	78.9234	1,274.41	79.3809	1,274.41	77.0285	1,274.41	77.4032	1,274.41	75.4921	1,274.41	75.52	1,274.41	74.8874	1,274.41	74.6876	1,274.41	75.0954	1,274.41	75.0041	1,274.41	75.0195	1,274.41	75.0883	1,274.41	73.3872	1,274.41	73.9719	1,274.41	68.6215	1,274.41	71.12	1,274.41	61.2599	1,274.41	65.4376	1,274.41	68.34	1,274.41	64.387	1,274.41	71.9288	1,274.41	70.4077	1,274.41	72.599
1,319.82	83.8243	1,319.82	83.6566	1,319.82	83.8254	1,319.82	83.3214	1,319.82	83.6856	1,319.82	82.8913	1,319.82	83.3014	1,319.82	82.3491	1,319.82	82.6436	1,319.82	81.6202	1,319.82	81.8796	1,319.82	80.6833	1,319.82	80.9225	1,319.82	79.4055	1,319.82	79.4527	1,319.82	77.3845	1,319.82	77.6135	1,319.82	74.9453	1,319.82	75.9583	1,319.82	74.7119	1,319.82	75.1571	1,319.82	75.4978	1,319.82	75.6779	1,319.82	74.7582	1,319.82	76.3274	1,319.82	71.8782	1,319.82	75.2607	1,319.82	66.1137	1,319.82	70.689	1,319.82	59.3367	1,319.82	60.0837	1,319.82	68.0223	1,319.82	64.8674	1,319.82	72.2872	1,319.82	70.4868	1,319.82	72.9373
1,366.7	83.876	1,366.7	83.7082	1,366.7	83.6313	1,366.7	83.1966	1,366.7	83.2738	1,366.7	82.5823	1,366.7	82.9593	1,366.7	81.8945	1,366.7	82.4306	1,366.7	81.0799	1,366.7	81.5592	1,366.7	80.0753	1,366.7	80.5074	1,366.7	78.6551	1,366.7	79.2732	1,366.7	76.7665	1,366.7	77.5653	1,366.7	75.0794	1,366.7	75.4424	1,366.7	74.5079	1,366.7	74.4135	1,366.7	74.5715	1,366.7	75.175	1,366.7	74.3307	1,366.7	75.9899	1,366.7	72.6711	1,366.7	75.447	1,366.7	67.4768	1,366.7	72.1183	1,366.7	54.5665	1,366.7	62.5826	1,366.7	67.1709	1,366.7	64.0691	1,366.7	71.0107	1,366.7	70.6091	1,366.7	72.1442
1,413.57	83.5471	1,413.57	83.2292	1,413.57	83.4957	1,413.57	82.6735	1,413.57	82.9399	1,413.57	81.962	1,413.57	82.1292	1,413.57	81.2201	1,413.57	81.5067	1,413.57	80.4375	1,413.57	80.9547	1,413.57	79.5137	1,413.57	80.1293	1,413.57	78.3601	1,413.57	79.055	1,413.57	76.7113	1,413.57	77.6068	1,413.57	74.3981	1,413.57	75.337	1,413.57	73.3704	1,413.57	73.2854	1,413.57	74.8459	1,413.57	73.7274	1,413.57	75.6193	1,413.57	74.8094	1,413.57	73.8655	1,413.57	74.6749	1,413.57	68.1951	1,413.57	72.3807	1,413.57	54.8181	1,413.57	65.4514	1,413.57	67.5414	1,413.57	58.4989	1,413.57	71.0566	1,413.57	69.1864	1,413.57	71.4264
1,463.38	83.6797	1,463.38	83.2945	1,463.38	83.7048	1,463.38	82.5966	1,463.38	83.2013	1,463.38	81.6034	1,463.38	82.1412	1,463.38	80.5866	1,463.38	80.9361	1,463.38	79.9345	1,463.38	80.0918	1,463.38	79.4722	1,463.38	79.4377	1,463.38	78.6342	1,463.38	78.6073	1,463.38	76.9592	1,463.38	77.5901	1,463.38	74.6447	1,463.38	75.8738	1,463.38	73.6331	1,463.38	72.8596	1,463.38	74.4291	1,463.38	72.1614	1,463.38	75.0124	1,463.38	74.9107	1,463.38	73.9601	1,463.38	75.6628	1,463.38	70.1049	1,463.38	72.8775	1,463.38	59.9464	1,463.38	66.4185	1,463.38	64.1552	1,463.38	60.0089	1,463.38	69.1566	1,463.38	66.1962	1,463.38	69.5822
1,516.11	84.5152	1,516.11	83.9575	1,516.11	84.4453	1,516.11	83.2185	1,516.11	83.6431	1,516.11	82.3411	1,516.11	82.5624	1,516.11	81.0102	1,516.11	81.5427	1,516.11	79.4795	1,516.11	80.2945	1,516.11	78.639	1,516.11	78.8944	1,516.11	78.3096	1,516.11	78.1016	1,516.11	77.1903	1,516.11	77.5382	1,516.11	74.5087	1,516.11	75.8833	1,516.11	71.5478	1,516.11	72.9715	1,516.11	72.8395	1,516.11	71.3646	1,516.11	74.9527	1,516.11	73.4994	1,516.11	74.222	1,516.11	74.6762	1,516.11	70.1281	1,516.11	72.6381	1,516.11	58.1882	1,516.11	65.473	1,516.11	66.6637	1,516.11	63.5973	1,516.11	71.6026	1,516.11	69.8498	1,516.11	72.0295
1,568.85	84.73	1,568.85	84.6823	1,568.85	84.8304	1,568.85	84.1368	1,568.85	84.6336	1,568.85	83.158	1,568.85	83.5131	1,568.85	82.1383	1,568.85	81.9641	1,568.85	80.6114	1,568.85	80.6433	1,568.85	78.6281	1,568.85	79.4709	1,568.85	77.5555	1,568.85	78.6108	1,568.85	76.9293	1,568.85	77.4512	1,568.85	74.5838	1,568.85	74.8824	1,568.85	70.5559	1,568.85	72.4086	1,568.85	70.6549	1,568.85	71.7304	1,568.85	73.58	1,568.85	71.8847	1,568.85	74.1212	1,568.85	72.7513	1,568.85	69.8399	1,568.85	70.8938	1,568.85	21.3394	1,568.85	61.9678	1,568.85	67.2713	1,568.85	66.0522	1,568.85	71.5448	1,568.85	72.5868	1,568.85	73.552
1,624.51	84.2749	1,624.51	84.2538	1,624.51	84.2006	1,624.51	83.7811	1,624.51	84.2109	1,624.51	82.9921	1,624.51	83.4526	1,624.51	81.7085	1,624.51	81.5893	1,624.51	79.9302	1,624.51	79.8806	1,624.51	78.8153	1,624.51	79.2318	1,624.51	78.3756	1,624.51	78.5955	1,624.51	77.0465	1,624.51	77.023	1,624.51	74.1932	1,624.51	73.9677	1,624.51	70.3131	1,624.51	71.0313	1,624.51	69.6123	1,624.51	71.9618	1,624.51	72.6131	1,624.51	73.303	1,624.51	73.5018	1,624.51	72.4522	1,624.51	71.1455	1,624.51	70.3829	1,624.51	60.3287	1,624.51	65.2297	1,624.51	67.4424	1,624.51	64.495	1,624.51	72.2328	1,624.51	71.0157	1,624.51	72.568
1,681.64	83.446	1,681.64	83.3986	1,681.64	82.9536	1,681.64	82.9365	1,681.64	82.3883	1,681.64	82.525	1,681.64	82.0991	1,681.64	81.6643	1,681.64	81.6613	1,681.64	80.1421	1,681.64	80.385	1,681.64	79.3051	1,681.64	78.6857	1,681.64	79.0789	1,681.64	77.462	1,681.64	78.2847	1,681.64	76.5816	1,681.64	77.0181	1,681.64	75.5164	1,681.64	74.5949	1,681.64	73.5033	1,681.64	71.1289	1,681.64	69.4453	1,681.64	72.243	1,681.64	70.1878	1,681.64	72.4477	1,681.64	72.6647	1,681.64	70.3119	1,681.64	73.1779	1,681.64	64.2257	1,681.64	70.9847	1,681.64	59.3468	1,681.64	65.0489	1,681.64	68.5672	1,681.64	67.3801	1,681.64	69.6168
1,741.7	84.2386	1,741.7	84.251	1,741.7	84.1646	1,741.7	83.7561	1,741.7	83.7986	1,741.7	82.3424	1,741.7	82.8759	1,741.7	80.5598	1,741.7	81.4617	1,741.7	79.3633	1,741.7	80.1415	1,741.7	78.3245	1,741.7	79.4529	1,741.7	77.3248	1,741.7	78.7559	1,741.7	77.1444	1,741.7	77.7672	1,741.7	76.5749	1,741.7	76.9678	1,741.7	74.2843	1,741.7	75.2974	1,741.7	70.1662	1,741.7	70.8565	1,741.7	68.1961	1,741.7	68.9348	1,741.7	69.6713	1,741.7	71.9839	1,741.7	69.7778	1,741.7	72.7962	1,741.7	64.9956	1,741.7	71.127	1,741.7	56.7483	1,741.7	65.707	1,741.7	68.8854	1,741.7	63.3423	1,741.7	69.2268
1,803.22	84.208	1,803.22	84.1068	1,803.22	84.0611	1,803.22	83.2664	1,803.22	83.8517	1,803.22	82.3461	1,803.22	83.2238	1,803.22	81.3193	1,803.22	82.2553	1,803.22	79.4441	1,803.22	80.9861	1,803.22	77.7736	1,803.22	79.5302	1,803.22	77.2194	1,803.22	78.2756	1,803.22	76.543	1,803.22	77.5781	1,803.22	75.6064	1,803.22	77.1092	1,803.22	74.0385	1,803.22	76.191	1,803.22	71.7846	1,803.22	73.8219	1,803.22	70.5359	1,803.22	70.0834	1,803.22	70.7162	1,803.22	72.1936	1,803.22	70.453	1,803.22	74.4334	1,803.22	67.6493	1,803.22	70.9898	1,803.22	62.6924	1,803.22	64.1908	1,803.22	67.7222	1,803.22	60.1179	1,803.22	63.0815
1,866.21	84.3815	1,866.21	84.0009	1,866.21	84.1327	1,866.21	83.6994	1,866.21	83.2144	1,866.21	83.0414	1,866.21	82.5227	1,866.21	81.4375	1,866.21	81.8739	1,866.21	80.0631	1,866.21	80.4745	1,866.21	78.8671	1,866.21	79.0997	1,866.21	77.0374	1,866.21	77.8524	1,866.21	76.3743	1,866.21	76.6496	1,866.21	76.1306	1,866.21	76.5482	1,866.21	73.8284	1,866.21	75.5907	1,866.21	70.1911	1,866.21	72.4503	1,866.21	72.2643	1,866.21	71.1433	1,866.21	73.6176	1,866.21	72.987	1,866.21	69.9444	1,866.21	74.1578	1,866.21	63.2449	1,866.21	71.8294	1,866.21	56.4583	1,866.21	62.4787	1,866.21	62.9183	1,866.21	61.1666	1,866.21	64.4683
1,932.13	84.0815	1,932.13	83.7127	1,932.13	83.7935	1,932.13	83.2107	1,932.13	82.9713	1,932.13	82.5076	1,932.13	82.3182	1,932.13	81.106	1,932.13	81.9346	1,932.13	79.8558	1,932.13	80.8594	1,932.13	78.4354	1,932.13	78.9111	1,932.13	76.2701	1,932.13	76.9897	1,932.13	75.1683	1,932.13	75.5084	1,932.13	75.143	1,932.13	74.7063	1,932.13	74.2405	1,932.13	73.9743	1,932.13	72.1157	1,932.13	70.7937	1,932.13	71.5767	1,932.13	68.0417	1,932.13	73.3221	1,932.13	70.5999	1,932.13	71.0204	1,932.13	71.5483	1,932.13	61.9905	1,932.13	69.7813	1,932.13	59.8664	1,932.13	61.4044	1,932.13	69.0933	1,932.13	62.7727	1,932.13	70.7699
1,999.51	83.7742	1,999.51	83.5404	1,999.51	83.9038	1,999.51	83.3094	1,999.51	83.7442	1,999.51	82.5184	1,999.51	82.9627	1,999.51	81.1828	1,999.51	81.8725	1,999.51	80.3401	1,999.51	80.9204	1,999.51	78.5549	1,999.51	79.7249	1,999.51	75.2093	1,999.51	78.0555	1,999.51	74.4582	1,999.51	76.7625	1,999.51	74.898	1,999.51	76.5294	1,999.51	72.6202	1,999.51	75.7147	1,999.51	70.4502	1,999.51	73.5601	1,999.51	71.1238	1,999.51	70.0282	1,999.51	72.835	1,999.51	69.8672	1,999.51	72.0284	1,999.51	71.3996	1,999.51	65.2608	1,999.51	69.1164	1,999.51	61.759	1,999.51	60.8801	1,999.51	70.5223	1,999.51	61.9834	1,999.51	70.142
2,069.82	85.0014	2,069.82	84.8761	2,069.82	84.8271	2,069.82	84.1827	2,069.82	84.473	2,069.82	83.0167	2,069.82	83.9127	2,069.82	82.3446	2,069.82	83.2055	2,069.82	81.3873	2,069.82	81.9719	2,069.82	79.2549	2,069.82	80.2854	2,069.82	77.2136	2,069.82	78.3149	2,069.82	75.6925	2,069.82	75.6341	2,069.82	74.9764	2,069.82	75.3752	2,069.82	74.8618	2,069.82	76.547	2,069.82	72.1663	2,069.82	74.9831	2,069.82	68.96	2,069.82	70.1282	2,069.82	71.8682	2,069.82	70.0366	2,069.82	72.8129	2,069.82	72.0571	2,069.82	70.5825	2,069.82	69.7655	2,069.82	52.239	2,069.82	61.4338	2,069.82	67.3184	2,069.82	61.4134	2,069.82	67.8997
2,143.07	84.3935	2,143.07	84.0944	2,143.07	84.3267	2,143.07	83.5539	2,143.07	83.4429	2,143.07	82.479	2,143.07	82.7993	2,143.07	81.3218	2,143.07	81.7176	2,143.07	80.1032	2,143.07	80.2086	2,143.07	79.1096	2,143.07	80.3881	2,143.07	77.2631	2,143.07	79.3295	2,143.07	74.7047	2,143.07	75.4576	2,143.07	74.5341	2,143.07	72.8945	2,143.07	74.938	2,143.07	74.4245	2,143.07	72.6421	2,143.07	73.9479	2,143.07	67.4866	2,143.07	69.1385	2,143.07	71.5115	2,143.07	67.7531	2,143.07	73.887	2,143.07	73.4852	2,143.07	70.1476	2,143.07	72.3755	2,143.07	55.7952	2,143.07	66.4642	2,143.07	63.8997	2,143.07	58.8718	2,143.07	66.9356
2,219.24	83.8928	2,219.24	83.4209	2,219.24	83.8293	2,219.24	82.6115	2,219.24	83.1803	2,219.24	81.3554	2,219.24	81.8489	2,219.24	80.431	2,219.24	80.4485	2,219.24	79.5563	2,219.24	80.1511	2,219.24	77.9414	2,219.24	79.3456	2,219.24	76.6187	2,219.24	77.7251	2,219.24	74.5089	2,219.24	76.4498	2,219.24	71.9556	2,219.24	73.0579	2,219.24	74.1875	2,219.24	72.6309	2,219.24	73.422	2,219.24	74.1256	2,219.24	67.9638	2,219.24	70.2299	2,219.24	70.3426	2,219.24	57.6071	2,219.24	73.063	2,219.24	69.9135	2,219.24	71.3368	2,219.24	72.7595	2,219.24	62.4886	2,219.24	68.9142	2,219.24	61.8508	2,219.24	59.6384	2,219.24	57.1347
2,296.88	83.8527	2,296.88	83.4707	2,296.88	84.3942	2,296.88	83.2142	2,296.88	83.8304	2,296.88	81.9188	2,296.88	83.1628	2,296.88	79.95	2,296.88	82.2411	2,296.88	78.7133	2,296.88	80.385	2,296.88	78.0239	2,296.88	79.0414	2,296.88	77.418	2,296.88	77.7804	2,296.88	75.5389	2,296.88	76.9639	2,296.88	71.143	2,296.88	75.8537	2,296.88	72.3151	2,296.88	73.6992	2,296.88	73.6153	2,296.88	74.0728	2,296.88	68.9073	2,296.88	73.158	2,296.88	67.1316	2,296.88	66.1991	2,296.88	71.3964	2,296.88	69.013	2,296.88	69.5192	2,296.88	72.7622	2,296.88	63.3344	2,296.88	68.8252	2,296.88	59.8916	2,296.88	58.8363	2,296.88	60.5854
2,378.91	85.0669	2,378.91	84.4969	2,378.91	85.093	2,378.91	84.1822	2,378.91	83.9876	2,378.91	82.5817	2,378.91	83.5141	2,378.91	81.2769	2,378.91	82.753	2,378.91	80.5311	2,378.91	81.1393	2,378.91	78.3657	2,378.91	79.2747	2,378.91	76.6254	2,378.91	77.6299	2,378.91	76.1258	2,378.91	77.7273	2,378.91	74.2334	2,378.91	76.7769	2,378.91	72.5488	2,378.91	73.9125	2,378.91	72.7003	2,378.91	73.8508	2,378.91	69.472	2,378.91	73.7679	2,378.91	67.8466	2,378.91	69.3682	2,378.91	69.7673	2,378.91	68.7474	2,378.91	69.1721	2,378.91	71.2591	2,378.91	66.678	2,378.91	68.8419	2,378.91	67.6294	2,378.91	66.8201	2,378.91	68.8349
2,462.4	83.9018	2,462.4	83.651	2,462.4	83.8136	2,462.4	83.1807	2,462.4	83.4784	2,462.4	82.4959	2,462.4	82.8864	2,462.4	81.6167	2,462.4	82.0754	2,462.4	80.4586	2,462.4	80.9434	2,462.4	79.0332	2,462.4	79.4674	2,462.4	77.9165	2,462.4	77.9186	2,462.4	77.074	2,462.4	76.7777	2,462.4	75.2346	2,462.4	75.7112	2,462.4	73.1281	2,462.4	73.1687	2,462.4	73.3156	2,462.4	71.8499	2,462.4	71.9344	2,462.4	72.3768	2,462.4	68.3815	2,462.4	68.3466	2,462.4	67.3416	2,462.4	65.1657	2,462.4	69.3686	2,462.4	70.6963	2,462.4	66.7083	2,462.4	69.4834	2,462.4	66.8902	2,462.4	67.8665	2,462.4	68.5644
2,548.83	83.3269	2,548.83	83.1733	2,548.83	83.4482	2,548.83	82.6796	2,548.83	83.0716	2,548.83	81.827	2,548.83	82.5563	2,548.83	81.019	2,548.83	81.9331	2,548.83	79.9277	2,548.83	81.0916	2,548.83	78.9083	2,548.83	80.1045	2,548.83	77.634	2,548.83	78.5208	2,548.83	76.3113	2,548.83	76.8098	2,548.83	74.8576	2,548.83	75.6786	2,548.83	72.5409	2,548.83	74.2664	2,548.83	72.6096	2,548.83	72.5437	2,548.83	71.454	2,548.83	72.6728	2,548.83	69.4627	2,548.83	70.8631	2,548.83	71.5447	2,548.83	66.9763	2,548.83	68.6117	2,548.83	69.1394	2,548.83	66.493	2,548.83	67.6314	2,548.83	69.9053	2,548.83	66.7796	2,548.83	71.4827
2,639.65	83.8536	2,639.65	83.6499	2,639.65	83.7701	2,639.65	83.1708	2,639.65	83.6192	2,639.65	82.61	2,639.65	83.3581	2,639.65	81.8698	2,639.65	82.8762	2,639.65	80.8133	2,639.65	82.0528	2,639.65	79.4265	2,639.65	80.7418	2,639.65	78.1195	2,639.65	79.5585	2,639.65	76.7961	2,639.65	77.9466	2,639.65	74.8139	2,639.65	76.4295	2,639.65	72.3247	2,639.65	75.0151	2,639.65	72.0566	2,639.65	73.3142	2,639.65	71.8055	2,639.65	73.5542	2,639.65	66.5517	2,639.65	71.3615	2,639.65	68.8662	2,639.65	68.2146	2,639.65	70.3051	2,639.65	71.0216	2,639.65	66.4826	2,639.65	69.0752	2,639.65	71.3972	2,639.65	65.5051	2,639.65	71.2567
2,731.93	83.9083	2,731.93	83.7097	2,731.93	83.8504	2,731.93	83.4248	2,731.93	83.5801	2,731.93	82.9014	2,731.93	83.2895	2,731.93	82.3198	2,731.93	83.038	2,731.93	81.5885	2,731.93	82.4806	2,731.93	80.4317	2,731.93	81.227	2,731.93	78.9461	2,731.93	79.6512	2,731.93	77.1789	2,731.93	77.9333	2,731.93	75.5822	2,731.93	76.3309	2,731.93	73.8387	2,731.93	74.7895	2,731.93	72.4441	2,731.93	72.9058	2,731.93	72.5296	2,731.93	72.9414	2,731.93	70.2293	2,731.93	72.1403	2,731.93	70.9689	2,731.93	67.9426	2,731.93	69.7019	2,731.93	69.4793	2,731.93	65.6797	2,731.93	68.1644	2,731.93	68.1183	2,731.93	67.0139	2,731.93	70.9005
2,828.61	83.6252	2,828.61	83.3901	2,828.61	83.654	2,828.61	83.4297	2,828.61	83.7355	2,828.61	83.2978	2,828.61	83.8096	2,828.61	82.8929	2,828.61	83.5732	2,828.61	81.8862	2,828.61	83.0534	2,828.61	80.5437	2,828.61	81.9603	2,828.61	79.0852	2,828.61	80.3742	2,828.61	77.3721	2,828.61	78.7542	2,828.61	75.7311	2,828.61	76.6907	2,828.61	74.3371	2,828.61	74.9866	2,828.61	73.0351	2,828.61	73.5005	2,828.61	72.9845	2,828.61	72.5637	2,828.61	68.9551	2,828.61	72.1507	2,828.61	66.4148	2,828.61	68.9393	2,828.61	70.8478	2,828.61	70.7369	2,828.61	68.4572	2,828.61	70.6285	2,828.61	72.4242	2,828.61	65.1831	2,828.61	70.3946
2,928.22	83.3885	2,928.22	83.4736	2,928.22	83.6005	2,928.22	83.8287	2,928.22	83.7134	2,928.22	83.9608	2,928.22	84.04	2,928.22	83.7005	2,928.22	83.8965	2,928.22	82.7275	2,928.22	83.1743	2,928.22	81.3458	2,928.22	82.0668	2,928.22	79.7017	2,928.22	80.6134	2,928.22	77.8361	2,928.22	78.9566	2,928.22	76.0631	2,928.22	77.1509	2,928.22	74.8115	2,928.22	75.7453	2,928.22	73.2755	2,928.22	74.2914	2,928.22	72.416	2,928.22	72.4919	2,928.22	70.5145	2,928.22	72.0514	2,928.22	68.7174	2,928.22	70.456	2,928.22	70.137	2,928.22	71.5567	2,928.22	66.479	2,928.22	69.6722	2,928.22	69.0341	2,928.22	67.2618	2,928.22	70.5821
3,030.76	82.9258	3,030.76	83.2969	3,030.76	83.1106	3,030.76	83.5513	3,030.76	83.4754	3,030.76	83.6692	3,030.76	84.0185	3,030.76	83.5464	3,030.76	84.0321	3,030.76	82.5523	3,030.76	83.1039	3,030.76	80.7543	3,030.76	81.9912	3,030.76	78.6923	3,030.76	80.6942	3,030.76	76.6264	3,030.76	78.6114	3,030.76	75.3791	3,030.76	77.2477	3,030.76	74.2629	3,030.76	75.5988	3,030.76	71.7702	3,030.76	73.3737	3,030.76	71.4634	3,030.76	72.3445	3,030.76	71.4774	3,030.76	71.5607	3,030.76	70.9645	3,030.76	69.2363	3,030.76	71.127	3,030.76	70.8671	3,030.76	66.0602	3,030.76	70.2488	3,030.76	70.2337	3,030.76	66.091	3,030.76	71.2691
3,137.7	82.851	3,137.7	83.1431	3,137.7	83.2041	3,137.7	83.8655	3,137.7	83.974	3,137.7	84.1989	3,137.7	84.4192	3,137.7	83.7324	3,137.7	84.5179	3,137.7	82.7277	3,137.7	84.1033	3,137.7	81.4404	3,137.7	82.8029	3,137.7	79.9255	3,137.7	80.9693	3,137.7	77.6715	3,137.7	79.3066	3,137.7	75.2258	3,137.7	77.374	3,137.7	74.2179	3,137.7	75.3539	3,137.7	73.0744	3,137.7	73.5963	3,137.7	71.7181	3,137.7	71.9501	3,137.7	68.4807	3,137.7	71.7936	3,137.7	70.7337	3,137.7	69.4581	3,137.7	71.2427	3,137.7	70.5617	3,137.7	65.4292	3,137.7	70.6776	3,137.7	68.673	3,137.7	66.8061	3,137.7	72.1217
3,249.02	82.2905	3,249.02	82.9292	3,249.02	82.5573	3,249.02	83.8002	3,249.02	83.3658	3,249.02	84.0051	3,249.02	84.1563	3,249.02	83.7723	3,249.02	84.1616	3,249.02	82.8361	3,249.02	83.6525	3,249.02	81.0799	3,249.02	82.4087	3,249.02	78.9098	3,249.02	80.7179	3,249.02	77.0592	3,249.02	78.8941	3,249.02	74.6278	3,249.02	76.5057	3,249.02	73.3606	3,249.02	74.8592	3,249.02	72.8148	3,249.02	73.3434	3,249.02	71.911	3,249.02	71.0912	3,249.02	69.1455	3,249.02	71.0626	3,249.02	66.6843	3,249.02	68.8625	3,249.02	71.5818	3,249.02	70.5298	3,249.02	67.6048	3,249.02	71.1848	3,249.02	70.1314	3,249.02	66.0204	3,249.02	71.1193
3,363.28	81.7985	3,363.28	82.4534	3,363.28	82.3812	3,363.28	83.6697	3,363.28	83.461	3,363.28	84.3291	3,363.28	84.2981	3,363.28	83.7734	3,363.28	84.0529	3,363.28	82.4731	3,363.28	83.1842	3,363.28	80.6288	3,363.28	82.1363	3,363.28	79.0574	3,363.28	80.5538	3,363.28	77.7772	3,363.28	77.9277	3,363.28	74.4845	3,363.28	75.8988	3,363.28	72.8836	3,363.28	74.423	3,363.28	72.4498	3,363.28	73.4556	3,363.28	72.2861	3,363.28	71.062	3,363.28	70.5066	3,363.28	70.9907	3,363.28	64.2908	3,363.28	69.11	3,363.28	71.2238	3,363.28	69.2915	3,363.28	68.2706	3,363.28	70.0087	3,363.28	69.8907	3,363.28	64.4062	3,363.28	70.6213
3,481.93	81.7801	3,481.93	82.2356	3,481.93	82.0341	3,481.93	83.2316	3,481.93	83.5336	3,481.93	84.2619	3,481.93	84.0197	3,481.93	83.342	3,481.93	84.1742	3,481.93	81.9959	3,481.93	83.5038	3,481.93	80.5516	3,481.93	81.9691	3,481.93	79.0254	3,481.93	79.9693	3,481.93	76.6056	3,481.93	78.1429	3,481.93	74.8408	3,481.93	76.1615	3,481.93	72.7403	3,481.93	73.8889	3,481.93	70.5504	3,481.93	73.5059	3,481.93	68.3135	3,481.93	71.3903	3,481.93	69.8676	3,481.93	70.2186	3,481.93	66.8191	3,481.93	68.3848	3,481.93	70.0176	3,481.93	66.7558	3,481.93	66.5692	3,481.93	69.7303	3,481.93	67.0111	3,481.93	65.7916	3,481.93	69.344
3,604.98	81.8412	3,604.98	82.7624	3,604.98	82.4178	3,604.98	83.8135	3,604.98	83.1223	3,604.98	83.3822	3,604.98	84.0143	3,604.98	83.0004	3,604.98	83.8767	3,604.98	82.0095	3,604.98	82.8792	3,604.98	80.1015	3,604.98	81.788	3,604.98	76.8707	3,604.98	79.7814	3,604.98	74.6236	3,604.98	77.4654	3,604.98	74.7776	3,604.98	74.8368	3,604.98	72.1731	3,604.98	72.6804	3,604.98	69.0947	3,604.98	71.2266	3,604.98	67.1442	3,604.98	69.9441	3,604.98	66.6484	3,604.98	68.7188	3,604.98	66.3237	3,604.98	67.6519	3,604.98	69.3773	3,604.98	66.5437	3,604.98	66.2369	3,604.98	69.5232	3,604.98	66.871	3,604.98	63.7188	3,604.98	69.5917
3,732.42	81.8334	3,732.42	82.8521	3,732.42	81.9223	3,732.42	83.5122	3,732.42	82.9203	3,732.42	83.6684	3,732.42	83.8352	3,732.42	83.0442	3,732.42	83.5527	3,732.42	81.2918	3,732.42	82.1357	3,732.42	78.7854	3,732.42	80.4837	3,732.42	76.757	3,732.42	79.019	3,732.42	75.3332	3,732.42	76.8604	3,732.42	72.6664	3,732.42	75.4453	3,732.42	70.5689	3,732.42	73.366	3,732.42	68.4998	3,732.42	71.2686	3,732.42	67.1563	3,732.42	70.0804	3,732.42	66.3961	3,732.42	67.6542	3,732.42	64.3705	3,732.42	67.357	3,732.42	67.551	3,732.42	66.5168	3,732.42	66.4109	3,732.42	68.6745	3,732.42	67.2149	3,732.42	63.131	3,732.42	69.4537
3,864.26	81.7963	3,864.26	82.3658	3,864.26	82.0295	3,864.26	82.9452	3,864.26	83.2019	3,864.26	83.5733	3,864.26	83.4492	3,864.26	82.7202	3,864.26	83.4354	3,864.26	80.967	3,864.26	82.491	3,864.26	79.4956	3,864.26	80.5797	3,864.26	78.246	3,864.26	78.6754	3,864.26	75.58	3,864.26	77.0804	3,864.26	72.9112	3,864.26	75.2397	3,864.26	70.4085	3,864.26	72.3823	3,864.26	69.595	3,864.26	70.7065	3,864.26	67.6644	3,864.26	69.7967	3,864.26	68.3311	3,864.26	68.8943	3,864.26	62.7646	3,864.26	66.5854	3,864.26	67.787	3,864.26	65.0576	3,864.26	66.8051	3,864.26	69.2856	3,864.26	67.248	3,864.26	64.7534	3,864.26	68.9651
4,000.49	82.2976	4,000.49	82.3019	4,000.49	82.8911	4,000.49	83.1311	4,000.49	83.1717	4,000.49	82.92	4,000.49	83.5735	4,000.49	81.7139	4,000.49	83.5466	4,000.49	80.73	4,000.49	82.2103	4,000.49	79.5586	4,000.49	80.4712	4,000.49	76.7871	4,000.49	78.4824	4,000.49	74.6639	4,000.49	76.7517	4,000.49	74.1586	4,000.49	74.6217	4,000.49	71.3438	4,000.49	72.5959	4,000.49	69.8473	4,000.49	70.8195	4,000.49	66.6754	4,000.49	69.4367	4,000.49	65.6606	4,000.49	66.409	4,000.49	66.2472	4,000.49	65.8435	4,000.49	67.0625	4,000.49	63.7676	4,000.49	65.7609	4,000.49	69.3956	4,000.49	66.208	4,000.49	65.3001	4,000.49	68.3507
4,141.11	83.1421	4,141.11	83.7358	4,141.11	83.0661	4,141.11	84.1453	4,141.11	83.2758	4,141.11	83.5142	4,141.11	83.7866	4,141.11	82.6885	4,141.11	83.0802	4,141.11	81.2103	4,141.11	81.873	4,141.11	78.8091	4,141.11	80.5659	4,141.11	76.5224	4,141.11	78.8242	4,141.11	74.8749	4,141.11	76.5764	4,141.11	73.2634	4,141.11	74.7611	4,141.11	72.7211	4,141.11	72.9961	4,141.11	70.1661	4,141.11	70.906	4,141.11	67.4033	4,141.11	68.5675	4,141.11	64.0652	4,141.11	67.0003	4,141.11	64.8244	4,141.11	68.0567	4,141.11	66.1301	4,141.11	65.3623	4,141.11	67.2494	4,141.11	67.4845	4,141.11	63.4271	4,141.11	63.1148	4,141.11	67.9202
4,287.6	83.4522	4,287.6	83.7864	4,287.6	82.6172	4,287.6	83.1166	4,287.6	83.3782	4,287.6	83.2868	4,287.6	83.3365	4,287.6	82.1388	4,287.6	82.5387	4,287.6	79.9616	4,287.6	81.538	4,287.6	78.4997	4,287.6	80.0771	4,287.6	77.6302	4,287.6	78.8241	4,287.6	75.2467	4,287.6	77.0035	4,287.6	72.2207	4,287.6	75.23	4,287.6	69.242	4,287.6	72.9352	4,287.6	68.7537	4,287.6	70.5735	4,287.6	66.659	4,287.6	70.0475	4,287.6	67.1834	4,287.6	66.1437	4,287.6	65.2668	4,287.6	68.6621	4,287.6	67.8216	4,287.6	64.7649	4,287.6	67.2188	4,287.6	68.1966	4,287.6	65.557	4,287.6	63.8196	4,287.6	67.6672
4,438.48	82.9872	4,438.48	82.4289	4,438.48	83.8942	4,438.48	83.3705	4,438.48	83.3933	4,438.48	82.5715	4,438.48	82.9032	4,438.48	81.159	4,438.48	82.8023	4,438.48	81.202	4,438.48	82.2264	4,438.48	80.9943	4,438.48	80.7683	4,438.48	78.5904	4,438.48	78.6809	4,438.48	76.005	4,438.48	76.9336	4,438.48	74.975	4,438.48	74.8668	4,438.48	72.2281	4,438.48	73.3257	4,438.48	67.0629	4,438.48	70.8512	4,438.48	68.488	4,438.48	68.8941	4,438.48	67.3523	4,438.48	66.6358	4,438.48	65.8979	4,438.48	62.5069	4,438.48	63.5558	4,438.48	65.2363	4,438.48	66.4381	4,438.48	67.7886	4,438.48	65.0791	4,438.48	64.9484	4,438.48	66.7987
4,595.21	83.6576	4,595.21	83.5473	4,595.21	83.5151	4,595.21	82.648	4,595.21	83.2863	4,595.21	81.896	4,595.21	83.3744	4,595.21	82.0203	4,595.21	82.5791	4,595.21	80.9907	4,595.21	81.1735	4,595.21	78.3491	4,595.21	80.2671	4,595.21	76.9185	4,595.21	78.8392	4,595.21	75.4237	4,595.21	75.6813	4,595.21	73.026	4,595.21	74.8012	4,595.21	71.6974	4,595.21	72.7853	4,595.21	69.8941	4,595.21	69.5419	4,595.21	67.4179	4,595.21	69.4556	4,595.21	66.8288	4,595.21	67.9333	4,595.21	65.606	4,595.21	67.6918	4,595.21	64.8755	4,595.21	63.6203	4,595.21	67.302	4,595.21	66.7283	4,595.21	62.8386	4,595.21	65.6659	4,595.21	66.1816
4,756.35	83.5979	4,756.35	83.0901	4,756.35	82.9691	4,756.35	82.2149	4,756.35	82.6306	4,756.35	82.3391	4,756.35	81.5534	4,756.35	82.2968	4,756.35	81.0285	4,756.35	80.695	4,756.35	81.2723	4,756.35	79.5868	4,756.35	80.0994	4,756.35	78.1048	4,756.35	78.2984	4,756.35	76.0021	4,756.35	77.5521	4,756.35	73.4015	4,756.35	75.0643	4,756.35	70.7691	4,756.35	73.0833	4,756.35	69.9748	4,756.35	70.9989	4,756.35	67.7356	4,756.35	68.1796	4,756.35	63.4381	4,756.35	67.4701	4,756.35	65.4883	4,756.35	66.4778	4,756.35	63.848	4,756.35	62.7833	4,756.35	66.9658	4,756.35	66.2802	4,756.35	63.2818	4,756.35	63.6896	4,756.35	68.9519
4,924.8	84.1805	4,924.8	82.7754	4,924.8	84.3729	4,924.8	81.8588	4,924.8	82.3594	4,924.8	81.2452	4,924.8	81.6948	4,924.8	80.8055	4,924.8	81.9446	4,924.8	80.5457	4,924.8	81.7592	4,924.8	79.7892	4,924.8	80.89	4,924.8	77.2863	4,924.8	79.0037	4,924.8	73.9205	4,924.8	76.2785	4,924.8	72.9815	4,924.8	74.2728	4,924.8	71.6551	4,924.8	71.5546	4,924.8	65.0943	4,924.8	68.6078	4,924.8	68.7486	4,924.8	68.3481	4,924.8	68.3196	4,924.8	66.1591	4,924.8	64.815	4,924.8	63.1046	4,924.8	62.0923	4,924.8	61.6088	4,924.8	67.7191	4,924.8	65.8432	4,924.8	62.3146	4,924.8	65.5036	4,924.8	65.8471
5,097.66	84.3744	5,097.66	83.4604	5,097.66	83.5292	5,097.66	80.9307	5,097.66	82.5479	5,097.66	79.9027	5,097.66	81.2915	5,097.66	80.4829	5,097.66	81.2631	5,097.66	80.5738	5,097.66	80.9441	5,097.66	79.1457	5,097.66	79.5026	5,097.66	76.5543	5,097.66	78.1955	5,097.66	74.7417	5,097.66	76.6319	5,097.66	73.0595	5,097.66	73.9667	5,097.66	70.2163	5,097.66	72.6662	5,097.66	69.516	5,097.66	70.8327	5,097.66	66.2663	5,097.66	67.4912	5,097.66	66.1302	5,097.66	66.2939	5,097.66	65.5348	5,097.66	65.5762	5,097.66	61.0723	5,097.66	63.5831	5,097.66	65.7568	5,097.66	63.7455	5,097.66	60.761	5,097.66	63.6982	5,097.66	63.5308
5,277.83	84.4244	5,277.83	83.1062	5,277.83	84.0137	5,277.83	81.9117	5,277.83	81.919	5,277.83	81.3426	5,277.83	80.6155	5,277.83	81.1305	5,277.83	80.5539	5,277.83	80.1076	5,277.83	80.8924	5,277.83	78.4512	5,277.83	79.7445	5,277.83	76.6108	5,277.83	77.4573	5,277.83	74.956	5,277.83	75.4421	5,277.83	70.7415	5,277.83	73.4641	5,277.83	69.6995	5,277.83	71.0744	5,277.83	68.5599	5,277.83	68.7213	5,277.83	65.4822	5,277.83	65.6819	5,277.83	61.1494	5,277.83	66.2271	5,277.83	63.9255	5,277.83	62.9738	5,277.83	58.3521	5,277.83	59.6622	5,277.83	63.66	5,277.83	59.8568	5,277.83	59.4925	5,277.83	62.6032	5,277.83	64.2762
5,463.87	84.0615	5,463.87	82.6833	5,463.87	83.6823	5,463.87	80.6012	5,463.87	81.6373	5,463.87	79.6845	5,463.87	80.6057	5,463.87	79.5113	5,463.87	80.9213	5,463.87	79.5323	5,463.87	80.3885	5,463.87	78.1649	5,463.87	79.6075	5,463.87	75.8867	5,463.87	77.9549	5,463.87	71.5876	5,463.87	74.7942	5,463.87	71.2929	5,463.87	72.5954	5,463.87	70.0583	5,463.87	70.407	5,463.87	65.8408	5,463.87	68.6276	5,463.87	66.6648	5,463.87	66.517	5,463.87	62.4059	5,463.87	64.1876	5,463.87	60.7396	5,463.87	65.3178	5,463.87	60.4318	5,463.87	62.8682	5,463.87	66.0131	5,463.87	61.9192	5,463.87	59.0745	5,463.87	63.7822	5,463.87	64.3278
5,657.23	83.8072	5,657.23	82.6822	5,657.23	83.1255	5,657.23	81.2161	5,657.23	81.802	5,657.23	80.8483	5,657.23	80.8619	5,657.23	80.7448	5,657.23	80.4214	5,657.23	79.5953	5,657.23	80.2804	5,657.23	78.0043	5,657.23	78.966	5,657.23	75.1888	5,657.23	76.8847	5,657.23	73.1602	5,657.23	74.4625	5,657.23	69.299	5,657.23	71.2229	5,657.23	66.8856	5,657.23	70.6059	5,657.23	66.4428	5,657.23	67.824	5,657.23	62.1371	5,657.23	63.1824	5,657.23	61.7351	5,657.23	62.9071	5,657.23	58.6206	5,657.23	60.5593	5,657.23	54.8847	5,657.23	60.7499	5,657.23	63.9551	5,657.23	60.6294	5,657.23	54.2991	5,657.23	62.4494	5,657.23	61.2703
5,856.45	83.3746	5,856.45	82.6259	5,856.45	83.2282	5,856.45	81.9855	5,856.45	82.0754	5,856.45	81.8899	5,856.45	81.1684	5,856.45	80.8402	5,856.45	80.8557	5,856.45	79.0809	5,856.45	79.5251	5,856.45	76.0543	5,856.45	77.8773	5,856.45	73.9162	5,856.45	75.6936	5,856.45	70.8497	5,856.45	71.2464	5,856.45	67.6801	5,856.45	69.1957	5,856.45	64.1989	5,856.45	66.4474	5,856.45	63.0128	5,856.45	63.8311	5,856.45	59.7419	5,856.45	62.2026	5,856.45	58.3726	5,856.45	61.2189	5,856.45	56.4647	5,856.45	56.9126	5,856.45	59.9673	5,856.45	55.2147	5,856.45	61.9441	5,856.45	55.2319	5,856.45	58.5562	5,856.45	63.0511	5,856.45	60.7393
6,062.99	82.7743	6,062.99	82.3205	6,062.99	82.703	6,062.99	81.9586	6,062.99	82.5779	6,062.99	81.6146	6,062.99	82.2754	6,062.99	80.6276	6,062.99	81.7105	6,062.99	78.5469	6,062.99	79.9801	6,062.99	76.2794	6,062.99	77.195	6,062.99	72.7063	6,062.99	73.4211	6,062.99	69.9621	6,062.99	71.25	6,062.99	69.1454	6,062.99	69.108	6,062.99	65.4023	6,062.99	66.4788	6,062.99	62.2618	6,062.99	63.6052	6,062.99	59.7228	6,062.99	61.1096	6,062.99	59.0712	6,062.99	58.4948	6,062.99	56.4021	6,062.99	56.8069	6,062.99	56.0907	6,062.99	53.7488	6,062.99	61.1537	6,062.99	57.259	6,062.99	57.3159	6,062.99	57.221	6,062.99	61.2216
6,276.86	82.7685	6,276.86	82.1713	6,276.86	83.0565	6,276.86	82.0147	6,276.86	82.5143	6,276.86	82.0071	6,276.86	81.9176	6,276.86	80.568	6,276.86	80.9985	6,276.86	78.5333	6,276.86	79.1474	6,276.86	76.0396	6,276.86	76.8585	6,276.86	74.5856	6,276.86	74.6213	6,276.86	72.4966	6,276.86	71.8974	6,276.86	69.1758	6,276.86	69.269	6,276.86	66.4638	6,276.86	66.3384	6,276.86	65.5202	6,276.86	63.9382	6,276.86	62.1103	6,276.86	63.2479	6,276.86	56.7634	6,276.86	61.4929	6,276.86	56.5242	6,276.86	54.3558	6,276.86	55.8308	6,276.86	56.0953	6,276.86	61.2972	6,276.86	53.1688	6,276.86	58.8955	6,276.86	61.4741	6,276.86	61.3001
6,498.05	82.6148	6,498.05	82.597	6,498.05	82.5663	6,498.05	82.2407	6,498.05	82.5098	6,498.05	81.4744	6,498.05	81.8442	6,498.05	80.5074	6,498.05	80.9693	6,498.05	78.993	6,498.05	79.1437	6,498.05	77.3558	6,498.05	77.2097	6,498.05	75.0712	6,498.05	74.9325	6,498.05	72.0887	6,498.05	73.2512	6,498.05	70.6539	6,498.05	71.2512	6,498.05	68.1648	6,498.05	67.6481	6,498.05	65.3604	6,498.05	66.5024	6,498.05	62.3501	6,498.05	64.3405	6,498.05	61.0414	6,498.05	62.9936	6,498.05	55.0187	6,498.05	60.4393	6,498.05	57.8197	6,498.05	57.1463	6,498.05	60.5708	6,498.05	54.6024	6,498.05	58.8079	6,498.05	55.1788	6,498.05	60.8732
6,726.56	82.9012	6,726.56	82.641	6,726.56	83.1091	6,726.56	82.0377	6,726.56	82.5634	6,726.56	81.476	6,726.56	81.7593	6,726.56	80.2301	6,726.56	80.9346	6,726.56	78.869	6,726.56	79.3184	6,726.56	77.5073	6,726.56	78.0104	6,726.56	75.4734	6,726.56	76.0986	6,726.56	72.339	6,726.56	74.7902	6,726.56	70.1219	6,726.56	71.4962	6,726.56	67.3723	6,726.56	68.1995	6,726.56	65.4317	6,726.56	65.9968	6,726.56	64.4054	6,726.56	65.0441	6,726.56	58.8539	6,726.56	63.2312	6,726.56	60.6569	6,726.56	60.1724	6,726.56	55.8023	6,726.56	57.138	6,726.56	61.3754	6,726.56	53.559	6,726.56	59.8939	6,726.56	59.5039	6,726.56	60.685
6,963.87	82.3674	6,963.87	82.5182	6,963.87	82.4588	6,963.87	81.5122	6,963.87	82.3318	6,963.87	80.0632	6,963.87	81.0609	6,963.87	79.133	6,963.87	80.1469	6,963.87	78.8447	6,963.87	79.2006	6,963.87	77.3652	6,963.87	78.298	6,963.87	75.0591	6,963.87	76.6897	6,963.87	72.0496	6,963.87	74.2273	6,963.87	69.9251	6,963.87	71.5471	6,963.87	66.8299	6,963.87	68.2319	6,963.87	65.8138	6,963.87	65.9071	6,963.87	63.6666	6,963.87	64.7525	6,963.87	60.6665	6,963.87	63.0365	6,963.87	55.0947	6,963.87	59.3471	6,963.87	49.6605	6,963.87	58.8842	6,963.87	59.5811	6,963.87	55.6485	6,963.87	55.6246	6,963.87	58.1144	6,963.87	59.2922
7,209.96	81.8141	7,209.96	81.7784	7,209.96	82.2622	7,209.96	80.9269	7,209.96	81.9112	7,209.96	79.4059	7,209.96	80.6645	7,209.96	78.6292	7,209.96	79.823	7,209.96	78.262	7,209.96	79.3494	7,209.96	76.9025	7,209.96	78.391	7,209.96	74.4649	7,209.96	76.0637	7,209.96	71.6659	7,209.96	73.6795	7,209.96	68.5819	7,209.96	70.8289	7,209.96	65.5262	7,209.96	68.1323	7,209.96	64.2012	7,209.96	65.3073	7,209.96	62.0231	7,209.96	63.1203	7,209.96	59.5304	7,209.96	62.4445	7,209.96	56.2119	7,209.96	60.8452	7,209.96	54.3659	7,209.96	54.0737	7,209.96	57.9476	7,209.96	52.7953	7,209.96	56.7588	7,209.96	56.7441	7,209.96	58.3957
7,464.84	81.4932	7,464.84	81.7072	7,464.84	81.5588	7,464.84	80.1298	7,464.84	81.3553	7,464.84	78.3594	7,464.84	79.4496	7,464.84	77.9706	7,464.84	78.7467	7,464.84	77.8476	7,464.84	78.5143	7,464.84	76.2267	7,464.84	77.6693	7,464.84	73.635	7,464.84	75.6123	7,464.84	70.2867	7,464.84	72.6944	7,464.84	67.5237	7,464.84	69.6651	7,464.84	63.3391	7,464.84	67.6934	7,464.84	63.5897	7,464.84	64.4447	7,464.84	59.9376	7,464.84	61.5659	7,464.84	57.2207	7,464.84	61.149	7,464.84	53.1215	7,464.84	59.1866	7,464.84	54.0384	7,464.84	55.7152	7,464.84	57.4071	7,464.84	52.5038	7,464.84	53.3066	7,464.84	58.5345	7,464.84	56.9529
7,727.05	81.1698	7,727.05	81.1267	7,727.05	81.552	7,727.05	79.8086	7,727.05	81.3193	7,727.05	78.4356	7,727.05	79.7405	7,727.05	78.1289	7,727.05	79.1758	7,727.05	77.3319	7,727.05	78.6026	7,727.05	74.9997	7,727.05	77.6858	7,727.05	72.602	7,727.05	75.4403	7,727.05	70.205	7,727.05	71.9986	7,727.05	67.0822	7,727.05	69.6246	7,727.05	64.4771	7,727.05	66.8328	7,727.05	61.2732	7,727.05	62.1049	7,727.05	61.1006	7,727.05	62.0721	7,727.05	57.5315	7,727.05	58.1935	7,727.05	56.8704	7,727.05	58.6812	7,727.05	52.9217	7,727.05	55.1892	7,727.05	55.5197	7,727.05	47.2321	7,727.05	52.5763	7,727.05	57.0937	7,727.05	56.0284
7,999.51	81.6658	7,999.51	81.5018	7,999.51	82.0264	7,999.51	80.072	7,999.51	81.4632	7,999.51	78.7951	7,999.51	79.8307	7,999.51	78.4266	7,999.51	79.5469	7,999.51	77.5766	7,999.51	78.9507	7,999.51	75.2864	7,999.51	77.7399	7,999.51	72.5124	7,999.51	74.9887	7,999.51	68.2449	7,999.51	72.0618	7,999.51	66.2292	7,999.51	69.3371	7,999.51	64.0122	7,999.51	66.3083	7,999.51	61.6306	7,999.51	63.3739	7,999.51	60.1083	7,999.51	61.9457	7,999.51	57.6873	7,999.51	59.4506	7,999.51	55.6696	7,999.51	58.5234	7,999.51	48.2018	7,999.51	57.0925	7,999.51	56.0247	7,999.51	48.8226	7,999.51	50.2663	7,999.51	54.8547	7,999.51	55.0551
8,282.23	82.4047	8,282.23	82.0762	8,282.23	82.7253	8,282.23	80.4585	8,282.23	82.2231	8,282.23	79.4979	8,282.23	80.8229	8,282.23	79.0433	8,282.23	80.4132	8,282.23	77.4757	8,282.23	79.2825	8,282.23	74.9868	8,282.23	77.8073	8,282.23	71.7994	8,282.23	75.1649	8,282.23	68.4862	8,282.23	72.1783	8,282.23	66.9846	8,282.23	69.7981	8,282.23	64.4154	8,282.23	65.6915	8,282.23	61.3391	8,282.23	63.3592	8,282.23	60.2122	8,282.23	63.1273	8,282.23	58.1702	8,282.23	58.7321	8,282.23	56.4853	8,282.23	58.6705	8,282.23	46.9271	8,282.23	57.0524	8,282.23	51.4051	8,282.23	50.5833	8,282.23	50.8397	8,282.23	55.4471	8,282.23	54.2456
8,573.73	82.8641	8,573.73	82.3676	8,573.73	83.0433	8,573.73	80.9654	8,573.73	82.4958	8,573.73	79.9105	8,573.73	81.1533	8,573.73	78.8714	8,573.73	80.6842	8,573.73	77.3993	8,573.73	79.5338	8,573.73	75.6466	8,573.73	78.0236	8,573.73	72.0276	8,573.73	75.3908	8,573.73	68.5947	8,573.73	72.4428	8,573.73	66.7205	8,573.73	69.625	8,573.73	63.3968	8,573.73	65.7133	8,573.73	60.5471	8,573.73	63.2883	8,573.73	60.8204	8,573.73	62.3642	8,573.73	59.9563	8,573.73	60.6221	8,573.73	56.4777	8,573.73	59.8245	8,573.73	45.6446	8,573.73	58.6585	8,573.73	55.7678	8,573.73	49.6239	8,573.73	49.7222	8,573.73	56.5096	8,573.73	54.4373
8,876.95	82.8429	8,876.95	82.2012	8,876.95	83.0458	8,876.95	80.8318	8,876.95	82.3686	8,876.95	79.6633	8,876.95	81.0693	8,876.95	78.2885	8,876.95	80.2105	8,876.95	76.9088	8,876.95	78.62	8,876.95	75.3464	8,876.95	77.6035	8,876.95	72.1983	8,876.95	75.2131	8,876.95	69.5849	8,876.95	72.0137	8,876.95	65.4367	8,876.95	69.0724	8,876.95	61.8531	8,876.95	65.3662	8,876.95	60.6375	8,876.95	62.8577	8,876.95	60.201	8,876.95	62.7998	8,876.95	59.8377	8,876.95	59.1417	8,876.95	57.4141	8,876.95	59.2899	8,876.95	51.5743	8,876.95	58.6157	8,876.95	51.5258	8,876.95	50.8567	8,876.95	50.6438	8,876.95	55.5312	8,876.95	54.8114
9,188.96	82.7115	9,188.96	82.0277	9,188.96	82.6894	9,188.96	81.03	9,188.96	81.8884	9,188.96	79.6178	9,188.96	80.7176	9,188.96	77.6466	9,188.96	79.6103	9,188.96	76.2985	9,188.96	77.8637	9,188.96	74.9887	9,188.96	77.1393	9,188.96	71.6303	9,188.96	74.6396	9,188.96	69.0561	9,188.96	71.057	9,188.96	65.0315	9,188.96	67.7979	9,188.96	62.2377	9,188.96	64.1634	9,188.96	59.0716	9,188.96	62.2631	9,188.96	58.4253	9,188.96	60.7519	9,188.96	59.0004	9,188.96	58.9918	9,188.96	56.1307	9,188.96	58.3347	9,188.96	50.7091	9,188.96	56.2706	9,188.96	54.1495	9,188.96	47.6994	9,188.96	51.0676	9,188.96	56.0222	9,188.96	52.8313
9,514.16	82.7913	9,514.16	81.9913	9,514.16	82.7479	9,514.16	81.1988	9,514.16	81.6797	9,514.16	79.5281	9,514.16	80.7092	9,514.16	77.5066	9,514.16	79.1892	9,514.16	75.9827	9,514.16	77.3316	9,514.16	74.6349	9,514.16	76.4985	9,514.16	71.4656	9,514.16	73.8168	9,514.16	68.4426	9,514.16	70.1166	9,514.16	63.5518	9,514.16	66.5349	9,514.16	61.8067	9,514.16	63.205	9,514.16	58.7719	9,514.16	62.5057	9,514.16	58.7628	9,514.16	59.4688	9,514.16	58.5398	9,514.16	57.8411	9,514.16	56.1861	9,514.16	58.8549	9,514.16	51.7328	9,514.16	54.8252	9,514.16	46.4372	9,514.16	46.6776	9,514.16	52.4447	9,514.16	53.6545	9,514.16	51.581
9,849.61	83.0864	9,849.61	82.2489	9,849.61	82.8437	9,849.61	81.4813	9,849.61	81.779	9,849.61	79.3839	9,849.61	80.8409	9,849.61	77.5036	9,849.61	78.791	9,849.61	76.1308	9,849.61	77.0924	9,849.61	75.0066	9,849.61	75.9498	9,849.61	71.4616	9,849.61	72.9341	9,849.61	68.4271	9,849.61	69.2482	9,849.61	64.2868	9,849.61	66.0251	9,849.61	62.8374	9,849.61	62.4153	9,849.61	58.6769	9,849.61	61.2945	9,849.61	58.5656	9,849.61	57.3252	9,849.61	57.0627	9,849.61	56.6553	9,849.61	52.9331	9,849.61	59.702	9,849.61	49.574	9,849.61	53.9117	9,849.61	47.4166	9,849.61	42.403	9,849.61	49.8736	9,849.61	52.7831	9,849.61	48.736
10,196.8	83.4233	10,196.8	82.7015	10,196.8	83.0941	10,196.8	81.8204	10,196.8	82.122	10,196.8	79.5926	10,196.8	81.0495	10,196.8	77.8337	10,196.8	78.6095	10,196.8	76.1041	10,196.8	77.1415	10,196.8	75.0513	10,196.8	75.5294	10,196.8	71.1761	10,196.8	72.836	10,196.8	68.3616	10,196.8	68.8978	10,196.8	64.5389	10,196.8	65.8788	10,196.8	63.1391	10,196.8	62.0713	10,196.8	58.9318	10,196.8	60.6033	10,196.8	59.6658	10,196.8	57.5841	10,196.8	56.6528	10,196.8	54.3685	10,196.8	55.0487	10,196.8	58.1973	10,196.8	46.752	10,196.8	52.919	10,196.8	48.2092	10,196.8	47.977	10,196.8	44.5596	10,196.8	49.3542	10,196.8	45.8563
10,555.7	83.4424	10,555.7	82.8611	10,555.7	83.1434	10,555.7	82.0576	10,555.7	82.3859	10,555.7	79.7605	10,555.7	81.1128	10,555.7	78.1866	10,555.7	78.7005	10,555.7	75.8839	10,555.7	77.2703	10,555.7	74.8176	10,555.7	75.4206	10,555.7	71.3336	10,555.7	72.8992	10,555.7	69.0285	10,555.7	69.4719	10,555.7	64.2413	10,555.7	65.5746	10,555.7	62.3224	10,555.7	62.8028	10,555.7	58.14	10,555.7	60.1079	10,555.7	59.0055	10,555.7	57.2809	10,555.7	56.3738	10,555.7	56.331	10,555.7	55.4952	10,555.7	57.1612	10,555.7	45.0249	10,555.7	51.6532	10,555.7	47.7427	10,555.7	49.5264	10,555.7	47.1799	10,555.7	47.4522	10,555.7	41.3742
10,927.7	83.2117	10,927.7	82.7491	10,927.7	82.9839	10,927.7	81.8774	10,927.7	82.3806	10,927.7	79.5246	10,927.7	80.8689	10,927.7	77.9102	10,927.7	78.6341	10,927.7	75.2175	10,927.7	76.9989	10,927.7	74.1046	10,927.7	75.1623	10,927.7	71.0983	10,927.7	72.8357	10,927.7	68.969	10,927.7	69.302	10,927.7	63.8163	10,927.7	65.287	10,927.7	61.9836	10,927.7	62.2721	10,927.7	57.6439	10,927.7	59.946	10,927.7	57.0141	10,927.7	56.7198	10,927.7	54.0936	10,927.7	55.8967	10,927.7	55.1717	10,927.7	56.5064	10,927.7	44.2123	10,927.7	51.4677	10,927.7	44.4988	10,927.7	49.2474	10,927.7	47.5541	10,927.7	49.9961	10,927.7	45.3762
11,313	82.8406	11,313	82.3996	11,313	82.8855	11,313	81.4234	11,313	82.0891	11,313	79.174	11,313	80.44	11,313	77.2102	11,313	78.4239	11,313	74.6885	11,313	76.0777	11,313	73.5534	11,313	74.204	11,313	69.8846	11,313	71.7222	11,313	66.773	11,313	67.8662	11,313	62.636	11,313	63.7087	11,313	61.4229	11,313	59.8883	11,313	56.6708	11,313	58.2315	11,313	57.5214	11,313	55.4317	11,313	54.5321	11,313	54.1553	11,313	53.66	11,313	55.8076	11,313	43.0238	11,313	48.8977	11,313	40.2604	11,313	48.6811	11,313	48.1138	11,313	49.8946	11,313	47.7877
11,712.9	82.475	11,712.9	82.097	11,712.9	82.5705	11,712.9	80.9174	11,712.9	81.615	11,712.9	78.5332	11,712.9	79.7742	11,712.9	76.2861	11,712.9	77.6292	11,712.9	73.6207	11,712.9	74.3582	11,712.9	72.412	11,712.9	71.9544	11,712.9	67.4826	11,712.9	68.3727	11,712.9	64.4846	11,712.9	64.6	11,712.9	60.6246	11,712.9	59.8423	11,712.9	57.7724	11,712.9	55.1584	11,712.9	54.9731	11,712.9	54.349	11,712.9	55.5227	11,712.9	50.3965	11,712.9	55.3113	11,712.9	50.7703	11,712.9	50.4387	11,712.9	52.326	11,712.9	39.1541	11,712.9	44.4153	11,712.9	37.9194	11,712.9	46.7589	11,712.9	50.573	11,712.9	47.3508	11,712.9	45.1401
12,126	82.4643	12,126	82.0236	12,126	82.3619	12,126	80.4978	12,126	81.2602	12,126	77.8974	12,126	79.2851	12,126	75.3401	12,126	76.6563	12,126	72.0283	12,126	73.4012	12,126	70.792	12,126	70.2979	12,126	66.4864	12,126	65.5946	12,126	64.2331	12,126	61.6788	12,126	58.5745	12,126	57.2085	12,126	55.2928	12,126	54.6378	12,126	55.1657	12,126	51.9547	12,126	53.9014	12,126	46.4056	12,126	53.559	12,126	51.7882	12,126	49.3549	12,126	51.493	12,126	47.3254	12,126	42.0284	12,126	42.0599	12,126	42.3273	12,126	44.1325	12,126	44.2099	12,126	46.0784
12,553.7	82.6936	12,553.7	82.1384	12,553.7	82.4521	12,553.7	80.2984	12,553.7	81.3495	12,553.7	77.7105	12,553.7	79.0819	12,553.7	74.4819	12,553.7	76.0907	12,553.7	72.5314	12,553.7	73.3363	12,553.7	70.8842	12,553.7	70.1361	12,553.7	68.0449	12,553.7	67.0499	12,553.7	65.7122	12,553.7	64.514	12,553.7	61.3942	12,553.7	59.7649	12,553.7	58.2542	12,553.7	57.8297	12,553.7	56.4774	12,553.7	54.9971	12,553.7	55.1689	12,553.7	48.1185	12,553.7	53.0728	12,553.7	53.2166	12,553.7	49.4039	12,553.7	53.3242	12,553.7	47.0016	12,553.7	47.2054	12,553.7	43.9158	12,553.7	45.0849	12,553.7	40.5797	12,553.7	42.3764	12,553.7	46.435
12,996.1	82.4821	12,996.1	81.8229	12,996.1	82.252	12,996.1	80.3045	12,996.1	81.1863	12,996.1	77.7506	12,996.1	78.8487	12,996.1	75.3277	12,996.1	75.916	12,996.1	73.3427	12,996.1	73.5813	12,996.1	72.5088	12,996.1	70.4646	12,996.1	69.5108	12,996.1	68.9784	12,996.1	67.6767	12,996.1	66.9321	12,996.1	62.2363	12,996.1	62.1122	12,996.1	58.6124	12,996.1	59.7395	12,996.1	58.7397	12,996.1	57.1104	12,996.1	56.371	12,996.1	52.8727	12,996.1	54.6292	12,996.1	55.4771	12,996.1	50.9535	12,996.1	53.2954	12,996.1	47.1872	12,996.1	47.7018	12,996.1	44.0054	12,996.1	46.7924	12,996.1	40.2149	12,996.1	38.2571	12,996.1	43.3836
13,454.6	82.256	13,454.6	81.6202	13,454.6	82.0608	13,454.6	80.3695	13,454.6	81.0361	13,454.6	77.9259	13,454.6	78.7121	13,454.6	75.9246	13,454.6	76.0642	13,454.6	73.689	13,454.6	73.5589	13,454.6	72.8348	13,454.6	70.8601	13,454.6	70.0487	13,454.6	69.6383	13,454.6	67.5022	13,454.6	67.3716	13,454.6	62.0478	13,454.6	62.452	13,454.6	57.4434	13,454.6	60.1667	13,454.6	59.2282	13,454.6	56.5498	13,454.6	55.9092	13,454.6	53.1441	13,454.6	52.8384	13,454.6	55.1989	13,454.6	49.9252	13,454.6	51.7648	13,454.6	45.9646	13,454.6	46.3985	13,454.6	40.5933	13,454.6	45.113	13,454.6	39.9472	13,454.6	23.2683	13,454.6	36.1096
13,929.2	82.1153	13,929.2	81.5439	13,929.2	81.8497	13,929.2	80.2976	13,929.2	80.8285	13,929.2	77.9188	13,929.2	78.4787	13,929.2	75.8303	13,929.2	75.9821	13,929.2	73.7206	13,929.2	72.8436	13,929.2	72.3105	13,929.2	70.8991	13,929.2	69.1933	13,929.2	68.7337	13,929.2	66.4873	13,929.2	66.3999	13,929.2	61.2686	13,929.2	61.7575	13,929.2	55.8085	13,929.2	58.8999	13,929.2	58.7238	13,929.2	54.4542	13,929.2	53.8301	13,929.2	52.4196	13,929.2	52.0195	13,929.2	52.8512	13,929.2	47.6334	13,929.2	49.0039	13,929.2	43.862	13,929.2	44.6436	13,929.2	37.7764	13,929.2	41.6132	13,929.2	40.9197	13,929.2	34.7226	13,929.2	41.1806
14,419.9	82.0136	14,419.9	81.3899	14,419.9	81.7397	14,419.9	80.0618	14,419.9	80.64	14,419.9	77.7666	14,419.9	78.2133	14,419.9	75.3431	14,419.9	75.5875	14,419.9	73.0684	14,419.9	71.9729	14,419.9	70.7605	14,419.9	70.4698	14,419.9	67.9802	14,419.9	67.2704	14,419.9	64.9596	14,419.9	65.2239	14,419.9	60.5847	14,419.9	61.3085	14,419.9	54.9269	14,419.9	57.5013	14,419.9	57.0731	14,419.9	52.7976	14,419.9	52.4237	14,419.9	51.6367	14,419.9	50.924	14,419.9	51.587	14,419.9	44.6152	14,419.9	47.338	14,419.9	44.8536	14,419.9	43.8589	14,419.9	43.7446	14,419.9	41.7893	14,419.9	40.2047	14,419.9	28.1551	14,419.9	43.3829
14,928.2	82.0698	14,928.2	81.3726	14,928.2	81.8117	14,928.2	80.0338	14,928.2	80.6222	14,928.2	77.527	14,928.2	78.1474	14,928.2	74.6396	14,928.2	75.2027	14,928.2	72.0289	14,928.2	71.5108	14,928.2	69.3773	14,928.2	69.5051	14,928.2	66.6388	14,928.2	65.934	14,928.2	63.4073	14,928.2	64.1713	14,928.2	59.6348	14,928.2	60.5534	14,928.2	53.4503	14,928.2	55.9956	14,928.2	54.9919	14,928.2	51.0749	14,928.2	50.6177	14,928.2	50.4688	14,928.2	47.7403	14,928.2	50.972	14,928.2	40.6734	14,928.2	46.7226	14,928.2	42.7713	14,928.2	45.6981	14,928.2	43.8202	14,928.2	38.1722	14,928.2	38.2913	14,928.2	24.6556	14,928.2	43.9023
15,455.6	82.5261	15,455.6	81.7858	15,455.6	82.2408	15,455.6	80.3793	15,455.6	80.9063	15,455.6	77.5175	15,455.6	78.3732	15,455.6	74.6386	15,455.6	75.2518	15,455.6	71.2592	15,455.6	71.5309	15,455.6	69.0799	15,455.6	68.9312	15,455.6	65.8876	15,455.6	65.7505	15,455.6	62.6188	15,455.6	63.8359	15,455.6	58.0312	15,455.6	59.9175	15,455.6	51.8508	15,455.6	55.5505	15,455.6	54.8507	15,455.6	50.7983	15,455.6	50.3355	15,455.6	49.5106	15,455.6	46.0041	15,455.6	49.6515	15,455.6	41.0339	15,455.6	44.2756	15,455.6	39.8205	15,455.6	44.9864	15,455.6	43.0076	15,455.6	38.7601	15,455.6	39.7244	15,455.6	35.5574	15,455.6	43.2239
16,000.5	82.5534	16,000.5	81.8593	16,000.5	82.1563	16,000.5	80.499	16,000.5	80.7893	16,000.5	77.5798	16,000.5	78.3271	16,000.5	74.7756	16,000.5	75.1962	16,000.5	71.0932	16,000.5	71.4794	16,000.5	69.0404	16,000.5	68.5444	16,000.5	66.0209	16,000.5	64.7698	16,000.5	62.0243	16,000.5	62.3625	16,000.5	58.8928	16,000.5	58.8219	16,000.5	53.2905	16,000.5	54.517	16,000.5	55.2832	16,000.5	48.8386	16,000.5	50.1271	16,000.5	49.4804	16,000.5	45.0296	16,000.5	48.1556	16,000.5	36.6627	16,000.5	42.4257	16,000.5	42.4965	16,000.5	42.7677	16,000.5	44.6958	16,000.5	36.6756	16,000.5	40.8214	16,000.5	37.5312	16,000.5	41.6996
16,564.5	81.977	16,564.5	81.2544	16,564.5	81.5298	16,564.5	79.852	16,564.5	80.1302	16,564.5	76.6272	16,564.5	77.4645	16,564.5	73.5251	16,564.5	74.0903	16,564.5	69.5491	16,564.5	69.6893	16,564.5	66.9347	16,564.5	66.4424	16,564.5	63.6622	16,564.5	61.7591	16,564.5	59.7151	16,564.5	60.0376	16,564.5	57.7094	16,564.5	57.7058	16,564.5	51.925	16,564.5	52.2998	16,564.5	53.274	16,564.5	47.8629	16,564.5	48.9762	16,564.5	48.2644	16,564.5	39.0156	16,564.5	46.9636	16,564.5	39.5562	16,564.5	42.6595	16,564.5	38.688	16,564.5	41.2273	16,564.5	45.0182	16,564.5	31.8484	16,564.5	38.7004	16,564.5	42.2522	16,564.5	40.2697
17,148.9	80.5607	17,148.9	79.6502	17,148.9	80.1352	17,148.9	77.922	17,148.9	78.625	17,148.9	74.3391	17,148.9	75.8406	17,148.9	70.6859	17,148.9	72.2783	17,148.9	66.503	17,148.9	67.8411	17,148.9	64.3835	17,148.9	64.2165	17,148.9	62.4485	17,148.9	61.0432	17,148.9	59.9019	17,148.9	59.98	17,148.9	56.5752	17,148.9	57.4282	17,148.9	46.9851	17,148.9	52.3904	17,148.9	53.5511	17,148.9	47.0261	17,148.9	48.6791	17,148.9	47.3015	17,148.9	39.2658	17,148.9	46.6522	17,148.9	44.109	17,148.9	43.362	17,148.9	35.4708	17,148.9	40.0745	17,148.9	43.675	17,148.9	30.7944	17,148.9	40.9154	17,148.9	43.2284	17,148.9	40.0498
17,752.4	82.5349	17,752.4	81.4017	17,752.4	82.0936	17,752.4	79.3253	17,752.4	80.3314	17,752.4	75.2141	17,752.4	77.3011	17,752.4	71.4327	17,752.4	73.2479	17,752.4	66.568	17,752.4	68.2242	17,752.4	64.5061	17,752.4	62.7901	17,752.4	61.4774	17,752.4	59.1795	17,752.4	58.0376	17,752.4	58.1991	17,752.4	54.3112	17,752.4	55.1216	17,752.4	44.5887	17,752.4	51.334	17,752.4	52.749	17,752.4	44.7283	17,752.4	45.9734	17,752.4	45.0235	17,752.4	39.6808	17,752.4	44.3467	17,752.4	43.6477	17,752.4	39.8006	17,752.4	40.0057	17,752.4	40.2973	17,752.4	42.3613	17,752.4	32.4933	17,752.4	40.9417	17,752.4	42.3468	17,752.4	30.0861
18,379.4	82.259	18,379.4	81.0079	18,379.4	81.6955	18,379.4	78.3414	18,379.4	79.6374	18,379.4	73.3296	18,379.4	75.8858	18,379.4	68.1184	18,379.4	70.5886	18,379.4	60.523	18,379.4	63.0994	18,379.4	57.7214	18,379.4	52.894	18,379.4	54.0383	18,379.4	53.2781	18,379.4	49.4745	18,379.4	53.8359	18,379.4	48.7931	18,379.4	53.1311	18,379.4	27.3973	18,379.4	48.3688	18,379.4	50.702	18,379.4	43.6022	18,379.4	39.4915	18,379.4	41.7144	18,379.4	35.4038	18,379.4	39.2484	18,379.4	38.4684	18,379.4	34.5992	18,379.4	40.0374	18,379.4	34.0761	18,379.4	39.8573	18,379.4	31.4726	18,379.4	37.4821	18,379.4	42.7408	18,379.4	33.6552
19,026.9	80.9669	19,026.9	79.4583	19,026.9	80.3302	19,026.9	76.3147	19,026.9	78.0371	19,026.9	70.3334	19,026.9	73.7717	19,026.9	63.5962	19,026.9	67.6282	19,026.9	50.1936	19,026.9	54.9191	19,026.9	51.8015	19,026.9	47.7424	19,026.9	56.1053	19,026.9	55.9676	19,026.9	52.7019	19,026.9	53.0855	19,026.9	50.3144	19,026.9	51.8445	19,026.9	43.1265	19,026.9	45.2882	19,026.9	50.1491	19,026.9	41.4802	19,026.9	33.2742	19,026.9	38.3313	19,026.9	38.4285	19,026.9	39.6291	19,026.9	33.035	19,026.9	32.3796	19,026.9	40.6363	19,026.9	19.7614	19,026.9	40.2726	19,026.9	31.4019	19,026.9	34.244	19,026.9	39.8802	19,026.9	36.0823
19,697.8	80.2928	19,697.8	78.4963	19,697.8	79.6281	19,697.8	74.6658	19,697.8	76.9165	19,697.8	67.3267	19,697.8	71.9206	19,697.8	57.7924	19,697.8	63.7769	19,697.8	49.606	19,697.8	47.2898	19,697.8	54.4469	19,697.8	55.5924	19,697.8	57.6033	19,697.8	57.0186	19,697.8	51.9149	19,697.8	51.6683	19,697.8	52.5083	19,697.8	47.2878	19,697.8	47.0623	19,697.8	42.3093	19,697.8	48.4978	19,697.8	38.4598	19,697.8	20.1017	19,697.8	39.2023	19,697.8	38.0626	19,697.8	36.9152	19,697.8	35.2277	19,697.8	33.9428	19,697.8	39.9252	19,697.8	30.4121	19,697.8	33.602	19,697.8	26.5017	19,697.8	35.0817	19,697.8	35.071	19,697.8	37.7595
19,999.5	79.8773	19,999.5	77.9898	19,999.5	79.1827	19,999.5	73.7366	19,999.5	76.3146	19,999.5	65.8514	19,999.5	70.9121	19,999.5	53.8899	19,999.5	61.1851	19,999.5	53.2431	19,999.5	52.9885	19,999.5	55.4642	19,999.5	56.6963	19,999.5	57.1843	19,999.5	57.2664	19,999.5	49.0296	19,999.5	49.3953	19,999.5	53.675	19,999.5	43.2511	19,999.5	47.4755	19,999.5	42.8141	19,999.5	48.0594	19,999.5	38.4069	19,999.5	23.1811	19,999.5	41.3896	19,999.5	36.9015	19,999.5	43.8113	19,999.5	45.2222	19,999.5	47.1255	19,999.5	36.9266	19,999.5	44.9882	19,999.5	20.111	19,999.5	42.4895	19,999.5	38.2724	19,999.5	24.0044	19,999.5	34.9751
