"Vertical Reflections"					
"Floor Reflection"		"Ceiling Reflection"		"Total Vertical Reflection"	
"Frequency [Hz]"	"Sound Pessure Level [dB]  / [2.83V 1m] "	"Frequency [Hz]"	"Sound Pessure Level [dB]  / [2.83V 1m] "	"Frequency [Hz]"	"Sound Pessure Level [dB]  / [2.83V 1m] "
20.5078	40.9211	20.5078	32.3374	20.5078	38.4743
21.9727	41.3945	21.9727	35.2116	21.9727	39.3214
23.4375	43.754	23.4375	37.3633	23.4375	41.6412
24.9023	45.0561	24.9023	40.2133	24.9023	43.2774
26.3672	46.4666	26.3672	42.5157	26.3672	44.9258
27.832	48.2302	27.832	44.6034	27.832	46.7849
29.2969	49.9742	29.2969	46.9738	29.2969	48.7281
30.7617	51.571	30.7617	48.8585	30.7617	50.4232
32.2266	53.1768	32.2266	50.9514	32.2266	52.2051
33.6914	54.8941	33.6914	52.8478	33.6914	53.9904
35.1563	56.387	35.1563	54.6435	35.1563	55.6021
36.6211	58.0468	36.6211	56.3931	36.6211	57.2982
38.0859	59.3818	38.0859	57.9167	38.0859	58.7107
39.5508	60.9261	39.5508	59.725	39.5508	60.3669
41.0156	62.8193	41.0156	61.5786	41.0156	62.2431
42.4805	63.8825	42.4805	62.6801	42.4805	63.3228
43.9453	65.0784	43.9453	63.905	43.9453	64.5312
45.4102	66.3958	45.4102	65.3346	45.4102	65.8975
46.875	67.6776	46.875	66.6875	46.875	67.2107
48.3398	68.9092	48.3398	67.9153	48.3398	68.4406
51.2695	71.074	51.2695	70.1961	51.2695	70.6572
52.7344	72.1833	52.7344	71.3392	52.7344	71.7817
54.1992	73.1733	54.1992	72.3664	54.1992	72.7886
55.6641	74.1138	55.6641	73.3507	55.6641	73.749
58.5938	75.9162	58.5938	75.1868	58.5938	75.5668
60.0586	76.8579	60.0586	76.1341	60.0586	76.5111
62.9883	78.5327	62.9883	77.8796	62.9883	78.2184
64.4531	79.1706	64.4531	78.5538	64.4531	78.8731
67.3828	80.1171	67.3828	79.5236	67.3828	79.8305
68.8477	80.4859	68.8477	79.8909	68.8477	80.1986
71.7773	81.385	71.7773	80.8495	71.7773	81.1255
74.707	81.7298	74.707	81.2602	74.707	81.5013
77.6367	81.7157	77.6367	81.2404	77.6367	81.4846
79.1016	81.8745	79.1016	81.4218	79.1016	81.6541
82.0313	82.2108	82.0313	81.7996	82.0313	82.0101
84.9609	82.0836	84.9609	81.6868	84.9609	81.8897
87.8906	82.1207	87.8906	81.7294	87.8906	81.9295
90.8203	81.9525	90.8203	81.5636	90.8203	81.7624
95.2148	82.0724	95.2148	81.7861	95.2148	81.9316
98.1445	81.9228	98.1445	81.6271	98.1445	81.7775
101.074	82.0923	101.074	81.8264	101.074	81.9614
105.469	81.9185	105.469	81.672	105.469	81.797
108.398	81.9718	108.398	81.7061	108.398	81.841
112.793	82.4098	112.793	82.1677	112.793	82.2904
117.188	82.2498	117.188	82.0095	117.188	82.1313
120.117	82.7065	120.117	82.4803	120.117	82.5948
124.512	82.6158	124.512	82.3651	124.512	82.4922
128.906	82.5675	128.906	82.3244	128.906	82.4476
133.301	82.6903	133.301	82.4595	133.301	82.5764
139.16	82.7153	139.16	82.4892	139.16	82.6037
143.555	82.831	143.555	82.5664	143.555	82.7007
147.949	82.7466	147.949	82.4844	147.949	82.6175
153.809	83.1033	153.809	82.7131	153.809	82.9126
159.668	83.4195	159.668	82.9791	159.668	83.2049
165.527	83.4413	165.527	83.0265	165.527	83.2389
171.387	83.3964	171.387	83.0213	171.387	83.2129
177.246	83.3371	177.246	82.987	177.246	83.1656
183.105	83.3118	183.105	82.9201	183.105	83.1204
188.965	83.417	188.965	82.9307	188.965	83.1806
196.289	83.5667	196.289	83.1015	196.289	83.3403
203.613	83.4856	203.613	82.9967	203.613	83.248
210.938	83.5642	210.938	82.8399	210.938	83.2171
218.262	83.5023	218.262	82.8559	218.262	83.1911
225.586	83.4547	225.586	82.7927	225.586	83.1363
232.91	83.4357	232.91	82.8676	232.91	83.1609
241.699	83.4523	241.699	82.7885	241.699	83.133
250.488	83.4935	250.488	82.5339	250.488	83.0401
259.277	83.6166	259.277	82.8192	259.277	83.2362
268.066	83.1777	268.066	82.2442	268.066	82.736
276.855	83.17	276.855	82.1371	276.855	82.6842
287.109	83.3497	287.109	82.5051	287.109	82.9479
297.363	83.2341	297.363	82.5112	297.363	82.8877
307.617	83.0573	307.617	82.2715	307.617	82.6822
319.336	82.5603	319.336	81.9195	319.336	82.2517
329.59	82.4708	329.59	81.8508	329.59	82.1718
341.309	82.247	341.309	81.3285	341.309	81.812
353.027	82.6676	353.027	80.414	353.027	81.6853
366.211	83.1232	366.211	80.3925	366.211	81.969
379.395	83.6649	379.395	81.5823	379.395	82.7473
392.578	83.4881	392.578	81.6863	392.578	82.68
405.762	83.0565	405.762	81.2193	405.762	82.2343
420.41	83.5304	420.41	81.5419	420.41	82.649
435.059	83.0071	435.059	81.3911	435.059	82.2739
451.172	83.3011	451.172	81.1339	451.172	82.3513
465.82	83.0157	465.82	81.2878	465.82	82.2371
483.398	82.8468	483.398	80.9784	483.398	82.0123
499.512	82.885	499.512	80.8347	499.512	81.9798
517.09	82.9705	517.09	80.8656	517.09	82.0443
536.133	82.3756	536.133	79.9855	536.133	81.3429
555.176	82.8671	555.176	80.016	555.176	81.6714
574.219	82.7914	574.219	80.3978	574.219	81.7574
594.727	81.9778	594.727	80.0805	594.727	81.132
615.234	81.1488	615.234	79.0632	615.234	80.23
637.207	81.9595	637.207	77.9864	637.207	80.4123
659.18	82.5313	659.18	79.3063	659.18	81.2115
682.617	82.5381	682.617	79.3265	682.617	81.2227
707.52	83.2757	707.52	79.6564	707.52	81.8327
732.422	83.0238	732.422	80.3645	732.422	81.8946
757.324	83.1968	757.324	80.6454	757.324	82.1058
785.156	83.9068	785.156	81.3955	785.156	82.8302
811.523	83.333	811.523	81.2528	811.523	82.4163
840.82	83.5099	840.82	81.0505	840.82	82.452
870.117	83.0573	870.117	81.0401	870.117	82.1648
900.879	83.3318	900.879	81.0741	900.879	82.348
933.105	82.8957	933.105	81.0092	933.105	82.0541
965.332	83.2792	965.332	80.7621	965.332	82.2005
1,000.49	82.9475	1,000.49	80.1748	1,000.49	81.7788
1,035.64	82.9097	1,035.64	80.6911	1,035.64	81.9406
1,072.27	82.7215	1,072.27	81.0252	1,072.27	81.9557
1,108.89	82.8755	1,108.89	81.0093	1,108.89	82.0419
1,148.44	82.9851	1,148.44	80.4409	1,148.44	81.8967
1,189.45	82.8958	1,189.45	79.7919	1,189.45	81.6155
1,230.47	82.9189	1,230.47	80.088	1,230.47	81.7302
1,274.41	82.9815	1,274.41	80.4887	1,274.41	81.9116
1,319.82	83.3906	1,319.82	78.9382	1,319.82	81.7116
1,366.7	83.3466	1,366.7	79.5068	1,366.7	81.838
1,413.57	83.0504	1,413.57	79.9072	1,413.57	81.7572
1,463.38	83.049	1,463.38	78.9246	1,463.38	81.459
1,516.11	83.6591	1,516.11	78.9965	1,516.11	81.9256
1,568.85	83.8635	1,568.85	79.1345	1,568.85	82.1132
1,624.51	84.1359	1,624.51	79.489	1,624.51	82.4064
1,681.64	83.9488	1,681.64	80.7151	1,681.64	82.6262
1,741.7	83.9113	1,741.7	79.5102	1,741.7	82.2459
1,803.22	83.5073	1,803.22	78.8299	1,803.22	81.77
1,866.21	83.0738	1,866.21	78.9748	1,866.21	81.491
1,932.13	82.5088	1,932.13	79.3455	1,932.13	81.209
1,999.51	82.0754	1,999.51	79.5562	1,999.51	80.9959
2,069.82	81.871	2,069.82	78.943	2,069.82	80.6492
2,143.07	81.6574	2,143.07	78.9366	2,143.07	80.5066
2,219.24	81.172	2,219.24	78.619	2,219.24	80.0804
2,296.88	80.5864	2,296.88	79.0742	2,296.88	79.8958
2,378.91	80.4394	2,378.91	79.0659	2,378.91	79.8068
2,462.4	80.2833	2,462.4	79.3562	2,462.4	79.8444
2,548.83	79.6047	2,548.83	79.3189	2,548.83	79.4641
2,639.65	79.0496	2,639.65	79.57	2,639.65	79.3176
2,731.93	78.4085	2,731.93	80.5028	2,731.93	79.5807
2,828.61	77.9778	2,828.61	81.4223	2,828.61	80.033
2,928.22	77.4754	2,928.22	81.5471	2,928.22	79.9719
3,030.76	77.7053	3,030.76	81.9724	3,030.76	80.3431
3,137.7	78.0685	3,137.7	82.3473	3,137.7	80.7148
3,249.02	78.533	3,249.02	82.1362	3,249.02	80.698
3,363.28	79.0259	3,363.28	82.3264	3,363.28	80.9824
3,481.93	79.7002	3,481.93	82.1758	3,481.93	81.112
3,604.98	79.7391	3,604.98	82.3884	3,604.98	81.2627
3,732.42	79.3708	3,732.42	81.9182	3,732.42	80.8286
3,864.26	79.4132	3,864.26	81.6599	3,864.26	80.6802
4,000.49	79.3559	4,000.49	81.179	4,000.49	80.3624
4,141.11	78.8988	4,141.11	80.7894	4,141.11	79.9462
4,287.6	78.4782	4,287.6	80	4,287.6	79.3054
4,438.48	79.4248	4,438.48	79.4932	4,438.48	79.4591
4,595.21	80.8515	4,595.21	78.9672	4,595.21	80.0107
4,756.35	80.7685	4,756.35	78.9332	4,756.35	79.9471
4,924.8	80.7135	4,924.8	78.6712	4,924.8	79.8113
5,097.66	81.7424	5,097.66	78.6066	5,097.66	80.4516
5,277.83	80.5517	5,277.83	78.523	5,277.83	79.6547
5,463.87	80.839	5,463.87	78.6214	5,463.87	79.8702
5,657.23	82.6515	5,657.23	78.9824	5,657.23	81.1934
5,856.45	82.3946	5,856.45	79.7402	5,856.45	81.2671
6,062.99	80.9347	6,062.99	79.814	6,062.99	80.4104
6,276.86	81.0714	6,276.86	79.1771	6,276.86	80.2267
6,498.05	80.9695	6,498.05	78.2295	6,498.05	79.8121
6,726.56	80.6278	6,726.56	77.7183	6,726.56	79.4123
6,963.87	80.0541	6,963.87	77.5107	6,963.87	78.966
7,209.96	79.9773	7,209.96	77.4149	7,209.96	78.8824
7,464.84	79.5496	7,464.84	77.3224	7,464.84	78.5772
7,727.05	79.2061	7,727.05	77.4976	7,727.05	78.4354
7,999.51	79.3955	7,999.51	77.5943	7,999.51	78.5876
8,282.23	79.5648	8,282.23	77.5603	8,282.23	78.6772
8,573.73	80.0279	8,573.73	77.2536	8,573.73	78.8586
8,876.95	79.802	8,876.95	76.884	8,876.95	78.5836
9,188.96	80.0125	9,188.96	76.3638	9,188.96	78.5605
9,514.16	79.9771	9,514.16	76.0338	9,514.16	78.4385
9,849.61	80.0868	9,849.61	75.6724	9,849.61	78.4179
10,196.8	80.1424	10,196.8	75.1715	10,196.8	78.3325
10,555.7	79.9581	10,555.7	74.5139	10,555.7	78.0385
10,927.7	79.7663	10,927.7	74.1275	10,927.7	77.8042
11,313	79.9065	11,313	74.1917	11,313	77.9282
11,712.9	79.7651	11,712.9	74.5988	11,712.9	77.9088
12,126	79.6078	12,126	74.6504	12,126	77.8011
12,553.7	79.1328	12,553.7	73.9185	12,553.7	77.2653
12,996.1	78.7256	12,996.1	72.3351	12,996.1	76.6129
13,454.6	77.7352	13,454.6	70.3667	13,454.6	75.4558
13,929.2	77.1089	13,929.2	69.1211	13,929.2	74.7392
14,419.9	76.9708	14,419.9	69.0685	14,419.9	74.6129
14,928.2	77.1138	14,928.2	69.4164	14,928.2	74.7851
15,455.6	77.3851	15,455.6	69.5019	15,455.6	75.0299
16,000.5	76.9487	16,000.5	67.5853	16,000.5	74.4142
16,564.5	75.8361	16,564.5	64.8456	16,564.5	73.1585
17,148.9	74.2124	17,148.9	62.9333	17,148.9	71.5141
17,752.4	75.8512	17,752.4	63.3201	17,752.4	73.0769
18,379.4	74.9559	18,379.4	60.416	18,379.4	72.0956
19,026.9	73.0447	19,026.9	56.9552	19,026.9	70.14
19,697.8	71.3468	19,697.8	53.4831	19,697.8	68.407
19,999.5	70.6264	19,999.5	52.2489	19,999.5	67.6788
