"SPL Horizontal"																																																																							
"On-Axis"		"10°"		"-10°"		"20°"		"-20°"		"30°"		"-30°"		"40°"		"-40°"		"50°"		"-50°"		"60°"		"-60°"		"70°"		"-70°"		"80°"		"-80°"		"90°"		"-90°"		"100°"		"-100°"		"110°"		"-110°"		"120°"		"-120°"		"130°"		"-130°"		"140°"		"-140°"		"150°"		"-150°"		"160°"		"-160°"		"170°"		"-170°"		"180°"	
"Frequency [Hz]"	"Sound Pessure Level [dB]  / [2.83V 1m] "	"Frequency [Hz]"	"Sound Pessure Level [dB]  / [2.83V 1m] "	"Frequency [Hz]"	"Sound Pessure Level [dB]  / [2.83V 1m] "	"Frequency [Hz]"	"Sound Pessure Level [dB]  / [2.83V 1m] "	"Frequency [Hz]"	"Sound Pessure Level [dB]  / [2.83V 1m] "	"Frequency [Hz]"	"Sound Pessure Level [dB]  / [2.83V 1m] "	"Frequency [Hz]"	"Sound Pessure Level [dB]  / [2.83V 1m] "	"Frequency [Hz]"	"Sound Pessure Level [dB]  / [2.83V 1m] "	"Frequency [Hz]"	"Sound Pessure Level [dB]  / [2.83V 1m] "	"Frequency [Hz]"	"Sound Pessure Level [dB]  / [2.83V 1m] "	"Frequency [Hz]"	"Sound Pessure Level [dB]  / [2.83V 1m] "	"Frequency [Hz]"	"Sound Pessure Level [dB]  / [2.83V 1m] "	"Frequency [Hz]"	"Sound Pessure Level [dB]  / [2.83V 1m] "	"Frequency [Hz]"	"Sound Pessure Level [dB]  / [2.83V 1m] "	"Frequency [Hz]"	"Sound Pessure Level [dB]  / [2.83V 1m] "	"Frequency [Hz]"	"Sound Pessure Level [dB]  / [2.83V 1m] "	"Frequency [Hz]"	"Sound Pessure Level [dB]  / [2.83V 1m] "	"Frequency [Hz]"	"Sound Pessure Level [dB]  / [2.83V 1m] "	"Frequency [Hz]"	"Sound Pessure Level [dB]  / [2.83V 1m] "	"Frequency [Hz]"	"Sound Pessure Level [dB]  / [2.83V 1m] "	"Frequency [Hz]"	"Sound Pessure Level [dB]  / [2.83V 1m] "	"Frequency [Hz]"	"Sound Pessure Level [dB]  / [2.83V 1m] "	"Frequency [Hz]"	"Sound Pessure Level [dB]  / [2.83V 1m] "	"Frequency [Hz]"	"Sound Pessure Level [dB]  / [2.83V 1m] "	"Frequency [Hz]"	"Sound Pessure Level [dB]  / [2.83V 1m] "	"Frequency [Hz]"	"Sound Pessure Level [dB]  / [2.83V 1m] "	"Frequency [Hz]"	"Sound Pessure Level [dB]  / [2.83V 1m] "	"Frequency [Hz]"	"Sound Pessure Level [dB]  / [2.83V 1m] "	"Frequency [Hz]"	"Sound Pessure Level [dB]  / [2.83V 1m] "	"Frequency [Hz]"	"Sound Pessure Level [dB]  / [2.83V 1m] "	"Frequency [Hz]"	"Sound Pessure Level [dB]  / [2.83V 1m] "	"Frequency [Hz]"	"Sound Pessure Level [dB]  / [2.83V 1m] "	"Frequency [Hz]"	"Sound Pessure Level [dB]  / [2.83V 1m] "	"Frequency [Hz]"	"Sound Pessure Level [dB]  / [2.83V 1m] "	"Frequency [Hz]"	"Sound Pessure Level [dB]  / [2.83V 1m] "	"Frequency [Hz]"	"Sound Pessure Level [dB]  / [2.83V 1m] "
20.5078	53.7912	20.5078	53.8546	20.5078	53.7121	20.5078	53.9021	20.5078	53.6181	20.5078	53.9337	20.5078	53.5107	20.5078	53.9496	20.5078	53.3922	20.5078	53.95	20.5078	53.2662	20.5078	53.9354	20.5078	53.1374	20.5078	53.9061	20.5078	53.0116	20.5078	53.8626	20.5078	52.8953	20.5078	53.8059	20.5078	52.7952	20.5078	53.7372	20.5078	52.7171	20.5078	53.6582	20.5078	52.6655	20.5078	53.5707	20.5078	52.6427	20.5078	53.4771	20.5078	52.6486	20.5078	53.3794	20.5078	52.6809	20.5078	53.2796	20.5078	52.7353	20.5078	53.1792	20.5078	52.807	20.5078	53.0798	20.5078	52.891	20.5078	52.983
21.9727	55.6153	21.9727	55.6047	21.9727	55.6176	21.9727	55.5862	21.9727	55.6114	21.9727	55.5603	21.9727	55.5965	21.9727	55.5273	21.9727	55.5729	21.9727	55.488	21.9727	55.5409	21.9727	55.4427	21.9727	55.5009	21.9727	55.3923	21.9727	55.4539	21.9727	55.3377	21.9727	55.4009	21.9727	55.28	21.9727	55.3432	21.9727	55.2206	21.9727	55.2827	21.9727	55.1614	21.9727	55.221	21.9727	55.1042	21.9727	55.1602	21.9727	55.0516	21.9727	55.1024	21.9727	55.0058	21.9727	55.0498	21.9727	54.9691	21.9727	55.0044	21.9727	54.9435	21.9727	54.9683	21.9727	54.9303	21.9727	54.9431	21.9727	54.9302
23.4375	56.4041	23.4375	56.4067	23.4375	56.3921	23.4375	56.4002	23.4375	56.3708	23.4375	56.3846	23.4375	56.3406	23.4375	56.3603	23.4375	56.3019	23.4375	56.3277	23.4375	56.2556	23.4375	56.2872	23.4375	56.203	23.4375	56.2396	23.4375	56.1456	23.4375	56.1857	23.4375	56.0853	23.4375	56.1269	23.4375	56.0241	23.4375	56.0645	23.4375	55.9639	23.4375	56.0006	23.4375	55.9066	23.4375	55.9374	23.4375	55.8537	23.4375	55.8773	23.4375	55.8067	23.4375	55.8228	23.4375	55.7667	23.4375	55.7763	23.4375	55.7351	23.4375	55.7398	23.4375	55.713	23.4375	55.7148	23.4375	55.7017	23.4375	55.7021
24.9023	56.9951	24.9023	56.9862	24.9023	56.9957	24.9023	56.9694	24.9023	56.9879	24.9023	56.9451	24.9023	56.9718	24.9023	56.9139	24.9023	56.9475	24.9023	56.8765	24.9023	56.9157	24.9023	56.8338	24.9023	56.8772	24.9023	56.7868	24.9023	56.8328	24.9023	56.7367	24.9023	56.7839	24.9023	56.6846	24.9023	56.732	24.9023	56.6321	24.9023	56.6787	24.9023	56.5808	24.9023	56.6255	24.9023	56.5322	24.9023	56.5742	24.9023	56.4883	24.9023	56.5264	24.9023	56.4506	24.9023	56.4836	24.9023	56.4208	24.9023	56.4472	24.9023	56.4001	24.9023	56.4187	24.9023	56.3894	24.9023	56.399	24.9023	56.389
26.3672	57.763	26.3672	57.7774	26.3672	57.7385	26.3672	57.7816	26.3672	57.7044	26.3672	57.7759	26.3672	57.6616	26.3672	57.7605	26.3672	57.6111	26.3672	57.7359	26.3672	57.5548	26.3672	57.7029	26.3672	57.4947	26.3672	57.6622	26.3672	57.4333	26.3672	57.6149	26.3672	57.3732	26.3672	57.5622	26.3672	57.3168	26.3672	57.5058	26.3672	57.2662	26.3672	57.4474	26.3672	57.223	26.3672	57.3892	26.3672	57.1879	26.3672	57.3332	26.3672	57.1613	26.3672	57.2817	26.3672	57.1429	26.3672	57.2364	26.3672	57.1325	26.3672	57.1985	26.3672	57.1297	26.3672	57.1689	26.3672	57.1347	26.3672	57.1477
27.832	58.7797	27.832	58.7838	27.832	58.7666	27.832	58.7789	27.832	58.7447	27.832	58.7651	27.832	58.7144	27.832	58.743	27.832	58.6765	27.832	58.7131	27.832	58.632	27.832	58.6764	27.832	58.5823	27.832	58.6339	27.832	58.5292	27.832	58.587	27.832	58.4744	27.832	58.5371	27.832	58.4202	27.832	58.4857	27.832	58.3685	27.832	58.4344	27.832	58.3213	27.832	58.3849	27.832	58.2799	27.832	58.3385	27.832	58.2457	27.832	58.2967	27.832	58.2191	27.832	58.2606	27.832	58.2007	27.832	58.2312	27.832	58.1905	27.832	58.2091	27.832	58.1885	27.832	58.1947
29.2969	59.5948	29.2969	59.5915	29.2969	59.5885	29.2969	59.5787	29.2969	59.5728	29.2969	59.5567	29.2969	59.5479	29.2969	59.5259	29.2969	59.5143	29.2969	59.4869	29.2969	59.4729	29.2969	59.4406	29.2969	59.4246	29.2969	59.3879	29.2969	59.371	29.2969	59.3302	29.2969	59.3136	29.2969	59.2692	29.2969	59.2542	29.2969	59.2068	29.2969	59.1946	29.2969	59.1451	29.2969	59.1368	29.2969	59.0863	29.2969	59.0823	29.2969	59.0326	29.2969	59.0326	29.2969	58.9861	29.2969	58.9891	29.2969	58.9486	29.2969	58.9531	29.2969	58.9214	29.2969	58.9257	29.2969	58.9055	29.2969	58.908	29.2969	58.9011
30.7617	60.4875	30.7617	60.4777	30.7617	60.4907	30.7617	60.4615	30.7617	60.4873	30.7617	60.4391	30.7617	60.4773	30.7617	60.4111	30.7617	60.461	30.7617	60.3781	30.7617	60.4387	30.7617	60.341	30.7617	60.4109	30.7617	60.3009	30.7617	60.3782	30.7617	60.2589	30.7617	60.3415	30.7617	60.2166	30.7617	60.3017	30.7617	60.1755	30.7617	60.2602	30.7617	60.137	30.7617	60.2184	30.7617	60.1027	30.7617	60.1778	30.7617	60.0736	30.7617	60.14	30.7617	60.0507	30.7617	60.1063	30.7617	60.0345	30.7617	60.0776	30.7617	60.0251	30.7617	60.0545	30.7617	60.0227	30.7617	60.0376	30.7617	60.0269
32.2266	61.2894	32.2266	61.287	32.2266	61.2843	32.2266	61.2773	32.2266	61.272	32.2266	61.2605	32.2266	61.2527	32.2266	61.237	32.2266	61.2268	32.2266	61.2074	32.2266	61.195	32.2266	61.1723	32.2266	61.1582	32.2266	61.1329	32.2266	61.1176	32.2266	61.0903	32.2266	61.0743	32.2266	61.0459	32.2266	61.03	32.2266	61.0012	32.2266	60.9861	32.2266	60.9577	32.2266	60.9443	32.2266	60.9172	32.2266	60.9058	32.2266	60.8809	32.2266	60.872	32.2266	60.8501	32.2266	60.8436	32.2266	60.8256	32.2266	60.8213	32.2266	60.8078	32.2266	60.8053	32.2266	60.797	32.2266	60.7958	32.2266	60.793
33.6914	61.6263	33.6914	61.6245	33.6914	61.62	33.6914	61.6148	33.6914	61.6059	33.6914	61.5973	33.6914	61.5843	33.6914	61.5723	33.6914	61.5558	33.6914	61.5407	33.6914	61.5212	33.6914	61.503	33.6914	61.4813	33.6914	61.4604	33.6914	61.4372	33.6914	61.414	33.6914	61.3903	33.6914	61.3651	33.6914	61.3418	33.6914	61.3152	33.6914	61.2932	33.6914	61.2658	33.6914	61.246	33.6914	61.2185	33.6914	61.2015	33.6914	61.1749	33.6914	61.1611	33.6914	61.1366	33.6914	61.1261	33.6914	61.105	33.6914	61.0976	33.6914	61.0813	33.6914	61.0766	33.6914	61.0663	33.6914	61.0641	33.6914	61.0605
35.1563	62.4753	35.1563	62.4768	35.1563	62.4664	35.1563	62.471	35.1563	62.4505	35.1563	62.4579	35.1563	62.428	35.1563	62.438	35.1563	62.3996	35.1563	62.4118	35.1563	62.3664	35.1563	62.38	35.1563	62.3294	35.1563	62.3437	35.1563	62.29	35.1563	62.3039	35.1563	62.2495	35.1563	62.2619	35.1563	62.2093	35.1563	62.2193	35.1563	62.1707	35.1563	62.1774	35.1563	62.1348	35.1563	62.1379	35.1563	62.1024	35.1563	62.1021	35.1563	62.0743	35.1563	62.0713	35.1563	62.0508	35.1563	62.0464	35.1563	62.0324	35.1563	62.0279	35.1563	62.0194	35.1563	62.0161	35.1563	62.0121	35.1563	62.0109
36.6211	62.8274	36.6211	62.8284	36.6211	62.8175	36.6211	62.8208	36.6211	62.7989	36.6211	62.8049	36.6211	62.772	36.6211	62.7811	36.6211	62.7372	36.6211	62.7501	36.6211	62.6955	36.6211	62.7129	36.6211	62.6481	36.6211	62.6704	36.6211	62.5963	36.6211	62.6237	36.6211	62.5417	36.6211	62.5741	36.6211	62.4864	36.6211	62.5229	36.6211	62.4321	36.6211	62.4715	36.6211	62.381	36.6211	62.4214	36.6211	62.3347	36.6211	62.3739	36.6211	62.2948	36.6211	62.3307	36.6211	62.2627	36.6211	62.2931	36.6211	62.2393	36.6211	62.2623	36.6211	62.2251	36.6211	62.2395	36.6211	62.2205	36.6211	62.2253
38.0859	64.1141	38.0859	64.1038	38.0859	64.1162	38.0859	64.0854	38.0859	64.11	38.0859	64.0593	38.0859	64.0958	38.0859	64.0261	38.0859	64.0737	38.0859	63.9866	38.0859	64.0441	38.0859	63.942	38.0859	64.0076	38.0859	63.8933	38.0859	63.9648	38.0859	63.8421	38.0859	63.9166	38.0859	63.7897	38.0859	63.8642	38.0859	63.7379	38.0859	63.8091	38.0859	63.688	38.0859	63.7532	38.0859	63.6417	38.0859	63.6985	38.0859	63.6001	38.0859	63.6472	38.0859	63.5647	38.0859	63.6015	38.0859	63.5365	38.0859	63.5632	38.0859	63.5166	38.0859	63.5338	38.0859	63.5058	38.0859	63.5142	38.0859	63.5049
39.5508	64.4919	39.5508	64.4766	39.5508	64.5007	39.5508	64.455	39.5508	64.503	39.5508	64.4277	39.5508	64.499	39.5508	64.3951	39.5508	64.4888	39.5508	64.3581	39.5508	64.4729	39.5508	64.3178	39.5508	64.4516	39.5508	64.2755	39.5508	64.4254	39.5508	64.2324	39.5508	64.3948	39.5508	64.1901	39.5508	64.3605	39.5508	64.1499	39.5508	64.3233	39.5508	64.1134	39.5508	64.2839	39.5508	64.0818	39.5508	64.2435	39.5508	64.0563	39.5508	64.203	39.5508	64.038	39.5508	64.1638	39.5508	64.0276	39.5508	64.1271	39.5508	64.0254	39.5508	64.0944	39.5508	64.0315	39.5508	64.0668	39.5508	64.0455
41.0156	64.7506	41.0156	64.7153	41.0156	64.7817	41.0156	64.6763	41.0156	64.8081	41.0156	64.6344	41.0156	64.8295	41.0156	64.5902	41.0156	64.8456	41.0156	64.5446	41.0156	64.856	41.0156	64.4985	41.0156	64.8602	41.0156	64.4532	41.0156	64.8579	41.0156	64.4099	41.0156	64.8483	41.0156	64.37	41.0156	64.8307	41.0156	64.3352	41.0156	64.8047	41.0156	64.307	41.0156	64.7698	41.0156	64.2871	41.0156	64.7266	41.0156	64.2768	41.0156	64.6759	41.0156	64.2772	41.0156	64.6196	41.0156	64.2891	41.0156	64.56	41.0156	64.3125	41.0156	64.5001	41.0156	64.3468	41.0156	64.4428	41.0156	64.3909
42.4805	66.0466	42.4805	66.0434	42.4805	66.0391	42.4805	66.0296	42.4805	66.021	42.4805	66.0057	42.4805	65.9929	42.4805	65.9723	42.4805	65.9558	42.4805	65.9305	42.4805	65.9108	42.4805	65.8813	42.4805	65.8596	42.4805	65.8263	42.4805	65.804	42.4805	65.767	42.4805	65.7458	42.4805	65.7052	42.4805	65.6869	42.4805	65.6429	42.4805	65.6288	42.4805	65.5821	42.4805	65.5728	42.4805	65.5248	42.4805	65.5202	42.4805	65.4728	42.4805	65.4722	42.4805	65.428	42.4805	65.43	42.4805	65.3918	42.4805	65.395	42.4805	65.3654	42.4805	65.3684	42.4805	65.3497	42.4805	65.3515	42.4805	65.345
43.9453	66.5518	43.9453	66.5524	43.9453	66.543	43.9453	66.5447	43.9453	66.5264	43.9453	66.5289	43.9453	66.5025	43.9453	66.5057	43.9453	66.4721	43.9453	66.4757	43.9453	66.4364	43.9453	66.4399	43.9453	66.3967	43.9453	66.3997	43.9453	66.3544	43.9453	66.3565	43.9453	66.311	43.9453	66.3118	43.9453	66.2679	43.9453	66.2673	43.9453	66.2266	43.9453	66.2246	43.9453	66.1882	43.9453	66.1851	43.9453	66.1537	43.9453	66.1499	43.9453	66.1239	43.9453	66.1199	43.9453	66.0993	43.9453	66.0957	43.9453	66.0804	43.9453	66.0775	43.9453	66.0674	43.9453	66.0656	43.9453	66.0605	43.9453	66.0599
45.4102	66.5374	45.4102	66.5408	45.4102	66.5245	45.4102	66.5346	45.4102	66.5025	45.4102	66.5189	45.4102	66.4724	45.4102	66.4946	45.4102	66.4356	45.4102	66.4626	45.4102	66.3935	45.4102	66.4244	45.4102	66.348	45.4102	66.3815	45.4102	66.3011	45.4102	66.3357	45.4102	66.2546	45.4102	66.2889	45.4102	66.2103	45.4102	66.2429	45.4102	66.1696	45.4102	66.1994	45.4102	66.1337	45.4102	66.1598	45.4102	66.1033	45.4102	66.1251	45.4102	66.0785	45.4102	66.096	45.4102	66.0595	45.4102	66.0726	45.4102	66.0461	45.4102	66.0551	45.4102	66.0378	45.4102	66.0431	45.4102	66.0346	45.4102	66.0364
46.875	67.3792	46.875	67.3728	46.875	67.3726	46.875	67.3537	46.875	67.3531	46.875	67.3227	46.875	67.3211	46.875	67.2807	46.875	67.2773	46.875	67.229	46.875	67.223	46.875	67.169	46.875	67.1597	46.875	67.1025	46.875	67.0895	46.875	67.0314	46.875	67.0146	46.875	66.9578	46.875	66.9376	46.875	66.8839	46.875	66.8611	46.875	66.8119	46.875	66.7879	46.875	66.7438	46.875	66.7202	46.875	66.6819	46.875	66.6601	46.875	66.628	46.875	66.6094	46.875	66.5837	46.875	66.5693	46.875	66.5505	46.875	66.5407	46.875	66.5292	46.875	66.5243	46.875	66.5204
48.3398	68.0772	48.3398	68.0709	48.3398	68.0732	48.3398	68.0546	48.3398	68.0587	48.3398	68.0288	48.3398	68.0339	48.3398	67.9943	48.3398	67.9992	48.3398	67.9522	48.3398	67.9554	48.3398	67.9036	48.3398	67.9035	48.3398	67.8499	48.3398	67.8447	48.3398	67.7925	48.3398	67.7807	48.3398	67.7328	48.3398	67.7133	48.3398	67.6723	48.3398	67.6448	48.3398	67.6123	48.3398	67.5775	48.3398	67.5544	48.3398	67.5141	48.3398	67.5	48.3398	67.4571	48.3398	67.4507	48.3398	67.409	48.3398	67.4079	48.3398	67.3716	48.3398	67.3733	48.3398	67.3465	48.3398	67.3486	48.3398	67.3344	48.3398	67.3353
51.2695	68.8366	51.2695	68.8285	51.2695	68.8351	51.2695	68.8111	51.2695	68.8243	51.2695	68.7848	51.2695	68.8045	51.2695	68.7506	51.2695	68.7764	51.2695	68.7095	51.2695	68.741	51.2695	68.6628	51.2695	68.6995	51.2695	68.612	51.2695	68.6531	51.2695	68.5589	51.2695	68.6034	51.2695	68.5052	51.2695	68.552	51.2695	68.4526	51.2695	68.5003	51.2695	68.403	51.2695	68.4498	51.2695	68.3578	51.2695	68.4021	51.2695	68.3185	51.2695	68.3585	51.2695	68.286	51.2695	68.3201	51.2695	68.2611	51.2695	68.288	51.2695	68.2445	51.2695	68.263	51.2695	68.2364	51.2695	68.2458	51.2695	68.2369
52.7344	69.4145	52.7344	69.4078	52.7344	69.412	52.7344	69.392	52.7344	69.4002	52.7344	69.3676	52.7344	69.3797	52.7344	69.3356	52.7344	69.3511	52.7344	69.2971	52.7344	69.3156	52.7344	69.2534	52.7344	69.2744	52.7344	69.206	52.7344	69.2289	52.7344	69.1566	52.7344	69.1807	52.7344	69.1069	52.7344	69.1314	52.7344	69.0585	52.7344	69.0826	52.7344	69.0129	52.7344	69.0358	52.7344	68.9714	52.7344	68.9924	52.7344	68.9351	52.7344	68.9534	52.7344	68.9049	52.7344	68.92	52.7344	68.8813	52.7344	68.8929	52.7344	68.8648	52.7344	68.8727	52.7344	68.8556	52.7344	68.8596	52.7344	68.8539
54.1992	69.8292	54.1992	69.8175	54.1992	69.8319	54.1992	69.7973	54.1992	69.8259	54.1992	69.7691	54.1992	69.8115	54.1992	69.7341	54.1992	69.7895	54.1992	69.6936	54.1992	69.7609	54.1992	69.649	54.1992	69.727	54.1992	69.6022	54.1992	69.6892	54.1992	69.555	54.1992	69.6489	54.1992	69.5092	54.1992	69.6074	54.1992	69.4663	54.1992	69.566	54.1992	69.4279	54.1992	69.5258	54.1992	69.395	54.1992	69.4878	54.1992	69.3684	54.1992	69.4527	54.1992	69.3487	54.1992	69.4211	54.1992	69.336	54.1992	69.3934	54.1992	69.3303	54.1992	69.3701	54.1992	69.3313	54.1992	69.3517	54.1992	69.3386
55.6641	70.3153	55.6641	70.3103	55.6641	70.3104	55.6641	70.2958	55.6641	70.296	55.6641	70.2722	55.6641	70.2727	55.6641	70.2407	55.6641	70.2416	55.6641	70.2026	55.6641	70.2041	55.6641	70.1595	55.6641	70.1619	55.6641	70.1134	55.6641	70.1169	55.6641	70.0663	55.6641	70.071	55.6641	70.0202	55.6641	70.026	55.6641	69.9768	55.6641	69.9836	55.6641	69.9376	55.6641	69.9452	55.6641	69.9038	55.6641	69.9117	55.6641	69.8759	55.6641	69.8836	55.6641	69.8542	55.6641	69.8612	55.6641	69.8383	55.6641	69.8441	55.6641	69.8279	55.6641	69.832	55.6641	69.8224	55.6641	69.8245	55.6641	69.8213
58.5938	71.4074	58.5938	71.393	58.5938	71.4093	58.5938	71.3664	58.5938	71.3986	58.5938	71.3284	58.5938	71.3758	58.5938	71.2802	58.5938	71.3416	58.5938	71.2231	58.5938	71.2971	58.5938	71.1592	58.5938	71.2436	58.5938	71.0905	58.5938	71.1829	58.5938	71.0193	58.5938	71.1167	58.5938	70.948	58.5938	71.0471	58.5938	70.8789	58.5938	70.9763	58.5938	70.8141	58.5938	70.9064	58.5938	70.7557	58.5938	70.8398	58.5938	70.7051	58.5938	70.7783	58.5938	70.6636	58.5938	70.724	58.5938	70.6323	58.5938	70.6784	58.5938	70.6117	58.5938	70.6427	58.5938	70.6023	58.5938	70.6179	58.5938	70.6043
60.0586	71.7702	60.0586	71.7584	60.0586	71.7705	60.0586	71.7354	60.0586	71.7593	60.0586	71.7019	60.0586	71.7371	60.0586	71.6589	60.0586	71.7045	60.0586	71.6079	60.0586	71.6627	60.0586	71.5504	60.0586	71.613	60.0586	71.4885	60.0586	71.5572	60.0586	71.424	60.0586	71.497	60.0586	71.3593	60.0586	71.4344	60.0586	71.2963	60.0586	71.3713	60.0586	71.2371	60.0586	71.3096	60.0586	71.1835	60.0586	71.2512	60.0586	71.137	60.0586	71.1976	60.0586	71.099	60.0586	71.1502	60.0586	71.0703	60.0586	71.1105	60.0586	71.0516	60.0586	71.0792	60.0586	71.0431	60.0586	71.0572	60.0586	71.0451
62.9883	72.6022	62.9883	72.5937	62.9883	72.5993	62.9883	72.574	62.9883	72.585	62.9883	72.5437	62.9883	72.5598	62.9883	72.504	62.9883	72.5247	62.9883	72.4562	62.9883	72.4809	62.9883	72.4021	62.9883	72.4299	62.9883	72.3434	62.9883	72.3735	62.9883	72.2823	62.9883	72.3138	62.9883	72.2208	62.9883	72.2526	62.9883	72.1609	62.9883	72.1921	62.9883	72.1045	62.9883	72.1342	62.9883	72.0533	62.9883	72.0805	62.9883	72.0086	62.9883	72.0326	62.9883	71.9714	62.9883	71.9915	62.9883	71.9426	62.9883	71.9581	62.9883	71.9225	62.9883	71.9331	62.9883	71.9115	62.9883	71.9169	62.9883	71.9096
64.4531	73.047	64.4531	73.0394	64.4531	73.0438	64.4531	73.0213	64.4531	73.0298	64.4531	72.9934	64.4531	73.0056	64.4531	72.9567	64.4531	72.972	64.4531	72.9126	64.4531	72.9302	64.4531	72.8627	64.4531	72.8816	64.4531	72.8088	64.4531	72.8281	64.4531	72.7529	64.4531	72.7716	64.4531	72.6968	64.4531	72.7139	64.4531	72.6423	64.4531	72.657	64.4531	72.591	64.4531	72.6029	64.4531	72.5442	64.4531	72.5532	64.4531	72.5032	64.4531	72.5092	64.4531	72.4686	64.4531	72.4722	64.4531	72.4411	64.4531	72.4429	64.4531	72.4211	64.4531	72.4218	64.4531	72.4089	64.4531	72.4091	64.4531	72.4049
67.3828	73.8029	67.3828	73.793	67.3828	73.8023	67.3828	73.773	67.3828	73.7914	67.3828	73.744	67.3828	73.7706	67.3828	73.707	67.3828	73.7408	67.3828	73.6637	67.3828	73.7034	67.3828	73.6161	67.3828	73.66	67.3828	73.566	67.3828	73.6123	67.3828	73.5156	67.3828	73.5625	67.3828	73.4667	67.3828	73.5123	67.3828	73.421	67.3828	73.4637	67.3828	73.3797	67.3828	73.4182	67.3828	73.3439	67.3828	73.3772	67.3828	73.314	67.3828	73.3415	67.3828	73.2902	67.3828	73.3118	67.3828	73.2725	67.3828	73.2882	67.3828	73.2607	67.3828	73.2709	67.3828	73.2546	67.3828	73.2596	67.3828	73.2543
68.8477	74.1839	68.8477	74.1723	68.8477	74.1846	68.8477	74.1505	68.8477	74.1745	68.8477	74.1192	68.8477	74.1543	68.8477	74.0798	68.8477	74.1247	68.8477	74.0342	68.8477	74.0872	68.8477	73.9844	68.8477	74.0434	68.8477	73.9324	68.8477	73.9953	68.8477	73.8806	68.8477	73.9449	68.8477	73.8309	68.8477	73.8943	68.8477	73.7851	68.8477	73.8452	68.8477	73.7445	68.8477	73.7995	68.8477	73.71	68.8477	73.7582	68.8477	73.6819	68.8477	73.7225	68.8477	73.6603	68.8477	73.6926	68.8477	73.645	68.8477	73.6689	68.8477	73.6354	68.8477	73.6512	68.8477	73.6314	68.8477	73.6392	68.8477	73.6326
71.7773	75.0149	71.7773	74.999	71.7773	75.0187	71.7773	74.9717	71.7773	75.0104	71.7773	74.934	71.7773	74.9908	71.7773	74.8874	71.7773	74.9608	71.7773	74.8342	71.7773	74.9221	71.7773	74.7767	71.7773	74.8765	71.7773	74.7177	71.7773	74.8262	71.7773	74.6598	71.7773	74.7736	71.7773	74.6056	71.7773	74.7208	71.7773	74.5573	71.7773	74.6701	71.7773	74.5163	71.7773	74.623	71.7773	74.4836	71.7773	74.5808	71.7773	74.4594	71.7773	74.5443	71.7773	74.4434	71.7773	74.5135	71.7773	74.4345	71.7773	74.4884	71.7773	74.4319	71.7773	74.4684	71.7773	74.4345	71.7773	74.4529	71.7773	74.4417
74.707	75.8918	74.707	75.8811	74.707	75.8891	74.707	75.8571	74.707	75.8731	74.707	75.8207	74.707	75.8446	74.707	75.7734	74.707	75.8049	74.707	75.7169	74.707	75.7558	74.707	75.6537	74.707	75.6993	74.707	75.5862	74.707	75.6378	74.707	75.5173	74.707	75.5737	74.707	75.4497	74.707	75.5094	74.707	75.386	74.707	75.4472	74.707	75.3285	74.707	75.389	74.707	75.2786	74.707	75.3363	74.707	75.2376	74.707	75.2901	74.707	75.206	74.707	75.251	74.707	75.1836	74.707	75.2192	74.707	75.1701	74.707	75.1947	74.707	75.1649	74.707	75.1775	74.707	75.1675
77.6367	76.5078	77.6367	76.4962	77.6367	76.5071	77.6367	76.4726	77.6367	76.4941	77.6367	76.4379	77.6367	76.4695	77.6367	76.3935	77.6367	76.4345	77.6367	76.3415	77.6367	76.3907	77.6367	76.2839	77.6367	76.34	77.6367	76.2232	77.6367	76.2845	77.6367	76.1619	77.6367	76.2266	77.6367	76.1026	77.6367	76.1684	77.6367	76.0473	77.6367	76.1122	77.6367	75.9979	77.6367	76.0596	77.6367	75.9556	77.6367	76.0121	77.6367	75.9211	77.6367	75.9706	77.6367	75.8947	77.6367	75.9357	77.6367	75.876	77.6367	75.9076	77.6367	75.8647	77.6367	75.8861	77.6367	75.8604	77.6367	75.8712	77.6367	75.8626
79.1016	76.8068	79.1016	76.795	79.1016	76.8067	79.1016	76.7716	79.1016	76.7947	79.1016	76.7377	79.1016	76.7714	79.1016	76.6948	79.1016	76.7378	79.1016	76.6447	79.1016	76.6957	79.1016	76.5897	79.1016	76.6468	79.1016	76.5321	79.1016	76.5934	79.1016	76.4744	79.1016	76.5378	79.1016	76.419	79.1016	76.4823	79.1016	76.3678	79.1016	76.429	79.1016	76.3225	79.1016	76.3796	79.1016	76.2841	79.1016	76.3355	79.1016	76.2531	79.1016	76.2975	79.1016	76.2296	79.1016	76.2659	79.1016	76.2131	79.1016	76.2409	79.1016	76.2033	79.1016	76.222	79.1016	76.1996	79.1016	76.209	79.1016	76.2015
82.0313	77.4243	82.0313	77.4096	82.0313	77.4278	82.0313	77.3842	82.0313	77.4199	82.0313	77.3493	82.0313	77.4012	82.0313	77.3067	82.0313	77.3727	82.0313	77.2583	82.0313	77.3359	82.0313	77.2065	82.0313	77.2928	82.0313	77.1538	82.0313	77.2455	82.0313	77.1026	82.0313	77.1965	82.0313	77.0552	82.0313	77.1479	82.0313	77.0133	82.0313	77.1019	82.0313	76.9782	82.0313	77.0601	82.0313	76.9505	82.0313	77.0235	82.0313	76.9304	82.0313	76.9928	82.0313	76.9171	82.0313	76.9678	82.0313	76.9098	82.0313	76.9482	82.0313	76.9074	82.0313	76.9331	82.0313	76.909	82.0313	76.9219	82.0313	76.9139
84.9609	78.0011	84.9609	77.9891	84.9609	78.0016	84.9609	77.9659	84.9609	77.9909	84.9609	77.9327	84.9609	77.97	84.9609	77.8915	84.9609	77.9405	84.9609	77.8446	84.9609	77.9046	84.9609	77.7949	84.9609	77.8648	84.9609	77.7453	84.9609	77.8236	84.9609	77.6988	84.9609	77.7836	84.9609	77.6581	84.9609	77.747	84.9609	77.625	84.9609	77.7155	84.9609	77.6009	84.9609	77.6899	84.9609	77.586	84.9609	77.6704	84.9609	77.5797	84.9609	77.6564	84.9609	77.5806	84.9609	77.6464	84.9609	77.5867	84.9609	77.6389	84.9609	77.596	84.9609	77.6322	84.9609	77.6063	84.9609	77.6249	84.9609	77.6163
87.8906	78.7545	87.8906	78.7503	87.8906	78.742	87.8906	78.7297	87.8906	78.7131	87.8906	78.6939	87.8906	78.6692	87.8906	78.645	87.8906	78.6122	87.8906	78.5855	87.8906	78.5448	87.8906	78.5186	87.8906	78.4702	87.8906	78.4477	87.8906	78.3921	87.8906	78.3763	87.8906	78.3141	87.8906	78.3076	87.8906	78.24	87.8906	78.2444	87.8906	78.173	87.8906	78.1886	87.8906	78.1156	87.8906	78.1411	87.8906	78.0694	87.8906	78.1022	87.8906	78.035	87.8906	78.0711	87.8906	78.0118	87.8906	78.0467	87.8906	77.9988	87.8906	78.0277	87.8906	77.994	87.8906	78.0132	87.8906	77.9957	87.8906	78.0024
90.8203	79.3867	90.8203	79.3781	90.8203	79.3793	90.8203	79.3542	90.8203	79.3561	90.8203	79.316	90.8203	79.3183	90.8203	79.2654	90.8203	79.2673	90.8203	79.205	90.8203	79.2057	90.8203	79.1377	90.8203	79.1363	90.8203	79.0666	90.8203	79.0622	90.8203	78.9951	90.8203	78.9871	90.8203	78.926	90.8203	78.9143	90.8203	78.8622	90.8203	78.8468	90.8203	78.8055	90.8203	78.787	90.8203	78.7571	90.8203	78.7366	90.8203	78.7174	90.8203	78.6965	90.8203	78.6861	90.8203	78.6664	90.8203	78.6623	90.8203	78.6457	90.8203	78.6453	90.8203	78.6333	90.8203	78.6341	90.8203	78.6278	90.8203	78.6282
95.2148	80.0771	95.2148	80.0703	95.2148	80.0686	95.2148	80.0487	95.2148	80.0451	95.2148	80.0139	95.2148	80.0077	95.2148	79.9679	95.2148	79.9583	95.2148	79.9136	95.2148	79.8994	95.2148	79.8542	95.2148	79.8342	95.2148	79.7931	95.2148	79.7662	95.2148	79.7337	95.2148	79.6991	95.2148	79.6789	95.2148	79.6364	95.2148	79.631	95.2148	79.5812	95.2148	79.5913	95.2148	79.5355	95.2148	79.5599	95.2148	79.5008	95.2148	79.536	95.2148	79.4772	95.2148	79.5182	95.2148	79.4638	95.2148	79.5046	95.2148	79.4589	95.2148	79.4935	95.2148	79.4605	95.2148	79.4836	95.2148	79.4663	95.2148	79.4744
98.1445	80.7406	98.1445	80.7278	98.1445	80.7362	98.1445	80.6983	98.1445	80.7146	98.1445	80.6539	98.1445	80.6769	98.1445	80.5969	98.1445	80.6248	98.1445	80.5302	98.1445	80.5609	98.1445	80.4574	98.1445	80.4883	98.1445	80.3822	98.1445	80.4107	98.1445	80.3083	98.1445	80.332	98.1445	80.2393	98.1445	80.2558	98.1445	80.1777	98.1445	80.1858	98.1445	80.1254	98.1445	80.1248	98.1445	80.0832	98.1445	80.0746	98.1445	80.0508	98.1445	80.0362	98.1445	80.0268	98.1445	80.0093	98.1445	80.0098	98.1445	79.9925	98.1445	79.9977	98.1445	79.9841	98.1445	79.9893	98.1445	79.9818	98.1445	79.984
101.074	81.1734	101.074	81.1627	101.074	81.1684	101.074	81.1371	101.074	81.1484	101.074	81.0978	101.074	81.1143	101.074	81.0471	101.074	81.0681	101.074	80.9877	101.074	81.0124	101.074	80.923	101.074	80.9503	101.074	80.8564	101.074	80.885	101.074	80.7916	101.074	80.8199	101.074	80.7316	101.074	80.7579	101.074	80.6789	101.074	80.7016	101.074	80.6351	101.074	80.6529	101.074	80.6007	101.074	80.613	101.074	80.5752	101.074	80.5823	101.074	80.5575	101.074	80.5601	101.074	80.5459	101.074	80.5456	101.074	80.5386	101.074	80.5372	101.074	80.5345	101.074	80.5333	101.074	80.5327
105.469	81.838	105.469	81.8311	105.469	81.8274	105.469	81.8071	105.469	81.7998	105.469	81.7672	105.469	81.7567	105.469	81.7137	105.469	81.7006	105.469	81.6496	105.469	81.6347	105.469	81.5783	105.469	81.5627	105.469	81.5037	105.469	81.4888	105.469	81.4299	105.469	81.4172	105.469	81.3607	105.469	81.3514	105.469	81.2993	105.469	81.2942	105.469	81.248	105.469	81.2474	105.469	81.2079	105.469	81.2115	105.469	81.179	105.469	81.1856	105.469	81.1602	105.469	81.1684	105.469	81.1495	105.469	81.1576	105.469	81.1448	105.469	81.1511	105.469	81.1438	105.469	81.1472	105.469	81.1448
108.398	82.2038	108.398	82.1919	108.398	82.1981	108.398	82.1632	108.398	82.175	108.398	82.1196	108.398	82.1357	108.398	82.0638	108.398	82.0826	108.398	81.9989	108.398	82.0186	108.398	81.9289	108.398	81.9478	108.398	81.8576	108.398	81.8745	108.398	81.789	108.398	81.8032	108.398	81.7265	108.398	81.7379	108.398	81.6726	108.398	81.6818	108.398	81.629	108.398	81.6368	108.398	81.5962	108.398	81.6036	108.398	81.5737	108.398	81.5812	108.398	81.5602	108.398	81.5676	108.398	81.5535	108.398	81.5604	108.398	81.5515	108.398	81.5569	108.398	81.552	108.398	81.555	108.398	81.5534
112.793	82.7624	112.793	82.7427	112.793	82.7625	112.793	82.7044	112.793	82.7429	112.793	82.6501	112.793	82.705	112.793	82.5831	112.793	82.651	112.793	82.5078	112.793	82.5846	112.793	82.4291	112.793	82.51	112.793	82.3522	112.793	82.432	112.793	82.2817	112.793	82.3557	112.793	82.2215	112.793	82.2856	112.793	82.1743	112.793	82.2256	112.793	82.1409	112.793	82.1783	112.793	82.1206	112.793	82.1444	112.793	82.1113	112.793	82.1234	112.793	82.1097	112.793	82.1132	112.793	82.1125	112.793	82.1109	112.793	82.1164	112.793	82.113	112.793	82.1189	112.793	82.1165	112.793	82.1189
117.188	83.2533	117.188	83.2358	117.188	83.2505	117.188	83.1989	117.188	83.2274	117.188	83.1447	117.188	83.1853	117.188	83.0765	117.188	83.1266	117.188	82.9984	117.188	83.0548	117.188	82.9151	117.188	82.9743	117.188	82.8319	117.188	82.8902	117.188	82.7539	117.188	82.8079	117.188	82.6857	117.188	82.7324	117.188	82.6307	117.188	82.6682	117.188	82.5908	117.188	82.6181	117.188	82.5661	117.188	82.5835	117.188	82.5546	117.188	82.5634	117.188	82.5531	117.188	82.5556	117.188	82.5575	117.188	82.5562	117.188	82.5637	117.188	82.5611	117.188	82.5683	117.188	82.5665	117.188	82.5693
120.117	83.6274	120.117	83.612	120.117	83.6217	120.117	83.5763	120.117	83.5951	120.117	83.5223	120.117	83.5491	120.117	83.4528	120.117	83.4863	120.117	83.372	120.117	83.4103	120.117	83.2846	120.117	83.3253	120.117	83.1957	120.117	83.2366	120.117	83.1107	120.117	83.1493	120.117	83.0344	120.117	83.0685	120.117	82.9706	120.117	82.9988	120.117	82.9218	120.117	82.9431	120.117	82.8885	120.117	82.9028	120.117	82.8693	120.117	82.8775	120.117	82.8614	120.117	82.8649	120.117	82.8611	120.117	82.8615	120.117	82.8641	120.117	82.8633	120.117	82.8672	120.117	82.8664	120.117	82.8682
124.512	83.9677	124.512	83.9511	124.512	83.9627	124.512	83.9138	124.512	83.9365	124.512	83.8579	124.512	83.8905	124.512	83.7865	124.512	83.8273	124.512	83.7037	124.512	83.7505	124.512	83.6143	124.512	83.6646	124.512	83.5235	124.512	83.5745	124.512	83.4364	124.512	83.4854	124.512	83.3577	124.512	83.4024	124.512	83.2911	124.512	83.3296	124.512	83.2387	124.512	83.2699	124.512	83.2011	124.512	83.2249	124.512	83.1773	124.512	83.1942	124.512	83.1648	124.512	83.1759	124.512	83.1603	124.512	83.167	124.512	83.1603	124.512	83.1639	124.512	83.1619	124.512	83.1634	124.512	83.1631
128.906	84.1982	128.906	84.1876	128.906	84.1872	128.906	84.1564	128.906	84.1553	128.906	84.1063	128.906	84.1043	128.906	84.0406	128.906	84.0371	128.906	83.9633	128.906	83.9577	128.906	83.8794	128.906	83.871	128.906	83.7941	128.906	83.7822	128.906	83.7126	128.906	83.6967	128.906	83.6397	128.906	83.6196	128.906	83.5788	128.906	83.5546	128.906	83.5321	128.906	83.5043	128.906	83.4996	128.906	83.4697	128.906	83.4799	128.906	83.4497	128.906	83.4701	128.906	83.4419	128.906	83.4667	128.906	83.4428	128.906	83.4659	128.906	83.4486	128.906	83.4647	128.906	83.4557	128.906	83.4615
133.301	84.4295	133.301	84.4183	133.301	84.418	133.301	84.3853	133.301	84.3841	133.301	84.333	133.301	84.3297	133.301	84.265	133.301	84.2579	133.301	84.1858	133.301	84.1733	133.301	84.1011	133.301	84.0811	133.301	84.0163	133.301	83.9876	133.301	83.9373	133.301	83.8988	133.301	83.8686	133.301	83.8205	133.301	83.8137	133.301	83.7571	133.301	83.7741	133.301	83.7114	133.301	83.7494	133.301	83.684	133.301	83.7373	133.301	83.6734	133.301	83.7342	133.301	83.6761	133.301	83.7356	133.301	83.6877	133.301	83.7375	133.301	83.7033	133.301	83.7362	133.301	83.7185	133.301	83.73
139.16	84.6456	139.16	84.632	139.16	84.6347	139.16	84.5952	139.16	84.5995	139.16	84.5378	139.16	84.5419	139.16	84.4638	139.16	84.4651	139.16	84.3784	139.16	84.3738	139.16	84.2876	139.16	84.2736	139.16	84.1976	139.16	84.1712	139.16	84.1145	139.16	84.0733	139.16	84.0434	139.16	83.9865	139.16	83.9877	139.16	83.916	139.16	83.9488	139.16	83.8653	139.16	83.9259	139.16	83.8353	139.16	83.916	139.16	83.8248	139.16	83.9146	139.16	83.8301	139.16	83.9169	139.16	83.846	139.16	83.9181	139.16	83.8671	139.16	83.9146	139.16	83.8879	139.16	83.9045
143.555	84.7129	143.555	84.6968	143.555	84.7031	143.555	84.656	143.555	84.6677	143.555	84.5935	143.555	84.6086	143.555	84.5134	143.555	84.5292	143.555	84.4212	143.555	84.4343	143.555	84.3235	143.555	84.33	143.555	84.2269	143.555	84.2233	143.555	84.1382	143.555	84.1212	143.555	84.0631	143.555	84.0307	143.555	84.0053	143.555	83.9571	143.555	83.9664	143.555	83.9042	143.555	83.9453	143.555	83.8731	143.555	83.9387	143.555	83.8623	143.555	83.9415	143.555	83.8679	143.555	83.948	143.555	83.8846	143.555	83.9529	143.555	83.9064	143.555	83.9521	143.555	83.9275	143.555	83.9436
147.949	84.7484	147.949	84.7305	147.949	84.7394	147.949	84.6868	147.949	84.7036	147.949	84.6202	147.949	84.6432	147.949	84.535	147.949	84.5617	147.949	84.4369	147.949	84.464	147.949	84.3326	147.949	84.3563	147.949	84.2294	147.949	84.2458	147.949	84.1343	147.949	84.1398	147.949	84.0533	147.949	84.0453	147.949	83.9907	147.949	83.968	147.949	83.9483	147.949	83.9117	147.949	83.9251	147.949	83.8775	147.949	83.9177	147.949	83.8639	147.949	83.921	147.949	83.867	147.949	83.9289	147.949	83.8812	147.949	83.9359	147.949	83.9004	147.949	83.9377	147.949	83.9188	147.949	83.932
153.809	84.7247	153.809	84.7014	153.809	84.7196	153.809	84.651	153.809	84.6866	153.809	84.5767	153.809	84.6277	153.809	84.4832	153.809	84.5467	153.809	84.3766	153.809	84.449	153.809	84.2644	153.809	84.3412	153.809	84.1545	153.809	84.2306	153.809	84.0548	153.809	84.1251	153.809	83.9721	153.809	84.0318	153.809	83.9111	153.809	83.9566	153.809	83.8736	153.809	83.9029	153.809	83.8583	153.809	83.8716	153.809	83.861	153.809	83.8608	153.809	83.8753	153.809	83.8659	153.809	83.8945	153.809	83.881	153.809	83.9118	153.809	83.8994	153.809	83.9225	153.809	83.9151	153.809	83.9236
159.668	84.772	159.668	84.7544	159.668	84.7597	159.668	84.7083	159.668	84.7182	159.668	84.6367	159.668	84.6497	159.668	84.5442	159.668	84.5586	159.668	84.4373	159.668	84.4506	159.668	84.3233	159.668	84.333	159.668	84.2104	159.668	84.2141	159.668	84.1068	159.668	84.1023	159.668	84.0196	159.668	84.0057	159.668	83.9538	159.668	83.9304	159.668	83.9119	159.668	83.88	159.668	83.893	159.668	83.8551	159.668	83.8932	159.668	83.8526	159.668	83.9062	159.668	83.867	159.668	83.9248	159.668	83.8911	159.668	83.9419	159.668	83.9173	159.668	83.9518	159.668	83.9388	159.668	83.951
165.527	84.7765	165.527	84.7546	165.527	84.7664	165.527	84.7025	165.527	84.7248	165.527	84.6235	165.527	84.6541	165.527	84.5232	165.527	84.5585	165.527	84.4086	165.527	84.4445	165.527	84.2878	165.527	84.3197	165.527	84.1698	165.527	84.1933	165.527	84.0632	165.527	84.0745	165.527	83.9753	165.527	83.9723	165.527	83.9115	165.527	83.8936	165.527	83.8735	165.527	83.8424	165.527	83.8601	165.527	83.8192	165.527	83.8664	165.527	83.8207	165.527	83.8856	165.527	83.8405	165.527	83.9096	165.527	83.8704	165.527	83.9307	165.527	83.9019	165.527	83.9427	165.527	83.9275	165.527	83.9419
171.387	84.689	171.387	84.6628	171.387	84.681	171.387	84.6039	171.387	84.6392	171.387	84.5159	171.387	84.5659	171.387	84.4046	171.387	84.4655	171.387	84.2772	171.387	84.3441	171.387	84.1428	171.387	84.2095	171.387	84.0112	171.387	84.0709	171.387	83.8921	171.387	83.9383	171.387	83.7938	171.387	83.8212	171.387	83.7221	171.387	83.7279	171.387	83.6789	171.387	83.6635	171.387	83.6626	171.387	83.6297	171.387	83.6677	171.387	83.6236	171.387	83.6866	171.387	83.639	171.387	83.7107	171.387	83.6671	171.387	83.7316	171.387	83.6987	171.387	83.743	171.387	83.7254	171.387	83.7411
177.246	84.4686	177.246	84.4432	177.246	84.4597	177.246	84.3851	177.246	84.4173	177.246	84.2976	177.246	84.3443	177.246	84.1865	177.246	84.2454	177.246	84.0593	177.246	84.1273	177.246	83.9253	177.246	83.9981	177.246	83.7947	177.246	83.8671	177.246	83.6777	177.246	83.7438	177.246	83.5833	177.246	83.6372	177.246	83.5174	177.246	83.5545	177.246	83.4819	177.246	83.4999	177.246	83.4747	177.246	83.4741	177.246	83.4895	177.246	83.4741	177.246	83.5178	177.246	83.4934	177.246	83.55	177.246	83.5237	177.246	83.5777	177.246	83.5559	177.246	83.5941	177.246	83.5819	177.246	83.5956
183.105	84.2595	183.105	84.2405	183.105	84.2415	183.105	84.1861	183.105	84.187	183.105	84.1	183.105	84.0992	183.105	83.988	183.105	83.9831	183.105	83.858	183.105	83.8462	183.105	83.7195	183.105	83.698	183.105	83.5832	183.105	83.5492	183.105	83.4598	183.105	83.4114	183.105	83.3588	183.105	83.2951	183.105	83.2871	183.105	83.2085	183.105	83.2472	183.105	83.1565	183.105	83.237	183.105	83.139	183.105	83.2502	183.105	83.1516	183.105	83.2776	183.105	83.1861	183.105	83.3089	183.105	83.2321	183.105	83.3344	183.105	83.2791	183.105	83.3465	183.105	83.3176	183.105	83.3412
188.965	84.1292	188.965	84.102	188.965	84.1176	188.965	84.0381	188.965	84.0675	188.965	83.9418	188.965	83.9815	188.965	83.8193	188.965	83.8644	188.965	83.6791	188.965	83.7234	188.965	83.5313	188.965	83.5679	188.965	83.387	188.965	83.4088	188.965	83.2576	188.965	83.2581	188.965	83.1529	188.965	83.1271	188.965	83.0794	188.965	83.0253	188.965	83.0393	188.965	82.9586	188.965	83.0299	188.965	82.9283	188.965	83.0439	188.965	82.931	188.965	83.0711	188.965	82.9591	188.965	83.1008	188.965	83.0024	188.965	83.1229	188.965	83.0499	188.965	83.1305	188.965	83.0917	188.965	83.12
196.289	84.0616	196.289	84.0263	196.289	84.0557	196.289	83.9523	196.289	84.009	196.289	83.844	196.289	83.9239	196.289	83.7081	196.289	83.8054	196.289	83.5538	196.289	83.661	196.289	83.3917	196.289	83.5006	196.289	83.234	196.289	83.3362	196.289	83.0929	196.289	83.1807	196.289	82.979	196.289	83.0464	196.289	82.8997	196.289	82.9437	196.289	82.8579	196.289	82.8783	196.289	82.8509	196.289	82.8508	196.289	82.8714	196.289	82.8563	196.289	82.9087	196.289	82.8855	196.289	82.9513	196.289	82.9267	196.289	82.9884	196.289	82.9683	196.289	83.0114	196.289	83.0003	196.289	83.0157
203.613	83.8672	203.613	83.8308	203.613	83.8599	203.613	83.7523	203.613	83.8094	203.613	83.6362	203.613	83.7188	203.613	83.4893	203.613	83.5936	203.613	83.321	203.613	83.4416	203.613	83.1432	203.613	83.2733	203.613	82.9696	203.613	83.1012	203.613	82.8144	203.613	82.939	203.613	82.6903	203.613	82.7999	203.613	82.6064	203.613	82.695	203.613	82.5664	203.613	82.6307	203.613	82.5671	203.613	82.6074	203.613	82.5998	203.613	82.6195	203.613	82.6516	203.613	82.6564	203.613	82.7087	203.613	82.705	203.613	82.7583	203.613	82.752	203.613	82.7907	203.613	82.7864	203.613	82.8005
210.938	83.6165	210.938	83.5849	210.938	83.6027	210.938	83.5092	210.938	83.5446	210.938	83.3938	210.938	83.446	210.938	83.2454	210.938	83.3131	210.938	83.0737	210.938	83.1546	210.938	82.8907	210.938	82.9812	210.938	82.7104	210.938	82.8055	210.938	82.5477	210.938	82.6407	210.938	82.4161	210.938	82.4996	210.938	82.3257	210.938	82.3926	210.938	82.2807	210.938	82.3261	210.938	82.2783	210.938	82.3008	210.938	82.3094	210.938	82.3117	210.938	82.3605	210.938	82.3486	210.938	82.4169	210.938	82.3986	210.938	82.4654	210.938	82.4482	210.938	82.4959	210.938	82.4858	210.938	82.503
218.262	83.4304	218.262	83.4011	218.262	83.4129	218.262	83.3268	218.262	83.3499	218.262	83.2115	218.262	83.2449	218.262	83.0619	218.262	83.1045	218.262	82.8874	218.262	82.9377	218.262	82.6996	218.262	82.7562	218.262	82.5125	218.262	82.5736	218.262	82.3408	218.262	82.4042	218.262	82.1986	218.262	82.2617	218.262	82.0972	218.262	82.1564	218.262	82.0426	218.262	82.0938	218.262	82.0337	218.262	82.0736	218.262	82.0623	218.262	82.0893	218.262	82.1153	218.262	82.1299	218.262	82.1767	218.262	82.1819	218.262	82.2318	218.262	82.2318	218.262	82.2689	218.262	82.2677	218.262	82.2813
225.586	83.2695	225.586	83.2526	225.586	83.2367	225.586	83.1879	225.586	83.1557	225.586	83.08	225.586	83.0307	225.586	82.9361	225.586	82.8691	225.586	82.7665	225.586	82.6818	225.586	82.5835	225.586	82.4826	225.586	82.4015	225.586	82.2877	225.586	82.2356	225.586	82.1143	225.586	82.0998	225.586	81.978	225.586	82.0052	225.586	81.8899	225.586	81.9574	225.586	81.8542	225.586	81.9551	225.586	81.8673	225.586	81.99	225.586	81.9184	225.586	82.0486	225.586	81.9924	225.586	82.1148	225.586	82.073	225.586	82.1728	225.586	82.1449	225.586	82.2101	225.586	82.1961	225.586	82.2188
232.91	83.1442	232.91	83.1233	232.91	83.1102	232.91	83.0505	232.91	83.0215	232.91	82.9316	232.91	82.8816	232.91	82.7756	232.91	82.6974	232.91	82.5941	232.91	82.4798	232.91	82.401	232.91	82.243	232.91	82.2117	232.91	82.0047	232.91	82.0412	232.91	81.7851	232.91	81.9029	232.91	81.6041	232.91	81.8059	232.91	81.4782	232.91	81.7538	232.91	81.4164	232.91	81.7441	232.91	81.4181	232.91	81.7681	232.91	81.4728	232.91	81.8125	232.91	81.563	232.91	81.862	232.91	81.6683	232.91	81.9009	232.91	81.7692	232.91	81.9165	232.91	81.8499	232.91	81.9004
241.699	82.8219	241.699	82.785	241.699	82.8046	241.699	82.697	241.699	82.7333	241.699	82.5642	241.699	82.6114	241.699	82.3959	241.699	82.4458	241.699	82.2044	241.699	82.2471	241.699	82.0041	241.699	82.029	241.699	81.811	241.699	81.8078	241.699	81.6406	241.699	81.6015	241.699	81.5063	241.699	81.4276	241.699	81.4165	241.699	81.3006	241.699	81.3735	241.699	81.2292	241.699	81.373	241.699	81.2141	241.699	81.4053	241.699	81.2473	241.699	81.4568	241.699	81.3145	241.699	81.5127	241.699	81.3974	241.699	81.5585	241.699	81.478	241.699	81.5826	241.699	81.5414	241.699	81.5776
250.488	82.5391	250.488	82.4978	250.488	82.5164	250.488	82.3968	250.488	82.4295	250.488	82.2443	250.488	82.2824	250.488	82.052	250.488	82.0839	250.488	81.8356	250.488	81.8482	250.488	81.6137	250.488	81.5947	250.488	81.4066	250.488	81.347	250.488	81.2336	250.488	81.1306	250.488	81.1097	250.488	80.9681	250.488	81.0426	250.488	80.8748	250.488	81.0315	250.488	80.8545	250.488	81.0679	250.488	80.899	250.488	81.1378	250.488	80.9906	250.488	81.2248	250.488	81.107	250.488	81.3121	250.488	81.2259	250.488	81.3842	250.488	81.3286	250.488	81.428	250.488	81.401	250.488	81.4348
259.277	82.8362	259.277	82.7841	259.277	82.8193	259.277	82.6669	259.277	82.7327	259.277	82.4917	259.277	82.5786	259.277	82.2696	259.277	82.3635	259.277	82.016	259.277	82.0985	259.277	81.7514	259.277	81.8007	259.277	81.4997	259.277	81.4935	259.277	81.2858	259.277	81.206	259.277	81.1306	259.277	80.9689	259.277	81.0458	259.277	80.8093	259.277	81.0301	259.277	80.7422	259.277	81.0705	259.277	80.7657	259.277	81.1469	259.277	80.8606	259.277	81.2374	259.277	80.9971	259.277	81.3228	259.277	81.143	259.277	81.3881	259.277	81.2717	259.277	81.4217	259.277	81.3654	259.277	81.4157
268.066	82.6574	268.066	82.59	268.066	82.6536	268.066	82.456	268.066	82.5765	268.066	82.2633	268.066	82.4276	268.066	82.0238	268.066	82.2117	268.066	81.7537	268.066	81.9391	268.066	81.4747	268.066	81.6261	268.066	81.2126	268.066	81.2962	268.066	80.9952	268.066	80.9795	268.066	80.8459	268.066	80.7104	268.066	80.7781	268.066	80.5213	268.066	80.79	268.066	80.4339	268.066	80.8651	268.066	80.4519	268.066	80.9774	268.066	80.5581	268.066	81.0988	268.066	80.7203	268.066	81.2049	268.066	80.9014	268.066	81.2775	268.066	81.0687	268.066	81.3044	268.066	81.1987	268.066	81.2788
276.855	82.6077	276.855	82.5596	276.855	82.5876	276.855	82.443	276.855	82.5017	276.855	82.2603	276.855	82.354	276.855	82.0177	276.855	82.1497	276.855	81.7268	276.855	81.8968	276.855	81.4055	276.855	81.6078	276.855	81.0789	276.855	81.3006	276.855	80.7784	276.855	80.9988	276.855	80.5378	276.855	80.7291	276.855	80.385	276.855	80.5167	276.855	80.3329	276.855	80.3798	276.855	80.3738	276.855	80.3255	276.855	80.4814	276.855	80.3491	276.855	80.6194	276.855	80.4342	276.855	80.7513	276.855	80.5565	276.855	80.8478	276.855	80.6878	276.855	80.8907	276.855	80.8009	276.855	80.8734
287.109	82.6524	287.109	82.6106	287.109	82.6166	287.109	82.4945	287.109	82.505	287.109	82.3126	287.109	82.3244	287.109	82.0786	287.109	82.0853	287.109	81.8103	287.109	81.8019	287.109	81.5287	287.109	81.4913	287.109	81.2561	287.109	81.1746	287.109	81.0149	287.109	80.8772	287.109	80.8246	287.109	80.6275	287.109	80.6999	287.109	80.4526	287.109	80.6467	287.109	80.3694	287.109	80.6599	287.109	80.3781	287.109	80.7233	287.109	80.4611	287.109	80.8138	287.109	80.5892	287.109	80.9064	287.109	80.7308	287.109	80.9793	287.109	80.8594	287.109	81.0167	287.109	80.956	287.109	81.0098
297.363	82.3527	297.363	82.287	297.363	82.3263	297.363	82.1351	297.363	82.2079	297.363	81.9087	297.363	82.0031	297.363	81.626	297.363	81.7233	297.363	81.3119	297.363	81.3862	297.363	80.9979	297.363	81.0158	297.363	80.7191	297.363	80.6429	297.363	80.5086	297.363	80.3044	297.363	80.3893	297.363	80.0397	297.363	80.3682	297.363	79.8824	297.363	80.435	297.363	79.8501	297.363	80.5663	297.363	79.9371	297.363	80.7319	297.363	80.1172	297.363	80.9006	297.363	80.3518	297.363	81.0441	297.363	80.601	297.363	81.1394	297.363	80.8297	297.363	81.17	297.363	81.0111	297.363	81.1274
307.617	82.3974	307.617	82.2998	307.617	82.4077	307.617	82.1185	307.617	82.3288	307.617	81.8596	307.617	82.1619	307.617	81.5338	307.617	81.912	307.617	81.1591	307.617	81.5904	307.617	80.7645	307.617	81.2153	307.617	80.3915	307.617	80.8134	307.617	80.0901	307.617	80.4205	307.617	79.9064	307.617	80.0806	307.617	79.8652	307.617	79.8407	307.617	79.9584	307.617	79.7375	307.617	80.1492	307.617	79.7816	307.617	80.3877	307.617	79.9499	307.617	80.6267	307.617	80.1951	307.617	80.8293	307.617	80.4631	307.617	80.9695	307.617	80.7076	307.617	81.0312	307.617	80.8955	307.617	81.0064
319.336	82.1998	319.336	82.128	319.336	82.1832	319.336	81.9677	319.336	82.0792	319.336	81.7209	319.336	81.8909	319.336	81.3925	319.336	81.6247	319.336	80.9943	319.336	81.2924	319.336	80.5491	319.336	80.9137	319.336	80.0956	319.336	80.5169	319.336	79.6897	319.336	80.1388	319.336	79.395	319.336	79.8212	319.336	79.2619	319.336	79.6035	319.336	79.3023	319.336	79.5142	319.336	79.4839	319.336	79.5604	319.336	79.7482	319.336	79.7225	319.336	80.0345	319.336	79.9575	319.336	80.2953	319.336	80.2115	319.336	80.4981	319.336	80.4342	319.336	80.6216	319.336	80.5885	319.336	80.6531
329.59	82.357	329.59	82.2962	329.59	82.3246	329.59	82.1441	329.59	82.1983	329.59	81.9033	329.59	81.9786	329.59	81.5784	329.59	81.6685	329.59	81.1775	329.59	81.2763	329.59	80.7161	329.59	80.819	329.59	80.2221	329.59	80.3266	329.59	79.7424	329.59	79.845	329.59	79.3432	329.59	79.4319	329.59	79.097	329.59	79.1446	329.59	79.0502	329.59	79.0198	329.59	79.1933	329.59	79.0596	329.59	79.4628	329.59	79.2326	329.59	79.7739	329.59	79.4878	329.59	80.0539	329.59	79.7702	329.59	80.2554	329.59	80.0309	329.59	80.3546	329.59	80.2315	329.59	80.3448
341.309	82.3051	341.309	82.2385	341.309	82.2782	341.309	82.0813	341.309	82.1581	341.309	81.8397	341.309	81.9479	341.309	81.5233	341.309	81.6534	341.309	81.1452	341.309	81.2835	341.309	80.7231	341.309	80.8522	341.309	80.2817	341.309	80.3823	341.309	79.8555	341.309	79.9102	341.309	79.489	341.309	79.4874	341.309	79.2307	341.309	79.1735	341.309	79.119	341.309	79.0176	341.309	79.1638	341.309	79.0345	341.309	79.3375	341.309	79.1958	341.309	79.5841	341.309	79.4435	341.309	79.8393	341.309	79.7133	341.309	80.0481	341.309	79.9517	341.309	80.1739	341.309	80.1213	341.309	80.199
353.027	82.2309	353.027	82.144	353.027	82.2118	353.027	81.9546	353.027	82.085	353.027	81.6686	353.027	81.851	353.027	81.2956	353.027	81.5132	353.027	80.8504	353.027	81.0793	353.027	80.3563	353.027	80.5646	353.027	79.8484	353.027	79.9971	353.027	79.3751	353.027	79.4233	353.027	78.9952	353.027	78.9095	353.027	78.7646	353.027	78.5336	353.027	78.714	353.027	78.3579	353.027	78.8322	353.027	78.3994	353.027	79.0689	353.027	78.6186	353.027	79.3557	353.027	78.9412	353.027	79.6277	353.027	79.2882	353.027	79.8352	353.027	79.5965	353.027	79.9458	353.027	79.823	353.027	79.9428
366.211	82.3288	366.211	82.2226	366.211	82.336	366.211	82.0214	366.211	82.2425	366.211	81.7307	366.211	82.0485	366.211	81.3588	366.211	81.7558	366.211	80.9177	366.211	81.368	366.211	80.4254	366.211	80.8911	366.211	79.9095	366.211	80.337	366.211	79.4105	366.211	79.7299	366.211	78.9825	366.211	79.1175	366.211	78.6836	366.211	78.578	366.211	78.5552	366.211	78.2094	366.211	78.5995	366.211	78.0872	366.211	78.7748	366.211	78.2123	366.211	79.0143	366.211	78.5061	366.211	79.252	366.211	78.8587	366.211	79.4372	366.211	79.1784	366.211	79.5366	366.211	79.4103	366.211	79.5307
379.395	82.5801	379.395	82.4779	379.395	82.581	379.395	82.2749	379.395	82.4802	379.395	81.9728	379.395	82.2775	379.395	81.5765	379.395	81.9741	379.395	81.0974	379.395	81.5746	379.395	80.5584	379.395	81.0904	379.395	79.9994	379.395	80.5441	379.395	79.4799	379.395	79.9739	379.395	79.072	379.395	79.4361	379.395	78.8397	379.395	78.9999	379.395	78.8096	379.395	78.7311	379.395	78.9569	379.395	78.6654	379.395	79.218	379.395	78.7902	379.395	79.5183	379.395	79.0495	379.395	79.7924	379.395	79.3684	379.395	79.992	379.395	79.6765	379.395	80.0867	379.395	79.9195	379.395	80.0621
392.578	82.4796	392.578	82.3937	392.578	82.467	392.578	82.2077	392.578	82.3576	392.578	81.9203	392.578	82.1527	392.578	81.5321	392.578	81.8542	392.578	81.0477	392.578	81.4652	392.578	80.4808	392.578	80.9921	392.578	79.8612	392.578	80.4489	392.578	79.2434	392.578	79.8628	392.578	78.7106	392.578	79.2812	392.578	78.3605	392.578	78.7753	392.578	78.2646	392.578	78.4315	392.578	78.4226	392.578	78.3183	392.578	78.7584	392.578	78.4453	392.578	79.1625	392.578	78.7512	392.578	79.5365	392.578	79.1359	392.578	79.8127	392.578	79.5042	392.578	79.9533	392.578	79.7873	392.578	79.9437
405.762	82.1511	405.762	82.0612	405.762	82.1387	405.762	81.8721	405.762	82.0228	405.762	81.5884	405.762	81.8039	405.762	81.2159	405.762	81.4846	405.762	80.7623	405.762	81.0701	405.762	80.2417	405.762	80.571	405.762	79.6807	405.762	80.0074	405.762	79.128	405.762	79.4167	405.762	78.6571	405.762	78.8595	405.762	78.351	405.762	78.4169	405.762	78.2653	405.762	78.1677	405.762	78.3944	405.762	78.1506	405.762	78.6738	405.762	78.3407	405.762	79.0159	405.762	78.6631	405.762	79.3418	405.762	79.0294	405.762	79.593	405.762	79.3635	405.762	79.7319	405.762	79.6111	405.762	79.7388
420.41	82.652	420.41	82.5204	420.41	82.6558	420.41	82.2663	420.41	82.5291	420.41	81.8971	420.41	82.2725	420.41	81.4215	420.41	81.8902	420.41	80.8506	420.41	81.3902	420.41	80.1999	420.41	80.7849	420.41	79.4972	420.41	80.0933	420.41	78.7952	420.41	79.347	420.41	78.1853	420.41	78.6021	420.41	77.7883	420.41	77.9519	420.41	77.6964	420.41	77.5197	420.41	77.899	420.41	77.4047	420.41	78.2829	420.41	77.6071	420.41	78.709	420.41	78.0185	420.41	79.0751	420.41	78.4944	420.41	79.3269	420.41	78.9216	420.41	79.4418	420.41	79.2365	420.41	79.4122
435.059	82.3299	435.059	82.214	435.059	82.3523	435.059	82.003	435.059	82.279	435.059	81.6915	435.059	82.1043	435.059	81.2732	435.059	81.8209	435.059	80.7461	435.059	81.4221	435.059	80.1186	435.059	80.9053	435.059	79.4188	435.059	80.2781	435.059	78.7043	435.059	79.5675	435.059	78.0693	435.059	78.8342	435.059	77.6341	435.059	78.1822	435.059	77.4986	435.059	77.7454	435.059	77.6778	435.059	77.6276	435.059	78.0851	435.059	77.8289	435.059	78.5852	435.059	78.2427	435.059	79.0566	435.059	78.7267	435.059	79.4161	435.059	79.1647	435.059	79.617	435.059	79.4825	435.059	79.6392
451.172	82.687	451.172	82.6002	451.172	82.6494	451.172	82.3861	451.172	82.4926	451.172	82.0442	451.172	82.2233	451.172	81.5749	451.172	81.8478	451.172	80.9785	451.172	81.3715	451.172	80.2588	451.172	80.8006	451.172	79.4342	451.172	80.1455	451.172	78.5608	451.172	79.4287	451.172	77.7597	451.172	78.6959	451.172	77.2158	451.172	78.0296	451.172	77.0897	451.172	77.5526	451.172	77.3806	451.172	77.3896	451.172	77.9214	451.172	77.5808	451.172	78.5144	451.172	78.0328	451.172	79.0261	451.172	78.5783	451.172	79.391	451.172	79.0701	451.172	79.5837	451.172	79.421	451.172	79.5947
465.82	82.6772	465.82	82.5453	465.82	82.6875	465.82	82.2945	465.82	82.5755	465.82	81.9293	465.82	82.3418	465.82	81.4565	465.82	81.9873	465.82	80.884	465.82	81.5126	465.82	80.2209	465.82	80.9199	465.82	79.4801	465.82	80.2166	465.82	78.6894	465.82	79.4263	465.82	77.9116	465.82	78.6032	465.82	77.2669	465.82	77.8476	465.82	76.9165	465.82	77.2995	465.82	76.969	465.82	77.0839	465.82	77.3761	465.82	77.2277	465.82	77.9614	465.82	77.637	465.82	78.5394	465.82	78.1613	465.82	78.9833	465.82	78.6638	465.82	79.2263	465.82	79.0459	465.82	79.2448
483.398	82.7274	483.398	82.6514	483.398	82.6948	483.398	82.4646	483.398	82.5535	483.398	82.1606	483.398	82.3024	483.398	81.7287	483.398	81.939	483.398	81.1557	483.398	81.4602	483.398	80.4316	483.398	80.8626	483.398	79.5601	483.398	80.1475	483.398	78.5796	483.398	79.331	483.398	77.597	483.398	78.4618	483.398	76.8194	483.398	77.644	483.398	76.4991	483.398	77.0433	483.398	76.7329	483.398	76.8282	483.398	77.3485	483.398	77.0466	483.398	78.0721	483.398	77.5737	483.398	78.708	483.398	78.2085	483.398	79.162	483.398	78.7843	483.398	79.3999	483.398	79.2014	483.398	79.4124
499.512	82.6095	499.512	82.4995	499.512	82.6136	499.512	82.2911	499.512	82.5034	499.512	81.9884	499.512	82.2731	499.512	81.5885	499.512	81.9205	499.512	81.0813	499.512	81.4477	499.512	80.4527	499.512	80.8584	499.512	79.6939	499.512	80.1585	499.512	78.8207	499.512	79.3614	499.512	77.9033	499.512	78.5057	499.512	77.1002	499.512	77.6837	499.512	76.6427	499.512	77.0573	499.512	76.695	499.512	76.804	499.512	77.1897	499.512	76.9823	499.512	77.8839	499.512	77.4705	499.512	78.5438	499.512	78.0717	499.512	79.0279	499.512	78.6293	499.512	79.2753	499.512	79.0491	499.512	79.2762
517.09	82.8535	517.09	82.7294	517.09	82.8582	517.09	82.4799	517.09	82.7484	517.09	82.1006	517.09	82.5254	517.09	81.5894	517.09	82.186	517.09	80.9469	517.09	81.7237	517.09	80.1777	517.09	81.1305	517.09	79.2959	517.09	80.4011	517.09	78.3413	517.09	79.5393	517.09	77.4058	517.09	78.5752	517.09	76.6612	517.09	77.6025	517.09	76.3247	517.09	76.8278	517.09	76.5104	517.09	76.5353	517.09	77.1067	517.09	76.8525	517.09	77.8731	517.09	77.5807	517.09	78.6037	517.09	78.3932	517.09	79.1779	517.09	79.0631	517.09	79.5354	517.09	79.4896	517.09	79.6454
536.133	82.3444	536.133	82.2758	536.133	82.2981	536.133	82.0916	536.133	82.1395	536.133	81.792	536.133	81.8717	536.133	81.3752	536.133	81.4962	536.133	80.8335	536.133	81.0098	536.133	80.1501	536.133	80.4061	536.133	79.3008	536.133	79.68	536.133	78.2702	536.133	78.838	536.133	77.0942	536.133	77.9163	536.133	75.9444	536.133	77.0123	536.133	75.199	536.133	76.3164	536.133	75.241	536.133	76.0708	536.133	76.0001	536.133	76.3816	536.133	77.0393	536.133	77.0863	536.133	78.0036	536.133	77.9002	536.133	78.7279	536.133	78.6036	536.133	79.1545	536.133	79.0781	536.133	79.2694
555.176	82.9142	555.176	82.7692	555.176	82.9496	555.176	82.5253	555.176	82.865	555.176	82.1893	555.176	82.6527	555.176	81.7607	555.176	82.3071	555.176	81.2305	555.176	81.8204	555.176	80.5814	555.176	81.1782	555.176	79.7911	555.176	80.3594	555.176	78.8427	555.176	79.3431	555.176	77.7536	555.176	78.129	555.176	76.6398	555.176	76.7834	555.176	75.7976	555.176	75.5308	555.176	75.6174	555.176	74.8176	555.176	76.1743	555.176	75.0239	555.176	77.105	555.176	75.9621	555.176	78.016	555.176	77.1091	555.176	78.6982	555.176	78.0989	555.176	79.0705	555.176	78.7779	555.176	79.1021
574.219	83.0935	574.219	82.9933	574.219	83.0758	574.219	82.7715	574.219	82.9454	574.219	82.4274	574.219	82.7058	574.219	81.9606	574.219	82.3544	574.219	81.3672	574.219	81.8811	574.219	80.6363	574.219	81.2694	574.219	79.7512	574.219	80.5004	574.219	78.6972	574.219	79.5611	574.219	77.4914	574.219	78.464	574.219	76.2574	574.219	77.2871	574.219	75.3412	574.219	76.2411	574.219	75.2274	574.219	75.6805	574.219	75.9889	574.219	75.8601	574.219	77.1413	574.219	76.6249	574.219	78.2121	574.219	77.5867	574.219	78.9779	574.219	78.4527	574.219	79.3728	574.219	79.0784	574.219	79.3978
594.727	83.3818	594.727	83.2549	594.727	83.3737	594.727	82.9926	594.727	83.2347	594.727	82.6007	594.727	82.9692	594.727	82.0893	594.727	82.5799	594.727	81.4646	594.727	82.0651	594.727	80.7173	594.727	81.4154	594.727	79.8174	594.727	80.6084	594.727	78.7245	594.727	79.6043	594.727	77.4193	594.727	78.3518	594.727	75.977	594.727	76.8285	594.727	74.7053	594.727	75.1774	594.727	74.1873	594.727	73.9791	594.727	74.7345	594.727	74.0574	594.727	75.9027	594.727	75.2409	594.727	77.1034	594.727	76.6388	594.727	78.0345	594.727	77.7561	594.727	78.5899	594.727	78.4606	594.727	78.7362
615.234	83.719	615.234	83.6073	615.234	83.7105	615.234	83.3806	615.234	83.578	615.234	83.0413	615.234	83.3222	615.234	82.5848	615.234	82.9467	615.234	82.0001	615.234	82.4507	615.234	81.2693	615.234	81.8211	615.234	80.3691	615.234	81.0291	615.234	79.2715	615.234	80.0355	615.234	77.956	615.234	78.8057	615.234	76.451	615.234	77.3353	615.234	74.9423	615.234	75.7103	615.234	73.9224	615.234	74.2536	615.234	73.9461	615.234	73.6177	615.234	74.859	615.234	74.1615	615.234	75.9955	615.234	75.3322	615.234	76.9101	615.234	76.4501	615.234	77.4404	615.234	77.2127	615.234	77.5446
637.207	83.7876	637.207	83.6592	637.207	83.8055	637.207	83.4302	637.207	83.7105	637.207	83.1132	637.207	83.5065	637.207	82.7156	637.207	83.1994	637.207	82.2307	637.207	82.7904	637.207	81.6297	637.207	82.2698	637.207	80.8603	637.207	81.6141	637.207	79.8543	637.207	80.7844	637.207	78.5499	637.207	79.7327	637.207	76.9594	637.207	78.4244	637.207	75.3459	637.207	76.8994	637.207	74.4247	637.207	75.4111	637.207	74.7712	637.207	74.5538	637.207	75.8855	637.207	74.8107	637.207	77.0171	637.207	75.8283	637.207	77.8342	637.207	76.9413	637.207	78.2459	637.207	77.784	637.207	78.2296
659.18	82.9868	659.18	82.8992	659.18	82.9732	659.18	82.7076	659.18	82.8643	659.18	82.4145	659.18	82.6647	659.18	82.0255	659.18	82.3739	659.18	81.5427	659.18	81.9831	659.18	80.9574	659.18	81.4754	659.18	80.2448	659.18	80.8254	659.18	79.3629	659.18	80.0001	659.18	78.2625	659.18	78.9611	659.18	76.9259	659.18	77.6799	659.18	75.4834	659.18	76.1997	659.18	74.4173	659.18	74.7973	659.18	74.3918	659.18	74.1229	659.18	75.3158	659.18	74.613	659.18	76.4606	659.18	75.7583	659.18	77.3583	659.18	76.8641	659.18	77.8651	659.18	77.6205	659.18	77.9549
682.617	82.8842	682.617	82.7824	682.617	82.862	682.617	82.5576	682.617	82.7239	682.617	82.2213	682.617	82.4849	682.617	81.7938	682.617	82.1648	682.617	81.2936	682.617	81.7806	682.617	80.7177	682.617	81.33	682.617	80.0293	682.617	80.7733	682.617	79.1655	682.617	80.0334	682.617	78.0638	682.617	79.0191	682.617	76.7041	682.617	77.6657	682.617	75.2047	682.617	76.003	682.617	74.0248	682.617	74.3145	682.617	73.9089	682.617	73.3379	682.617	74.8996	682.617	73.7174	682.617	76.1943	682.617	74.9725	682.617	77.2014	682.617	76.2764	682.617	77.7232	682.617	77.2348	682.617	77.7292
707.52	83.2363	707.52	83.108	707.52	83.2672	707.52	82.8927	707.52	83.1895	707.52	82.594	707.52	82.9987	707.52	82.2083	707.52	82.6986	707.52	81.7289	707.52	82.2949	707.52	81.1447	707.52	81.7887	707.52	80.4287	707.52	81.1723	707.52	79.5232	707.52	80.424	707.52	78.3431	707.52	79.4933	707.52	76.8199	707.52	78.2925	707.52	75.0352	707.52	76.7388	707.52	73.5412	707.52	74.9283	707.52	73.3803	707.52	73.5546	707.52	74.5939	707.52	73.7326	707.52	76.1195	707.52	75.1346	707.52	77.3076	707.52	76.5959	707.52	77.9705	707.52	77.6092	707.52	78.0716
732.422	84.0564	732.422	83.8943	732.422	84.0583	732.422	83.5848	732.422	83.9157	732.422	83.1659	732.422	83.6607	732.422	82.682	732.422	83.3228	732.422	82.155	732.422	82.9132	732.422	81.5622	732.422	82.4199	732.422	80.8381	732.422	81.8126	732.422	79.8952	732.422	81.0484	732.422	78.6483	732.422	80.0729	732.422	77.0439	732.422	78.8244	732.422	75.185	732.422	77.2632	732.422	73.7269	732.422	75.507	732.422	73.8544	732.422	74.1879	732.422	75.3464	732.422	74.3326	732.422	76.9494	732.422	75.7085	732.422	78.1006	732.422	77.1974	732.422	78.7025	732.422	78.2521	732.422	78.7545
757.324	84.2032	757.324	84.0493	757.324	84.2262	757.324	83.7841	757.324	84.1031	757.324	83.4293	757.324	83.8356	757.324	83.01	757.324	83.4555	757.324	82.5442	757.324	83.0172	757.324	82.0247	757.324	82.5555	757.324	81.4066	757.324	82.044	757.324	80.6125	757.324	81.4008	757.324	79.5446	757.324	80.5274	757.324	78.0983	757.324	79.3359	757.324	76.2312	757.324	77.7711	757.324	74.2979	757.324	75.9212	757.324	73.6431	757.324	74.3955	757.324	74.946	757.324	74.3685	757.324	76.7242	757.324	75.7262	757.324	78.0214	757.324	77.2255	757.324	78.6852	757.324	78.2704	757.324	78.7579
785.156	84.6223	785.156	84.5083	785.156	84.5712	785.156	84.2296	785.156	84.3804	785.156	83.8162	785.156	84.0855	785.156	83.3189	785.156	83.7122	785.156	82.7905	785.156	83.2684	785.156	82.2565	785.156	82.7536	785.156	81.6822	785.156	82.1602	785.156	80.96	785.156	81.4477	785.156	79.9355	785.156	80.5236	785.156	78.4545	785.156	79.2702	785.156	76.4312	785.156	77.602	785.156	74.0738	785.156	75.5514	785.156	72.5814	785.156	73.5726	785.156	73.4512	785.156	73.0232	785.156	75.4836	785.156	74.4743	785.156	77.2129	785.156	76.4143	785.156	78.225	785.156	77.8201	785.156	78.4346
811.523	84.1635	811.523	83.9841	811.523	84.1944	811.523	83.6875	811.523	84.0506	811.523	83.2955	811.523	83.7343	811.523	82.8265	811.523	83.286	811.523	82.3028	811.523	82.7671	811.523	81.7348	811.523	82.2262	811.523	81.0969	811.523	81.6756	811.523	80.3251	811.523	81.0858	811.523	79.3249	811.523	80.3687	811.523	77.9728	811.523	79.3583	811.523	76.1471	811.523	77.8383	811.523	73.993	811.523	75.6911	811.523	72.7707	811.523	73.4437	811.523	73.8978	811.523	72.9512	811.523	75.8621	811.523	74.4792	811.523	77.3031	811.523	76.1941	811.523	77.9944	811.523	77.3917	811.523	78
840.82	84.2655	840.82	84.1124	840.82	84.1838	840.82	83.7321	840.82	83.9046	840.82	83.1883	840.82	83.4919	840.82	82.5938	840.82	83.0202	840.82	82.0677	840.82	82.5592	840.82	81.6618	840.82	82.1433	840.82	81.3117	840.82	81.7348	840.82	80.8652	840.82	81.2282	840.82	80.149	840.82	80.5058	840.82	79.0048	840.82	79.4772	840.82	77.293	840.82	78.0528	840.82	74.9738	840.82	76.1122	840.82	72.7112	840.82	73.7201	840.82	72.6373	840.82	72.1782	840.82	74.542	840.82	73.334	840.82	76.2703	840.82	75.3985	840.82	77.2197	840.82	76.8121	840.82	77.3978
870.117	84.0888	870.117	83.8566	870.117	84.1249	870.117	83.4398	870.117	83.9605	870.117	82.8744	870.117	83.5969	870.117	82.2401	870.117	83.0545	870.117	81.6399	870.117	82.3894	870.117	81.128	870.117	81.6998	870.117	80.6579	870.117	81.0857	870.117	80.1157	870.117	80.5588	870.117	79.3708	870.117	79.9918	870.117	78.2814	870.117	79.1848	870.117	76.7122	870.117	77.9692	870.117	74.6991	870.117	76.2848	870.117	72.9958	870.117	74.3549	870.117	73.1314	870.117	73.155	870.117	74.7636	870.117	73.8292	870.117	76.3732	870.117	75.5102	870.117	77.3468	870.117	76.8962	870.117	77.5335
900.879	84.2869	900.879	84.0889	900.879	84.2683	900.879	83.6967	900.879	84.0195	900.879	83.1247	900.879	83.5574	900.879	82.3933	900.879	82.939	900.879	81.5736	900.879	82.2517	900.879	80.8031	900.879	81.5813	900.879	80.1882	900.879	80.9724	900.879	79.6583	900.879	80.4092	900.879	78.9794	900.879	79.8088	900.879	77.9042	900.879	79.0154	900.879	76.2703	900.879	77.8187	900.879	74.1279	900.879	76.0303	900.879	72.3929	900.879	73.7471	900.879	72.9956	900.879	72.2819	900.879	75.1279	900.879	73.4127	900.879	76.9072	900.879	75.5365	900.879	77.8318	900.879	77.1187	900.879	77.8902
933.105	84.7225	933.105	84.4407	933.105	84.7243	933.105	83.9163	933.105	84.4459	933.105	83.2158	933.105	83.9227	933.105	82.4274	933.105	83.2236	933.105	81.6543	933.105	82.4513	933.105	80.9808	933.105	81.7228	933.105	80.4031	933.105	81.1088	933.105	79.8113	933.105	80.5724	933.105	79.0446	933.105	79.9762	933.105	77.915	933.105	79.1379	933.105	76.1805	933.105	77.8546	933.105	73.6371	933.105	75.8963	933.105	71.1497	933.105	73.1921	933.105	71.929	933.105	71.1553	933.105	74.5359	933.105	72.521	933.105	76.401	933.105	74.9792	933.105	77.3018	933.105	76.6339	933.105	77.3743
965.332	84.9723	965.332	84.7332	965.332	84.9645	965.332	84.2589	965.332	84.6976	965.332	83.5547	965.332	84.1803	965.332	82.6498	965.332	83.4494	965.332	81.6501	965.332	82.5674	965.332	80.7497	965.332	81.6364	965.332	80.0979	965.332	80.81	965.332	79.5931	965.332	80.204	965.332	78.9294	965.332	79.7323	965.332	77.8349	965.332	79.1121	965.332	76.1696	965.332	78.0402	965.332	73.9045	965.332	76.2936	965.332	71.4595	965.332	73.8081	965.332	71.072	965.332	71.5132	965.332	73.4492	965.332	72.1864	965.332	75.7471	965.332	74.6266	965.332	76.9967	965.332	76.4218	965.332	77.2036
1,000.49	85.3438	1,000.49	85.1102	1,000.49	85.2596	1,000.49	84.5777	1,000.49	84.8782	1,000.49	83.8038	1,000.49	84.2492	1,000.49	82.8803	1,000.49	83.4461	1,000.49	81.9322	1,000.49	82.5765	1,000.49	81.0898	1,000.49	81.7787	1,000.49	80.4157	1,000.49	81.1602	1,000.49	79.8521	1,000.49	80.6963	1,000.49	79.2291	1,000.49	80.2071	1,000.49	78.2938	1,000.49	79.4575	1,000.49	76.7433	1,000.49	78.2553	1,000.49	74.296	1,000.49	76.4768	1,000.49	71.1985	1,000.49	74.1451	1,000.49	70.4269	1,000.49	71.9966	1,000.49	73.1146	1,000.49	72.1493	1,000.49	75.6116	1,000.49	74.3398	1,000.49	76.9836	1,000.49	76.2867	1,000.49	77.2049
1,035.64	85.9065	1,035.64	85.6251	1,035.64	85.873	1,035.64	85.0465	1,035.64	85.5134	1,035.64	84.1858	1,035.64	84.8325	1,035.64	83.0586	1,035.64	83.8643	1,035.64	81.7241	1,035.64	82.6973	1,035.64	80.3815	1,035.64	81.5014	1,035.64	79.4041	1,035.64	80.5094	1,035.64	79.0117	1,035.64	79.8922	1,035.64	78.9004	1,035.64	79.5839	1,035.64	78.5362	1,035.64	79.2792	1,035.64	77.5021	1,035.64	78.6003	1,035.64	75.5097	1,035.64	77.2026	1,035.64	72.6787	1,035.64	74.8464	1,035.64	71.5401	1,035.64	72.2351	1,035.64	74.0245	1,035.64	72.7645	1,035.64	76.5512	1,035.64	75.5039	1,035.64	77.9524	1,035.64	77.4599	1,035.64	78.25
1,072.27	86.533	1,072.27	86.2831	1,072.27	86.5041	1,072.27	85.7544	1,072.27	86.1814	1,072.27	84.921	1,072.27	85.5726	1,072.27	83.7848	1,072.27	84.7034	1,072.27	82.4563	1,072.27	83.5933	1,072.27	81.1765	1,072.27	82.3087	1,072.27	80.195	1,072.27	81.077	1,072.27	79.5743	1,072.27	80.1958	1,072.27	79.1313	1,072.27	79.6787	1,072.27	78.5149	1,072.27	79.2146	1,072.27	77.3021	1,072.27	78.4207	1,072.27	75.0771	1,072.27	76.9171	1,072.27	71.8247	1,072.27	74.3899	1,072.27	70.7176	1,072.27	71.4211	1,072.27	73.7925	1,072.27	71.6701	1,072.27	76.488	1,072.27	74.6103	1,072.27	77.8466	1,072.27	76.8835	1,072.27	77.9624
1,108.89	86.9325	1,108.89	86.7134	1,108.89	86.8531	1,108.89	86.1864	1,108.89	86.4715	1,108.89	85.3241	1,108.89	85.7972	1,108.89	84.1362	1,108.89	84.8417	1,108.89	82.7267	1,108.89	83.6092	1,108.89	81.2841	1,108.89	82.17	1,108.89	80.0472	1,108.89	80.7729	1,108.89	79.2761	1,108.89	79.7756	1,108.89	78.9826	1,108.89	79.301	1,108.89	78.6922	1,108.89	79.0774	1,108.89	77.8029	1,108.89	78.6323	1,108.89	75.8845	1,108.89	77.4624	1,108.89	72.7701	1,108.89	75.13	1,108.89	70.5621	1,108.89	71.793	1,108.89	73.2482	1,108.89	71.3552	1,108.89	76.3557	1,108.89	74.7181	1,108.89	78.0396	1,108.89	77.2646	1,108.89	78.3386
1,148.44	87.0799	1,148.44	86.8884	1,148.44	86.9715	1,148.44	86.382	1,148.44	86.5845	1,148.44	85.5579	1,148.44	85.9288	1,148.44	84.4342	1,148.44	84.9779	1,148.44	83.0572	1,148.44	83.6987	1,148.44	81.5208	1,148.44	82.1643	1,148.44	80.0362	1,148.44	80.6393	1,148.44	78.9583	1,148.44	79.4631	1,148.44	78.4257	1,148.44	78.7846	1,148.44	77.9913	1,148.44	78.4138	1,148.44	77.0042	1,148.44	77.8578	1,148.44	74.9472	1,148.44	76.5564	1,148.44	71.5868	1,148.44	74.0712	1,148.44	69.8173	1,148.44	70.6629	1,148.44	73.3921	1,148.44	70.7891	1,148.44	76.6479	1,148.44	74.5267	1,148.44	78.2804	1,148.44	77.2319	1,148.44	78.4529
1,189.45	87.007	1,189.45	86.7977	1,189.45	86.9381	1,189.45	86.274	1,189.45	86.6026	1,189.45	85.4153	1,189.45	85.9789	1,189.45	84.2482	1,189.45	85.0383	1,189.45	82.8446	1,189.45	83.78	1,189.45	81.3161	1,189.45	82.2656	1,189.45	79.8428	1,189.45	80.6338	1,189.45	78.7167	1,189.45	79.1289	1,189.45	78.1956	1,189.45	78.1974	1,189.45	78.0602	1,189.45	78.0486	1,189.45	77.5783	1,189.45	77.9653	1,189.45	75.9784	1,189.45	77.0786	1,189.45	72.6945	1,189.45	74.9302	1,189.45	69.4489	1,189.45	71.2564	1,189.45	72.3691	1,189.45	69.0214	1,189.45	75.9132	1,189.45	73.1697	1,189.45	77.7786	1,189.45	76.576	1,189.45	78.0237
1,230.47	87.1083	1,230.47	86.7987	1,230.47	87.1351	1,230.47	86.2455	1,230.47	86.8568	1,230.47	85.4634	1,230.47	86.2916	1,230.47	84.4408	1,230.47	85.4762	1,230.47	83.173	1,230.47	84.4182	1,230.47	81.6993	1,230.47	83.0705	1,230.47	80.1902	1,230.47	81.4219	1,230.47	79.0042	1,230.47	79.7129	1,230.47	78.3303	1,230.47	78.4877	1,230.47	77.8154	1,230.47	77.991	1,230.47	76.9057	1,230.47	77.7079	1,230.47	75.0446	1,230.47	76.8376	1,230.47	71.2846	1,230.47	74.5638	1,230.47	64.6574	1,230.47	69.9799	1,230.47	69.6787	1,230.47	67.0852	1,230.47	74.7374	1,230.47	72.2281	1,230.47	76.826	1,230.47	75.5879	1,230.47	77.0147
1,274.41	87.0189	1,274.41	86.6843	1,274.41	87.0335	1,274.41	86.0702	1,274.41	86.7083	1,274.41	85.2155	1,274.41	86.0468	1,274.41	84.1367	1,274.41	85.0641	1,274.41	82.8426	1,274.41	83.8089	1,274.41	81.3861	1,274.41	82.4216	1,274.41	79.896	1,274.41	81.0897	1,274.41	78.5702	1,274.41	79.8797	1,274.41	77.6985	1,274.41	78.8149	1,274.41	77.445	1,274.41	78.0647	1,274.41	77.2696	1,274.41	77.6299	1,274.41	76.1836	1,274.41	77.0484	1,274.41	73.2412	1,274.41	75.5628	1,274.41	67.6362	1,274.41	71.9612	1,274.41	68.3486	1,274.41	65.1153	1,274.41	73.5475	1,274.41	70.4232	1,274.41	76.111	1,274.41	75.0914	1,274.41	76.647
1,319.82	86.5199	1,319.82	86.1709	1,319.82	86.5198	1,319.82	85.5492	1,319.82	86.1548	1,319.82	84.7114	1,319.82	85.4878	1,319.82	83.632	1,319.82	84.5642	1,319.82	82.268	1,319.82	83.3463	1,319.82	80.6826	1,319.82	81.837	1,319.82	78.9694	1,319.82	80.1406	1,319.82	77.26	1,319.82	78.3655	1,319.82	76.2795	1,319.82	76.9849	1,319.82	76.5264	1,319.82	76.8525	1,319.82	76.7942	1,319.82	77.3387	1,319.82	75.9001	1,319.82	77.0072	1,319.82	73.1547	1,319.82	75.0346	1,319.82	67.767	1,319.82	70.8129	1,319.82	66.8966	1,319.82	66.0425	1,319.82	72.3834	1,319.82	70.0522	1,319.82	75.1364	1,319.82	73.9696	1,319.82	75.6013
1,366.7	85.8155	1,366.7	85.5491	1,366.7	85.7365	1,366.7	84.947	1,366.7	85.39	1,366.7	84.0915	1,366.7	84.8184	1,366.7	83.0439	1,366.7	83.9404	1,366.7	81.799	1,366.7	82.6617	1,366.7	80.3034	1,366.7	81.0578	1,366.7	78.5505	1,366.7	79.3493	1,366.7	76.846	1,366.7	77.6523	1,366.7	75.8991	1,366.7	76.2433	1,366.7	75.7706	1,366.7	75.7935	1,366.7	75.7021	1,366.7	76.0334	1,366.7	75.0772	1,366.7	76.0044	1,366.7	73.0146	1,366.7	74.7733	1,366.7	67.7905	1,366.7	71.1438	1,366.7	66.2945	1,366.7	65.5642	1,366.7	72.4243	1,366.7	68.9013	1,366.7	74.8035	1,366.7	72.7726	1,366.7	74.711
1,413.57	85.3446	1,413.57	85.1481	1,413.57	85.4324	1,413.57	84.7473	1,413.57	85.2648	1,413.57	84.0206	1,413.57	84.6788	1,413.57	83.0151	1,413.57	83.7497	1,413.57	81.7799	1,413.57	82.6515	1,413.57	80.2849	1,413.57	81.4588	1,413.57	78.7175	1,413.57	80.1267	1,413.57	77.4712	1,413.57	78.5075	1,413.57	76.6929	1,413.57	76.6707	1,413.57	76.4226	1,413.57	75.4968	1,413.57	76.4277	1,413.57	75.6093	1,413.57	75.8598	1,413.57	75.9199	1,413.57	73.7842	1,413.57	75.2829	1,413.57	69.1467	1,413.57	72.8891	1,413.57	63.6727	1,413.57	67.3752	1,413.57	68.3232	1,413.57	65.6424	1,413.57	71.5113	1,413.57	70.8759	1,413.57	72.3902
1,463.38	85.5556	1,463.38	85.381	1,463.38	85.4602	1,463.38	84.8176	1,463.38	85.1785	1,463.38	83.921	1,463.38	84.6752	1,463.38	82.863	1,463.38	83.8625	1,463.38	81.6731	1,463.38	82.6359	1,463.38	80.2307	1,463.38	81.0124	1,463.38	78.5004	1,463.38	79.245	1,463.38	76.7074	1,463.38	77.5978	1,463.38	75.2913	1,463.38	76.0179	1,463.38	74.6491	1,463.38	74.9291	1,463.38	74.9108	1,463.38	75.4502	1,463.38	75.0645	1,463.38	76.2048	1,463.38	73.5483	1,463.38	75.7413	1,463.38	69.1434	1,463.38	73.5616	1,463.38	64.8788	1,463.38	67.7358	1,463.38	69.3017	1,463.38	62.9646	1,463.38	71.8911	1,463.38	70.167	1,463.38	72.2224
1,516.11	85.7431	1,516.11	85.5401	1,516.11	85.5936	1,516.11	85.0093	1,516.11	85.2214	1,516.11	84.2091	1,516.11	84.7074	1,516.11	83.089	1,516.11	83.9028	1,516.11	81.6578	1,516.11	82.6752	1,516.11	80.1228	1,516.11	81.1729	1,516.11	78.5499	1,516.11	79.5896	1,516.11	76.7786	1,516.11	77.971	1,516.11	75.2454	1,516.11	76.5145	1,516.11	74.8795	1,516.11	75.5315	1,516.11	75.2947	1,516.11	75.3913	1,516.11	75.4073	1,516.11	75.7671	1,516.11	74.4128	1,516.11	75.4114	1,516.11	71.4563	1,516.11	73.4436	1,516.11	66.3257	1,516.11	68.9958	1,516.11	68.7929	1,516.11	65.1481	1,516.11	72.4903	1,516.11	69.8537	1,516.11	72.693
1,568.85	85.275	1,568.85	85.0052	1,568.85	85.1931	1,568.85	84.5281	1,568.85	84.7068	1,568.85	83.8858	1,568.85	83.993	1,568.85	82.9903	1,568.85	83.1652	1,568.85	81.7759	1,568.85	82.1002	1,568.85	80.3364	1,568.85	80.8774	1,568.85	78.6895	1,568.85	79.6347	1,568.85	76.6575	1,568.85	77.9694	1,568.85	74.6573	1,568.85	75.7953	1,568.85	74.0784	1,568.85	74.2925	1,568.85	74.5928	1,568.85	74.0827	1,568.85	74.644	1,568.85	74.559	1,568.85	73.5979	1,568.85	74.8486	1,568.85	70.9228	1,568.85	73.7419	1,568.85	66.2191	1,568.85	70.1317	1,568.85	68.1195	1,568.85	65.1093	1,568.85	71.8761	1,568.85	68.6979	1,568.85	71.9735
1,624.51	84.6064	1,624.51	84.3417	1,624.51	84.5691	1,624.51	83.822	1,624.51	84.1559	1,624.51	83.0949	1,624.51	83.4279	1,624.51	82.2111	1,624.51	82.5812	1,624.51	81.1218	1,624.51	81.6085	1,624.51	79.79	1,624.51	80.328	1,624.51	78.1516	1,624.51	78.8276	1,624.51	76.128	1,624.51	77.1791	1,624.51	74.3117	1,624.51	75.2502	1,624.51	73.7733	1,624.51	73.6033	1,624.51	74.4228	1,624.51	73.1718	1,624.51	74.9159	1,624.51	73.6678	1,624.51	73.9603	1,624.51	73.6641	1,624.51	70.9469	1,624.51	72.1395	1,624.51	66.6498	1,624.51	69.01	1,624.51	67.6457	1,624.51	66.0037	1,624.51	70.5388	1,624.51	68.4292	1,624.51	70.8702
1,681.64	85.3194	1,681.64	85.0378	1,681.64	85.2771	1,681.64	84.4217	1,681.64	84.945	1,681.64	83.61	1,681.64	84.3305	1,681.64	82.7304	1,681.64	83.4858	1,681.64	81.6426	1,681.64	82.4118	1,681.64	80.2248	1,681.64	81.0083	1,681.64	78.5874	1,681.64	79.3176	1,681.64	76.4593	1,681.64	77.5532	1,681.64	73.9232	1,681.64	75.6617	1,681.64	73.304	1,681.64	74.0494	1,681.64	74.4178	1,681.64	74.0067	1,681.64	75.103	1,681.64	74.6701	1,681.64	74.3329	1,681.64	75.0786	1,681.64	71.2586	1,681.64	74.3391	1,681.64	68.1794	1,681.64	71.3303	1,681.64	70.6796	1,681.64	69.1248	1,681.64	73.2535	1,681.64	71.6111	1,681.64	73.4653
1,741.7	86.5952	1,741.7	86.2046	1,741.7	86.5891	1,741.7	85.5147	1,741.7	86.153	1,741.7	84.627	1,741.7	85.4096	1,741.7	83.6262	1,741.7	84.5616	1,741.7	82.4591	1,741.7	83.5934	1,741.7	81.025	1,741.7	82.4353	1,741.7	79.4141	1,741.7	81.185	1,741.7	77.5852	1,741.7	79.6119	1,741.7	75.1317	1,741.7	77.3749	1,741.7	73.0213	1,741.7	75.1468	1,741.7	73.7959	1,741.7	74.5971	1,741.7	74.949	1,741.7	75.0366	1,741.7	74.6008	1,741.7	75.2961	1,741.7	71.6431	1,741.7	74.5797	1,741.7	65.4094	1,741.7	71.2774	1,741.7	69.6075	1,741.7	68.483	1,741.7	73.5115	1,741.7	72.0036	1,741.7	74.0865
1,803.22	86.8306	1,803.22	86.4663	1,803.22	86.8079	1,803.22	85.7903	1,803.22	86.3684	1,803.22	84.8702	1,803.22	85.6006	1,803.22	83.8808	1,803.22	84.6706	1,803.22	82.8702	1,803.22	83.6334	1,803.22	81.7028	1,803.22	82.3769	1,803.22	80.3186	1,803.22	81.0469	1,803.22	78.5997	1,803.22	79.5277	1,803.22	76.4418	1,803.22	77.267	1,803.22	74.0667	1,803.22	74.8325	1,803.22	73.9728	1,803.22	73.7737	1,803.22	75.6821	1,803.22	74.4807	1,803.22	75.6235	1,803.22	75.5362	1,803.22	73.095	1,803.22	74.849	1,803.22	67.5263	1,803.22	71.4206	1,803.22	68.0065	1,803.22	68.7085	1,803.22	73.3107	1,803.22	72.5726	1,803.22	74.663
1,866.21	87.0738	1,866.21	86.7029	1,866.21	86.9898	1,866.21	86.0051	1,866.21	86.5393	1,866.21	85.0818	1,866.21	85.7763	1,866.21	83.9713	1,866.21	84.6999	1,866.21	82.7942	1,866.21	83.5035	1,866.21	81.5688	1,866.21	82.2398	1,866.21	80.1325	1,866.21	80.8465	1,866.21	78.4389	1,866.21	79.3878	1,866.21	76.6613	1,866.21	77.5574	1,866.21	74.8806	1,866.21	74.4524	1,866.21	74.3908	1,866.21	71.6491	1,866.21	76.1326	1,866.21	72.4901	1,866.21	76.5592	1,866.21	73.8396	1,866.21	74.0208	1,866.21	73.898	1,866.21	68.6364	1,866.21	70.6218	1,866.21	69.3114	1,866.21	66.567	1,866.21	73.7538	1,866.21	71.4435	1,866.21	74.5161
1,932.13	87.1195	1,932.13	86.7533	1,932.13	87.0744	1,932.13	86.1839	1,932.13	86.7276	1,932.13	85.4841	1,932.13	86.0973	1,932.13	84.3027	1,932.13	85.044	1,932.13	82.7625	1,932.13	83.6917	1,932.13	81.47	1,932.13	82.3488	1,932.13	80.2354	1,932.13	81.1587	1,932.13	78.4601	1,932.13	79.9145	1,932.13	76.5346	1,932.13	78.2324	1,932.13	74.7554	1,932.13	75.5361	1,932.13	72.7364	1,932.13	72.1323	1,932.13	74.5113	1,932.13	71.2795	1,932.13	76.0359	1,932.13	72.7474	1,932.13	74.1526	1,932.13	72.6986	1,932.13	67.9844	1,932.13	69.5982	1,932.13	65.4082	1,932.13	65.6736	1,932.13	71.5407	1,932.13	69.2783	1,932.13	72.7281
1,999.51	87.5301	1,999.51	87.3031	1,999.51	87.4376	1,999.51	86.6951	1,999.51	87.0906	1,999.51	85.8375	1,999.51	86.4411	1,999.51	84.7237	1,999.51	85.5109	1,999.51	83.2904	1,999.51	84.2634	1,999.51	81.8172	1,999.51	82.7011	1,999.51	80.4391	1,999.51	81.3283	1,999.51	78.9264	1,999.51	80.0245	1,999.51	77.4832	1,999.51	78.1262	1,999.51	76.1343	1,999.51	76.1583	1,999.51	74.2113	1,999.51	74.1236	1,999.51	73.3416	1,999.51	73.0607	1,999.51	74.7379	1,999.51	74.2068	1,999.51	74.8502	1,999.51	73.897	1,999.51	71.1988	1,999.51	71.3658	1,999.51	66.2968	1,999.51	66.6567	1,999.51	71.3961	1,999.51	68.4903	1,999.51	72.293
2,069.82	86.9233	2,069.82	86.8135	2,069.82	86.8342	2,069.82	86.0985	2,069.82	86.7155	2,069.82	84.9905	2,069.82	86.1703	2,069.82	83.8595	2,069.82	85.1923	2,069.82	82.7547	2,069.82	84.125	2,069.82	81.5293	2,069.82	82.8949	2,069.82	80.2556	2,069.82	81.2374	2,069.82	78.6962	2,069.82	79.34	2,069.82	76.6932	2,069.82	77.119	2,069.82	75.2887	2,069.82	75.1994	2,069.82	73.9194	2,069.82	73.8218	2,069.82	74.3173	2,069.82	71.557	2,069.82	75.3903	2,069.82	73.1049	2,069.82	75.4948	2,069.82	74.2022	2,069.82	72.9433	2,069.82	72.6078	2,069.82	68.7576	2,069.82	68.5003	2,069.82	71.3261	2,069.82	67.7985	2,069.82	71.7017
2,143.07	87.0964	2,143.07	86.7847	2,143.07	87.0434	2,143.07	86.1071	2,143.07	86.6619	2,143.07	84.898	2,143.07	86.1686	2,143.07	83.3273	2,143.07	85.1811	2,143.07	82.3923	2,143.07	83.9142	2,143.07	81.6485	2,143.07	83.0994	2,143.07	79.9407	2,143.07	81.7903	2,143.07	77.6583	2,143.07	79.8712	2,143.07	74.8802	2,143.07	77.7824	2,143.07	73.1062	2,143.07	76.334	2,143.07	71.7961	2,143.07	75.2783	2,143.07	71.5862	2,143.07	72.3206	2,143.07	73.5358	2,143.07	72.7838	2,143.07	74.676	2,143.07	75.0285	2,143.07	72.454	2,143.07	74.749	2,143.07	67.4019	2,143.07	70.1931	2,143.07	70.4768	2,143.07	68.7035	2,143.07	70.8089
2,219.24	88.2015	2,219.24	87.5995	2,219.24	88.1883	2,219.24	87.0822	2,219.24	87.4253	2,219.24	86.3501	2,219.24	86.7112	2,219.24	85.067	2,219.24	85.8729	2,219.24	83.3763	2,219.24	84.4766	2,219.24	81.52	2,219.24	82.7728	2,219.24	79.9828	2,219.24	81.5179	2,219.24	78.7341	2,219.24	81.1061	2,219.24	76.4263	2,219.24	80.1397	2,219.24	72.18	2,219.24	77.9676	2,219.24	67.5394	2,219.24	74.9134	2,219.24	72.0687	2,219.24	71.6906	2,219.24	73.8286	2,219.24	71.862	2,219.24	73.2875	2,219.24	73.95	2,219.24	72.363	2,219.24	74.1764	2,219.24	69.9359	2,219.24	70.3183	2,219.24	72.4454	2,219.24	70.2959	2,219.24	73.5781
2,296.88	88.0017	2,296.88	87.5793	2,296.88	87.8588	2,296.88	87.0804	2,296.88	87.1038	2,296.88	86.553	2,296.88	86.2925	2,296.88	85.4056	2,296.88	85.4206	2,296.88	83.7479	2,296.88	84.0859	2,296.88	81.7757	2,296.88	82.4031	2,296.88	79.5744	2,296.88	80.2999	2,296.88	78.8869	2,296.88	79.0343	2,296.88	78.3088	2,296.88	78.3514	2,296.88	76.5353	2,296.88	75.9983	2,296.88	73.1327	2,296.88	72.6099	2,296.88	70.689	2,296.88	70.0303	2,296.88	74.3824	2,296.88	72.5816	2,296.88	74.2261	2,296.88	72.5219	2,296.88	74.4365	2,296.88	71.8866	2,296.88	73.002	2,296.88	71.5462	2,296.88	74.9076	2,296.88	70.2664	2,296.88	74.0865
2,378.91	87.7381	2,378.91	87.3415	2,378.91	87.8481	2,378.91	86.8306	2,378.91	87.7205	2,378.91	86.045	2,378.91	87.0307	2,378.91	85.2614	2,378.91	86.1239	2,378.91	83.8177	2,378.91	85.5044	2,378.91	81.7705	2,378.91	83.7943	2,378.91	80.6443	2,378.91	80.8695	2,378.91	78.9591	2,378.91	78.5811	2,378.91	77.4727	2,378.91	78.1893	2,378.91	76.6247	2,378.91	77.3467	2,378.91	74.0629	2,378.91	75.0452	2,378.91	69.2459	2,378.91	71.1598	2,378.91	72.452	2,378.91	70.0044	2,378.91	73.6546	2,378.91	72.6507	2,378.91	72.1587	2,378.91	71.3038	2,378.91	72.803	2,378.91	70.4355	2,378.91	75.4789	2,378.91	72.1584	2,378.91	73.7356
2,462.4	87.9584	2,462.4	87.8596	2,462.4	87.8371	2,462.4	87.4352	2,462.4	87.6044	2,462.4	86.7112	2,462.4	87.0037	2,462.4	85.8162	2,462.4	86.0049	2,462.4	84.3981	2,462.4	85.0698	2,462.4	82.6626	2,462.4	83.8285	2,462.4	81.1204	2,462.4	82.274	2,462.4	79.226	2,462.4	80.284	2,462.4	77.3135	2,462.4	78.3515	2,462.4	76.3982	2,462.4	77.2076	2,462.4	74.4523	2,462.4	76.388	2,462.4	71.991	2,462.4	73.7557	2,462.4	74.1351	2,462.4	71.2889	2,462.4	74.6418	2,462.4	73.8431	2,462.4	71.2532	2,462.4	74.7024	2,462.4	64.0883	2,462.4	71.5695	2,462.4	71.7947	2,462.4	68.5652	2,462.4	73.3432
2,548.83	86.6865	2,548.83	86.6632	2,548.83	86.7849	2,548.83	86.3333	2,548.83	86.5045	2,548.83	85.5599	2,548.83	85.7045	2,548.83	84.2948	2,548.83	85.1726	2,548.83	83.0284	2,548.83	84.0864	2,548.83	81.2385	2,548.83	82.4805	2,548.83	79.3638	2,548.83	80.8453	2,548.83	78.6186	2,548.83	79.5336	2,548.83	77.1797	2,548.83	77.6797	2,548.83	74.655	2,548.83	75.3032	2,548.83	73.5825	2,548.83	74.0725	2,548.83	70.9689	2,548.83	72.463	2,548.83	73.1002	2,548.83	69.8241	2,548.83	74.5335	2,548.83	72.6456	2,548.83	72.8691	2,548.83	72.7415	2,548.83	68.9467	2,548.83	70.3876	2,548.83	72.4888	2,548.83	66.9597	2,548.83	71.3195
2,639.65	87.2942	2,639.65	87.1403	2,639.65	87.4679	2,639.65	86.935	2,639.65	87.2437	2,639.65	86.2225	2,639.65	86.8845	2,639.65	85.2763	2,639.65	86.1037	2,639.65	83.5907	2,639.65	84.8635	2,639.65	81.5141	2,639.65	83.3297	2,639.65	79.3983	2,639.65	81.7205	2,639.65	77.2982	2,639.65	80.1156	2,639.65	75.8872	2,639.65	78.5066	2,639.65	74.1787	2,639.65	76.3957	2,639.65	71.6795	2,639.65	75.0866	2,639.65	69.0853	2,639.65	73.9868	2,639.65	69.4062	2,639.65	71.4709	2,639.65	73.4763	2,639.65	72.1401	2,639.65	72.2561	2,639.65	74.4989	2,639.65	67.7226	2,639.65	69.9119	2,639.65	67.9698	2,639.65	69.9345	2,639.65	69.8052
2,731.93	87.1912	2,731.93	87.1554	2,731.93	87.1518	2,731.93	86.8015	2,731.93	86.9756	2,731.93	86.1628	2,731.93	86.6962	2,731.93	85.2303	2,731.93	85.8236	2,731.93	83.6273	2,731.93	84.5296	2,731.93	81.8544	2,731.93	83.1316	2,731.93	79.7262	2,731.93	81.7024	2,731.93	77.5283	2,731.93	79.7576	2,731.93	75.3018	2,731.93	77.6318	2,731.93	73.2465	2,731.93	75.6273	2,731.93	73.333	2,731.93	74.2644	2,731.93	69.4581	2,731.93	74.0814	2,731.93	67.2334	2,731.93	72.6388	2,731.93	71.7976	2,731.93	72.0359	2,731.93	72.2795	2,731.93	73.9633	2,731.93	68.211	2,731.93	71.1518	2,731.93	71.9168	2,731.93	66.1411	2,731.93	71.5527
2,828.61	86.5962	2,828.61	86.6024	2,828.61	86.3482	2,828.61	86.2951	2,828.61	85.9766	2,828.61	85.6075	2,828.61	86.0063	2,828.61	84.7309	2,828.61	85.3552	2,828.61	83.1789	2,828.61	84.3101	2,828.61	81.2688	2,828.61	83.0225	2,828.61	79.4441	2,828.61	81.5038	2,828.61	76.3038	2,828.61	79.1938	2,828.61	73.8332	2,828.61	76.6625	2,828.61	73.3103	2,828.61	74.909	2,828.61	70.7428	2,828.61	73.3109	2,828.61	69.8847	2,828.61	72.7092	2,828.61	69.9097	2,828.61	72.1287	2,828.61	70.9605	2,828.61	71.3846	2,828.61	68.9275	2,828.61	71.5119	2,828.61	65.6791	2,828.61	68.2724	2,828.61	64.9023	2,828.61	67.5182	2,828.61	68.0116
2,928.22	87.0837	2,928.22	87.2031	2,928.22	86.9957	2,928.22	86.7229	2,928.22	86.9001	2,928.22	85.9257	2,928.22	86.513	2,928.22	84.7302	2,928.22	86.0106	2,928.22	83.329	2,928.22	84.8882	2,928.22	81.5541	2,928.22	83.5277	2,928.22	79.8986	2,928.22	82.0339	2,928.22	77.8366	2,928.22	80.0835	2,928.22	74.9718	2,928.22	78.1462	2,928.22	74.0198	2,928.22	76.1997	2,928.22	73.6633	2,928.22	74.9483	2,928.22	71.7112	2,928.22	73.7628	2,928.22	67.5025	2,928.22	70.7056	2,928.22	71.3197	2,928.22	70.503	2,928.22	71.2113	2,928.22	72.7604	2,928.22	64.804	2,928.22	72.1536	2,928.22	69.4037	2,928.22	64.7411	2,928.22	72.8018
3,030.76	87.3867	3,030.76	87.0408	3,030.76	87.3003	3,030.76	86.4999	3,030.76	87.0043	3,030.76	85.5794	3,030.76	86.4262	3,030.76	84.2066	3,030.76	85.6179	3,030.76	82.6445	3,030.76	84.3865	3,030.76	80.9472	3,030.76	82.892	3,030.76	79.2421	3,030.76	81.1143	3,030.76	77.2471	3,030.76	79.185	3,030.76	74.8381	3,030.76	77.5888	3,030.76	72.7986	3,030.76	75.867	3,030.76	71.7282	3,030.76	73.6634	3,030.76	71.5073	3,030.76	73.115	3,030.76	70.6996	3,030.76	72.5544	3,030.76	71.4136	3,030.76	71.4232	3,030.76	72.3271	3,030.76	72.9187	3,030.76	67.2081	3,030.76	72.2739	3,030.76	66.9001	3,030.76	63.708	3,030.76	69.7168
3,137.7	87.1062	3,137.7	86.7341	3,137.7	87.1035	3,137.7	86.0606	3,137.7	86.8879	3,137.7	85.1502	3,137.7	86.2441	3,137.7	83.8038	3,137.7	85.1955	3,137.7	82.3795	3,137.7	83.8938	3,137.7	80.9877	3,137.7	82.3905	3,137.7	78.963	3,137.7	80.4871	3,137.7	76.864	3,137.7	78.3882	3,137.7	75.414	3,137.7	77.3687	3,137.7	72.3107	3,137.7	75.878	3,137.7	72.5377	3,137.7	73.3256	3,137.7	70.8728	3,137.7	72.0782	3,137.7	66.5357	3,137.7	70.8349	3,137.7	70.8119	3,137.7	70.0899	3,137.7	72.0211	3,137.7	73.0609	3,137.7	69.9765	3,137.7	72.4461	3,137.7	70.4957	3,137.7	67.3883	3,137.7	69.3775
3,249.02	87.4461	3,249.02	87.1284	3,249.02	87.2815	3,249.02	86.2567	3,249.02	87.0618	3,249.02	85.2775	3,249.02	86.2435	3,249.02	83.6894	3,249.02	85.2231	3,249.02	82.424	3,249.02	83.9008	3,249.02	81.156	3,249.02	82.2793	3,249.02	79.1439	3,249.02	80.5785	3,249.02	77.0192	3,249.02	78.4137	3,249.02	75.3186	3,249.02	76.7569	3,249.02	73.4148	3,249.02	75.7561	3,249.02	71.2232	3,249.02	73.9028	3,249.02	72.2417	3,249.02	71.8266	3,249.02	69.9934	3,249.02	71.1828	3,249.02	70.6295	3,249.02	70.6503	3,249.02	72.6903	3,249.02	72.5599	3,249.02	68.9787	3,249.02	71.8861	3,249.02	64.7056	3,249.02	68.0703	3,249.02	64.158
3,363.28	87.5648	3,363.28	87.1971	3,363.28	87.642	3,363.28	86.3847	3,363.28	87.3049	3,363.28	85.3699	3,363.28	86.4383	3,363.28	84.0358	3,363.28	85.2414	3,363.28	82.1557	3,363.28	83.6517	3,363.28	80.7298	3,363.28	82.0903	3,363.28	79.8821	3,363.28	80.1052	3,363.28	77.636	3,363.28	78.1351	3,363.28	75.793	3,363.28	76.4511	3,363.28	74.0888	3,363.28	75.3324	3,363.28	72.054	3,363.28	73.4421	3,363.28	73.2718	3,363.28	71.8675	3,363.28	70.8127	3,363.28	70.1527	3,363.28	69.2732	3,363.28	69.5039	3,363.28	72.2475	3,363.28	72.5389	3,363.28	69.0551	3,363.28	71.8786	3,363.28	64.5611	3,363.28	67.6886	3,363.28	66.9213
3,481.93	87.6482	3,481.93	87.0313	3,481.93	87.8685	3,481.93	86.4628	3,481.93	87.4538	3,481.93	85.4014	3,481.93	86.4169	3,481.93	84.2616	3,481.93	85.3456	3,481.93	82.4125	3,481.93	83.6318	3,481.93	80.5231	3,481.93	81.7938	3,481.93	79.2425	3,481.93	80.0184	3,481.93	77.2678	3,481.93	78.1332	3,481.93	75.3158	3,481.93	75.9454	3,481.93	73.8792	3,481.93	74.1679	3,481.93	71.5674	3,481.93	72.0955	3,481.93	71.5012	3,481.93	71.678	3,481.93	72.7034	3,481.93	72.1554	3,481.93	70.6802	3,481.93	69.2987	3,481.93	72.9109	3,481.93	71.9856	3,481.93	66.2614	3,481.93	72.2919	3,481.93	61.9737	3,481.93	62.358	3,481.93	67.2115
3,604.98	87.4148	3,604.98	86.8687	3,604.98	87.648	3,604.98	86.5521	3,604.98	86.9656	3,604.98	85.5607	3,604.98	86.2566	3,604.98	84.3362	3,604.98	85.2942	3,604.98	82.9419	3,604.98	84.0279	3,604.98	81.1494	3,604.98	82.2201	3,604.98	78.6516	3,604.98	80.2731	3,604.98	76.8443	3,604.98	78.5276	3,604.98	74.9818	3,604.98	76.523	3,604.98	74.1434	3,604.98	74.3281	3,604.98	71.0951	3,604.98	72.9532	3,604.98	69.9471	3,604.98	70.6851	3,604.98	70.4707	3,604.98	72.1812	3,604.98	70.3768	3,604.98	71.2076	3,604.98	71.8862	3,604.98	71.3245	3,604.98	68.5997	3,604.98	72.2225	3,604.98	64.8459	3,604.98	64.8716	3,604.98	66.3868
3,732.42	86.9847	3,732.42	86.4413	3,732.42	86.9158	3,732.42	85.8573	3,732.42	87.0945	3,732.42	85.8594	3,732.42	86.6345	3,732.42	84.4339	3,732.42	85.3734	3,732.42	83.1844	3,732.42	83.6193	3,732.42	81.4385	3,732.42	81.3812	3,732.42	79.032	3,732.42	79.3797	3,732.42	77.1877	3,732.42	77.6662	3,732.42	73.7471	3,732.42	75.9567	3,732.42	72.6414	3,732.42	73.3214	3,732.42	72.3099	3,732.42	72.1501	3,732.42	69.6381	3,732.42	69.4071	3,732.42	69.2503	3,732.42	67.377	3,732.42	69.4129	3,732.42	67.1092	3,732.42	70.8743	3,732.42	69.2672	3,732.42	68.901	3,732.42	70.9275	3,732.42	61.7491	3,732.42	65.7097	3,732.42	62.3264
3,864.26	87.5411	3,864.26	87.2361	3,864.26	87.2762	3,864.26	86.5879	3,864.26	87.544	3,864.26	86.278	3,864.26	86.9436	3,864.26	85.2435	3,864.26	86.0886	3,864.26	83.4818	3,864.26	84.6966	3,864.26	81.2994	3,864.26	82.8	3,864.26	79.5053	3,864.26	80.5299	3,864.26	77.442	3,864.26	78.6441	3,864.26	74.6516	3,864.26	76.5368	3,864.26	72.8732	3,864.26	73.4868	3,864.26	72.0218	3,864.26	72.4634	3,864.26	71.0568	3,864.26	70.7231	3,864.26	68.5042	3,864.26	68.9702	3,864.26	65.957	3,864.26	67.0059	3,864.26	71.2594	3,864.26	68.7447	3,864.26	70.9082	3,864.26	72.1165	3,864.26	62.8736	3,864.26	68.5055	3,864.26	64.303
4,000.49	86.3391	4,000.49	86.6858	4,000.49	86.684	4,000.49	86.6624	4,000.49	86.7354	4,000.49	85.235	4,000.49	86.3559	4,000.49	84.346	4,000.49	85.9009	4,000.49	82.044	4,000.49	84.4163	4,000.49	79.7166	4,000.49	82.5708	4,000.49	78.4452	4,000.49	80.0006	4,000.49	76.6731	4,000.49	77.3165	4,000.49	74.4183	4,000.49	75.7423	4,000.49	72.3516	4,000.49	72.5029	4,000.49	71.3876	4,000.49	69.9424	4,000.49	69.3447	4,000.49	68.267	4,000.49	70.98	4,000.49	69.7244	4,000.49	68.0532	4,000.49	68.8091	4,000.49	70.5615	4,000.49	67.1116	4,000.49	67.2663	4,000.49	69.4427	4,000.49	58.2707	4,000.49	64.727	4,000.49	59.3799
4,141.11	87.3694	4,141.11	87.5112	4,141.11	87.4111	4,141.11	87.4458	4,141.11	87.1779	4,141.11	85.8601	4,141.11	87.0994	4,141.11	84.1118	4,141.11	86.33	4,141.11	82.6394	4,141.11	84.9608	4,141.11	80.7506	4,141.11	82.6599	4,141.11	77.4325	4,141.11	80.2168	4,141.11	76.1996	4,141.11	77.5619	4,141.11	74.5578	4,141.11	75.6117	4,141.11	72.7275	4,141.11	72.7282	4,141.11	70.7176	4,141.11	70.8892	4,141.11	67.9255	4,141.11	70.0997	4,141.11	69.4249	4,141.11	68.3783	4,141.11	68.3083	4,141.11	69.3076	4,141.11	69.4806	4,141.11	67.0761	4,141.11	66.81	4,141.11	69.7022	4,141.11	58.899	4,141.11	66.3041	4,141.11	59.9629
4,287.6	87.887	4,287.6	88.1587	4,287.6	87.5131	4,287.6	87.5306	4,287.6	87.9386	4,287.6	87.1107	4,287.6	87.556	4,287.6	84.6246	4,287.6	86.2786	4,287.6	82.9336	4,287.6	84.367	4,287.6	81.0613	4,287.6	82.6525	4,287.6	78.2252	4,287.6	80.7824	4,287.6	75.1227	4,287.6	77.5399	4,287.6	73.2216	4,287.6	76.1099	4,287.6	71.4003	4,287.6	74.5799	4,287.6	69.2891	4,287.6	72.0688	4,287.6	67.6571	4,287.6	70.3837	4,287.6	68.4897	4,287.6	66.2731	4,287.6	67.8788	4,287.6	68.0732	4,287.6	70.5457	4,287.6	66.6258	4,287.6	69.3151	4,287.6	70.8242	4,287.6	62.0168	4,287.6	67.7868	4,287.6	61.0379
4,438.48	88.3978	4,438.48	88.0349	4,438.48	88.1915	4,438.48	87.2446	4,438.48	88.1925	4,438.48	86.6447	4,438.48	87.3338	4,438.48	85.4114	4,438.48	86.1574	4,438.48	82.5825	4,438.48	84.2163	4,438.48	80.9506	4,438.48	82.7675	4,438.48	79.8493	4,438.48	81.2684	4,438.48	76.9822	4,438.48	79.4421	4,438.48	75.0102	4,438.48	75.7039	4,438.48	71.5446	4,438.48	73.6066	4,438.48	71.1199	4,438.48	70.0972	4,438.48	68.9134	4,438.48	69.5323	4,438.48	70.4932	4,438.48	66.923	4,438.48	69.7471	4,438.48	68.166	4,438.48	69.0269	4,438.48	66.4245	4,438.48	69.7745	4,438.48	70.8265	4,438.48	59.7284	4,438.48	70.329	4,438.48	65.4944
4,595.21	88.3026	4,595.21	87.5133	4,595.21	88.8426	4,595.21	87.2655	4,595.21	87.7751	4,595.21	85.3026	4,595.21	87.2563	4,595.21	83.9112	4,595.21	86.4099	4,595.21	83.172	4,595.21	85.7435	4,595.21	81.2937	4,595.21	83.2292	4,595.21	78.3909	4,595.21	80.8112	4,595.21	77.5863	4,595.21	79.4012	4,595.21	74.848	4,595.21	77.2785	4,595.21	72.8499	4,595.21	74.8411	4,595.21	70.4214	4,595.21	72.1632	4,595.21	70.9642	4,595.21	71.1733	4,595.21	68.18	4,595.21	70.8259	4,595.21	67.9993	4,595.21	68.5666	4,595.21	68.9178	4,595.21	69.1299	4,595.21	69.1032	4,595.21	70.2585	4,595.21	53.532	4,595.21	67.3455	4,595.21	59.6211
4,756.35	88.3951	4,756.35	88.3748	4,756.35	88.3241	4,756.35	87.1257	4,756.35	88.3059	4,756.35	86.5365	4,756.35	87.1372	4,756.35	84.7066	4,756.35	86.6006	4,756.35	83.7167	4,756.35	85.0937	4,756.35	81.0291	4,756.35	83.0895	4,756.35	78.6796	4,756.35	81.3186	4,756.35	75.9957	4,756.35	78.4408	4,756.35	73.6769	4,756.35	76.3074	4,756.35	72.6295	4,756.35	73.9868	4,756.35	70.3491	4,756.35	72.4321	4,756.35	68.7103	4,756.35	67.8391	4,756.35	68.9576	4,756.35	65.3337	4,756.35	69.5475	4,756.35	71.3891	4,756.35	70.7954	4,756.35	69.5447	4,756.35	69.8133	4,756.35	69.1689	4,756.35	60.5737	4,756.35	66.2916	4,756.35	54.2999
4,924.8	88.108	4,924.8	87.5248	4,924.8	87.9239	4,924.8	86.6448	4,924.8	87.5252	4,924.8	86.0629	4,924.8	86.6224	4,924.8	85.3296	4,924.8	85.4196	4,924.8	82.8643	4,924.8	83.7266	4,924.8	81.1599	4,924.8	83.036	4,924.8	79.6708	4,924.8	80.9188	4,924.8	75.5189	4,924.8	78.7412	4,924.8	73.2736	4,924.8	75.4749	4,924.8	71.5464	4,924.8	73.0965	4,924.8	70.3137	4,924.8	71.4191	4,924.8	68.2537	4,924.8	70.0396	4,924.8	68.3232	4,924.8	69.4994	4,924.8	70.5551	4,924.8	66.6236	4,924.8	69.4451	4,924.8	68.9283	4,924.8	69.4222	4,924.8	70.5011	4,924.8	58.7379	4,924.8	69.6228	4,924.8	62.8894
5,097.66	88.3098	5,097.66	87.2854	5,097.66	88.7728	5,097.66	86.8189	5,097.66	87.437	5,097.66	85.2742	5,097.66	86.9343	5,097.66	84.3529	5,097.66	86.0083	5,097.66	83.5453	5,097.66	85.8773	5,097.66	81.9924	5,097.66	83.5933	5,097.66	78.6249	5,097.66	80.8045	5,097.66	76.8274	5,097.66	78.823	5,097.66	74.6217	5,097.66	76.5723	5,097.66	71.1567	5,097.66	74.1898	5,097.66	67.8837	5,097.66	72.7133	5,097.66	68.6167	5,097.66	67.7321	5,097.66	62.2263	5,097.66	68.8139	5,097.66	69.0221	5,097.66	67.5378	5,097.66	67.4011	5,097.66	70.499	5,097.66	69.656	5,097.66	69.3975	5,097.66	50.6141	5,097.66	68.6556	5,097.66	59.045
5,277.83	88.1352	5,277.83	87.5706	5,277.83	87.8786	5,277.83	85.8519	5,277.83	87.6723	5,277.83	85.3418	5,277.83	86.502	5,277.83	84.358	5,277.83	86.11	5,277.83	83.6048	5,277.83	84.9744	5,277.83	81.3653	5,277.83	83.5016	5,277.83	78.3498	5,277.83	81.1054	5,277.83	75.8798	5,277.83	78.8023	5,277.83	74.5156	5,277.83	76.5484	5,277.83	71.3332	5,277.83	73.7588	5,277.83	68.5641	5,277.83	71.9754	5,277.83	69.2618	5,277.83	69.6597	5,277.83	67.7186	5,277.83	68.8753	5,277.83	67.6187	5,277.83	65.9505	5,277.83	68.8755	5,277.83	69.3445	5,277.83	69.9047	5,277.83	69.2099	5,277.83	49.8655	5,277.83	68.5537	5,277.83	54.1116
5,463.87	87.8498	5,463.87	86.6391	5,463.87	87.5115	5,463.87	85.8986	5,463.87	86.3551	5,463.87	85.4513	5,463.87	85.6109	5,463.87	84.8446	5,463.87	85.0737	5,463.87	83.5735	5,463.87	84.3854	5,463.87	81.3336	5,463.87	83.2148	5,463.87	79.1379	5,463.87	81.2759	5,463.87	76.2004	5,463.87	78.7588	5,463.87	73.1565	5,463.87	75.2287	5,463.87	70.4189	5,463.87	72.9841	5,463.87	68.2703	5,463.87	71.5478	5,463.87	67.7896	5,463.87	67.7414	5,463.87	66.0268	5,463.87	68.2988	5,463.87	66.6467	5,463.87	66.4733	5,463.87	66.2305	5,463.87	67.5249	5,463.87	68.1037	5,463.87	68.2208	5,463.87	55.4058	5,463.87	69.4249	5,463.87	41.8188
5,657.23	87.3011	5,657.23	86.2601	5,657.23	87.3252	5,657.23	85.669	5,657.23	85.9231	5,657.23	84.8872	5,657.23	85.4704	5,657.23	84.6602	5,657.23	85.262	5,657.23	83.3511	5,657.23	84.7193	5,657.23	81.1086	5,657.23	82.9203	5,657.23	78.8655	5,657.23	80.5744	5,657.23	76.7448	5,657.23	78.2413	5,657.23	73.99	5,657.23	75.404	5,657.23	71.1684	5,657.23	73.5999	5,657.23	68.6439	5,657.23	70.8633	5,657.23	65.8203	5,657.23	68.7015	5,657.23	66.4764	5,657.23	67.9614	5,657.23	66.7514	5,657.23	66.0513	5,657.23	66.9692	5,657.23	67.5734	5,657.23	69.3981	5,657.23	66.9347	5,657.23	57.7063	5,657.23	67.6422	5,657.23	46.2586
5,856.45	87.36	5,856.45	86.6868	5,856.45	86.7154	5,856.45	85.1331	5,856.45	86.0732	5,856.45	85.1944	5,856.45	85.2389	5,856.45	84.489	5,856.45	85.1404	5,856.45	83.6773	5,856.45	84.369	5,856.45	80.9801	5,856.45	82.5107	5,856.45	78.3854	5,856.45	80.2758	5,856.45	76.0972	5,856.45	77.4284	5,856.45	73.7092	5,856.45	74.8847	5,856.45	72.1315	5,856.45	73.3414	5,856.45	69.6849	5,856.45	70.0415	5,856.45	65.606	5,856.45	67.7761	5,856.45	65.8315	5,856.45	65.3416	5,856.45	67.117	5,856.45	67.2485	5,856.45	67.8742	5,856.45	67.2538	5,856.45	68.7064	5,856.45	66.2263	5,856.45	51.0787	5,856.45	66.655	5,856.45	55.628
6,062.99	86.79	6,062.99	85.682	6,062.99	87.0075	6,062.99	85.7762	6,062.99	85.6636	6,062.99	85.5126	6,062.99	85.2854	6,062.99	84.9289	6,062.99	85.0032	6,062.99	83.1941	6,062.99	84.0641	6,062.99	81.0545	6,062.99	82.225	6,062.99	78.9587	6,062.99	79.8954	6,062.99	75.7381	6,062.99	77.7556	6,062.99	74.0467	6,062.99	74.4886	6,062.99	69.9878	6,062.99	72.2485	6,062.99	68.9339	6,062.99	69.6727	6,062.99	65.6272	6,062.99	65.5782	6,062.99	65.7529	6,062.99	65.2777	6,062.99	67.3034	6,062.99	66.3872	6,062.99	67.3879	6,062.99	66.5554	6,062.99	65.3364	6,062.99	66.6982	6,062.99	54.1673	6,062.99	67.7133	6,062.99	54.7072
6,276.86	86.5	6,276.86	86.1742	6,276.86	86.3829	6,276.86	85.4623	6,276.86	86.2956	6,276.86	85.0296	6,276.86	85.695	6,276.86	84.3018	6,276.86	85.1455	6,276.86	83.1417	6,276.86	84.1418	6,276.86	80.7479	6,276.86	82.3883	6,276.86	78.0356	6,276.86	79.9494	6,276.86	75.9822	6,276.86	77.8705	6,276.86	73.577	6,276.86	75.1115	6,276.86	70.6841	6,276.86	73.1231	6,276.86	68.8438	6,276.86	69.5337	6,276.86	64.7517	6,276.86	68.3297	6,276.86	67.2921	6,276.86	62.6603	6,276.86	66.0659	6,276.86	64.7471	6,276.86	68.0646	6,276.86	67.8781	6,276.86	67.2887	6,276.86	66.5777	6,276.86	56.0859	6,276.86	67.5787	6,276.86	58.3208
6,498.05	86.4106	6,498.05	86.1183	6,498.05	86.8194	6,498.05	85.8575	6,498.05	86.4659	6,498.05	85.0891	6,498.05	86.0838	6,498.05	84.1672	6,498.05	85.2429	6,498.05	83.0564	6,498.05	84.1551	6,498.05	80.556	6,498.05	82.4068	6,498.05	77.6672	6,498.05	80.049	6,498.05	75.5713	6,498.05	78.0802	6,498.05	73.3862	6,498.05	75.5311	6,498.05	69.998	6,498.05	71.6766	6,498.05	68.8201	6,498.05	70.0661	6,498.05	66.1275	6,498.05	67.2161	6,498.05	65.0957	6,498.05	65.2804	6,498.05	65.3497	6,498.05	66.2712	6,498.05	68.414	6,498.05	66.6158	6,498.05	65.5805	6,498.05	65.589	6,498.05	60.5773	6,498.05	66.8813	6,498.05	59.7697
6,726.56	86.2884	6,726.56	86.175	6,726.56	86.5786	6,726.56	86.018	6,726.56	86.5784	6,726.56	85.1253	6,726.56	86.0347	6,726.56	84.1051	6,726.56	84.9496	6,726.56	82.793	6,726.56	84.2125	6,726.56	81.1017	6,726.56	82.9919	6,726.56	78.1997	6,726.56	80.2732	6,726.56	75.3158	6,726.56	78.0229	6,726.56	72.4557	6,726.56	74.9259	6,726.56	69.7089	6,726.56	73.163	6,726.56	69.0705	6,726.56	69.3958	6,726.56	67.8133	6,726.56	66.9272	6,726.56	65.5726	6,726.56	64.2008	6,726.56	66.8024	6,726.56	64.6372	6,726.56	66.9041	6,726.56	67.4677	6,726.56	64.9939	6,726.56	67.1402	6,726.56	61.2271	6,726.56	65.8967	6,726.56	58.3902
6,963.87	86.1891	6,963.87	86.4676	6,963.87	86.266	6,963.87	85.7971	6,963.87	86.5464	6,963.87	84.7185	6,963.87	85.8854	6,963.87	83.7598	6,963.87	84.8873	6,963.87	82.9454	6,963.87	84.1224	6,963.87	81.17	6,963.87	82.7105	6,963.87	78.282	6,963.87	80.2942	6,963.87	74.88	6,963.87	78.0263	6,963.87	72.2148	6,963.87	75.6436	6,963.87	70.0435	6,963.87	72.3848	6,963.87	67.3054	6,963.87	70.186	6,963.87	67.0197	6,963.87	68.8713	6,963.87	63.7131	6,963.87	64.4246	6,963.87	65.3251	6,963.87	66.1894	6,963.87	66.9831	6,963.87	65.7766	6,963.87	64.4783	6,963.87	66.5362	6,963.87	56.3691	6,963.87	66.552	6,963.87	57.1072
7,209.96	86.0311	7,209.96	86.2946	7,209.96	86.4304	7,209.96	86.1046	7,209.96	86.3209	7,209.96	84.8178	7,209.96	85.4294	7,209.96	83.7662	7,209.96	84.2033	7,209.96	83.0744	7,209.96	83.7535	7,209.96	81.1538	7,209.96	82.5345	7,209.96	78.2173	7,209.96	80.0402	7,209.96	74.9099	7,209.96	77.5476	7,209.96	72.3732	7,209.96	73.7562	7,209.96	69.1557	7,209.96	72.1681	7,209.96	68.2671	7,209.96	68.9806	7,209.96	65.7961	7,209.96	67.9796	7,209.96	64.8697	7,209.96	64.8469	7,209.96	64.5199	7,209.96	65.0283	7,209.96	67.3404	7,209.96	63.5005	7,209.96	64.0373	7,209.96	66.7276	7,209.96	57.6002	7,209.96	65.0372	7,209.96	57.367
7,464.84	85.5276	7,464.84	85.9925	7,464.84	85.6334	7,464.84	85.7349	7,464.84	86.0879	7,464.84	84.3338	7,464.84	85.1285	7,464.84	83.2273	7,464.84	84.0431	7,464.84	82.6171	7,464.84	83.2446	7,464.84	80.3647	7,464.84	81.8808	7,464.84	77.6238	7,464.84	79.4528	7,464.84	75.1907	7,464.84	77.4871	7,464.84	72.1744	7,464.84	73.4827	7,464.84	69.1795	7,464.84	71.0632	7,464.84	66.357	7,464.84	68.5803	7,464.84	65.2112	7,464.84	66.0726	7,464.84	61.3856	7,464.84	64.2391	7,464.84	63.7323	7,464.84	65.0098	7,464.84	67.5861	7,464.84	62.7666	7,464.84	63.6221	7,464.84	65.9995	7,464.84	57.07	7,464.84	62.078	7,464.84	59.7583
7,727.05	85.1874	7,727.05	85.6535	7,727.05	85.4744	7,727.05	85.6451	7,727.05	85.5732	7,727.05	84.1443	7,727.05	84.8412	7,727.05	83.1776	7,727.05	83.4399	7,727.05	82.4826	7,727.05	82.7236	7,727.05	80.3796	7,727.05	81.3896	7,727.05	77.4547	7,727.05	78.3157	7,727.05	74.171	7,727.05	76.199	7,727.05	71.5877	7,727.05	72.5532	7,727.05	69.8877	7,727.05	70.5577	7,727.05	66.2721	7,727.05	67.415	7,727.05	64.3953	7,727.05	66.3819	7,727.05	62.6121	7,727.05	62.4183	7,727.05	64.1004	7,727.05	65.1748	7,727.05	66.9231	7,727.05	64.7002	7,727.05	61.9521	7,727.05	65.2652	7,727.05	54.9195	7,727.05	62.3635	7,727.05	60.2867
7,999.51	85.3972	7,999.51	85.6049	7,999.51	85.7098	7,999.51	85.2801	7,999.51	85.7464	7,999.51	83.5025	7,999.51	84.6311	7,999.51	82.4804	7,999.51	83.0185	7,999.51	81.7822	7,999.51	82.27	7,999.51	79.5276	7,999.51	80.8412	7,999.51	76.7553	7,999.51	78.1636	7,999.51	74.2911	7,999.51	75.8437	7,999.51	72.0678	7,999.51	71.8363	7,999.51	69.3083	7,999.51	69.1579	7,999.51	65.1283	7,999.51	67.3083	7,999.51	62.4836	7,999.51	62.635	7,999.51	60.8072	7,999.51	63.0911	7,999.51	64.0771	7,999.51	62.6122	7,999.51	66.866	7,999.51	63.0943	7,999.51	62.037	7,999.51	65.4503	7,999.51	54.4639	7,999.51	61.5632	7,999.51	61.4271
8,282.23	85.2209	8,282.23	85.4539	8,282.23	85.3278	8,282.23	85.1298	8,282.23	85.2993	8,282.23	83.6359	8,282.23	84.6555	8,282.23	82.328	8,282.23	83.3967	8,282.23	81.5724	8,282.23	82.1882	8,282.23	79.6232	8,282.23	80.4625	8,282.23	76.0512	8,282.23	77.4632	8,282.23	73.6119	8,282.23	74.801	8,282.23	70.3887	8,282.23	71.5991	8,282.23	68.0908	8,282.23	69.3999	8,282.23	65.8313	8,282.23	66.3613	8,282.23	60.0279	8,282.23	63.5761	8,282.23	60.8484	8,282.23	62.0244	8,282.23	65.5629	8,282.23	61.7831	8,282.23	65.611	8,282.23	64.1464	8,282.23	60.4771	8,282.23	65.0239	8,282.23	58.0028	8,282.23	57.2305	8,282.23	60.9926
8,573.73	85.2393	8,573.73	85.0608	8,573.73	85.4523	8,573.73	85.2387	8,573.73	85.1777	8,573.73	83.7774	8,573.73	84.8033	8,573.73	82.1108	8,573.73	83.4498	8,573.73	81.1256	8,573.73	81.9927	8,573.73	78.282	8,573.73	79.9906	8,573.73	75.555	8,573.73	77.3036	8,573.73	73.0771	8,573.73	74.9529	8,573.73	70.4513	8,573.73	71.4307	8,573.73	66.3322	8,573.73	68.7574	8,573.73	66.5863	8,573.73	65.9478	8,573.73	61.777	8,573.73	63.4845	8,573.73	60.1466	8,573.73	61.4297	8,573.73	65.0542	8,573.73	59.6883	8,573.73	65.6851	8,573.73	64.0333	8,573.73	60.616	8,573.73	65.37	8,573.73	56.1177	8,573.73	58.7114	8,573.73	61.3882
8,876.95	85.4377	8,876.95	85.0412	8,876.95	85.4673	8,876.95	85.3969	8,876.95	85.0441	8,876.95	84.121	8,876.95	84.9696	8,876.95	82.3247	8,876.95	83.4359	8,876.95	80.7593	8,876.95	81.8785	8,876.95	78.5194	8,876.95	80.0674	8,876.95	75.7496	8,876.95	77.0975	8,876.95	72.536	8,876.95	74.5359	8,876.95	68.883	8,876.95	71.1257	8,876.95	66.3857	8,876.95	69.3471	8,876.95	65.4535	8,876.95	66.0198	8,876.95	62.0313	8,876.95	63.6321	8,876.95	57.7676	8,876.95	60.1234	8,876.95	65.1184	8,876.95	60.6993	8,876.95	64.9616	8,876.95	64.2161	8,876.95	59.6844	8,876.95	65.4268	8,876.95	57.2048	8,876.95	57.5653	8,876.95	60.2948
9,188.96	85.6828	9,188.96	85.252	9,188.96	85.6459	9,188.96	85.2973	9,188.96	85.1601	9,188.96	84.0605	9,188.96	84.7412	9,188.96	82.4548	9,188.96	83.5618	9,188.96	80.5504	9,188.96	81.7714	9,188.96	78.1891	9,188.96	79.6791	9,188.96	75.012	9,188.96	76.8603	9,188.96	72.5845	9,188.96	74.6257	9,188.96	69.5957	9,188.96	70.6731	9,188.96	66.9754	9,188.96	68.3994	9,188.96	64.0801	9,188.96	65.5373	9,188.96	61.2963	9,188.96	62.1243	9,188.96	58.8462	9,188.96	61.7693	9,188.96	61.9197	9,188.96	58.2639	9,188.96	63.0119	9,188.96	64.1431	9,188.96	60.0202	9,188.96	64.6363	9,188.96	51.7394	9,188.96	59.0093	9,188.96	61.9665
9,514.16	85.4018	9,514.16	85.3738	9,514.16	85.3162	9,514.16	85.0552	9,514.16	85.2064	9,514.16	83.9711	9,514.16	84.5278	9,514.16	82.4699	9,514.16	83.2553	9,514.16	80.1365	9,514.16	81.7365	9,514.16	78.5306	9,514.16	79.0271	9,514.16	75.2836	9,514.16	75.9883	9,514.16	72.8096	9,514.16	74.014	9,514.16	69.2182	9,514.16	70.7516	9,514.16	66.9956	9,514.16	67.2778	9,514.16	62.949	9,514.16	64.6703	9,514.16	60.887	9,514.16	61.3357	9,514.16	60.1064	9,514.16	60.254	9,514.16	62.2937	9,514.16	57.8916	9,514.16	61.4592	9,514.16	62.1498	9,514.16	53.9978	9,514.16	62.9751	9,514.16	54.7847	9,514.16	54.1215	9,514.16	60.6421
9,849.61	85.5539	9,849.61	85.19	9,849.61	85.5813	9,849.61	84.7689	9,849.61	85.3071	9,849.61	83.5098	9,849.61	84.3047	9,849.61	81.4837	9,849.61	82.876	9,849.61	79.7499	9,849.61	81.2307	9,849.61	78.2026	9,849.61	78.8653	9,849.61	74.8962	9,849.61	76.0373	9,849.61	72.3164	9,849.61	73.5895	9,849.61	68.2759	9,849.61	68.9889	9,849.61	66.3078	9,849.61	66.4448	9,849.61	63.5061	9,849.61	63.6318	9,849.61	56.4511	9,849.61	60.4968	9,849.61	60.639	9,849.61	58.8377	9,849.61	60.9485	9,849.61	58.1713	9,849.61	61.3445	9,849.61	60.0816	9,849.61	52.5423	9,849.61	62.181	9,849.61	55.4002	9,849.61	53.4336	9,849.61	60.6452
10,196.8	85.7186	10,196.8	85.1072	10,196.8	85.9213	10,196.8	84.9062	10,196.8	85.0981	10,196.8	82.8959	10,196.8	84.1785	10,196.8	81.4894	10,196.8	82.6321	10,196.8	80.1033	10,196.8	80.823	10,196.8	77.1384	10,196.8	78.4257	10,196.8	72.7735	10,196.8	75.8613	10,196.8	71.3085	10,196.8	72.2698	10,196.8	66.525	10,196.8	69.2027	10,196.8	64.6616	10,196.8	66.1207	10,196.8	61.3961	10,196.8	63.336	10,196.8	57.3952	10,196.8	59.8966	10,196.8	57.7801	10,196.8	56.5866	10,196.8	61.2784	10,196.8	51.4225	10,196.8	60.985	10,196.8	58.2915	10,196.8	49.7571	10,196.8	61.4488	10,196.8	54.9208	10,196.8	50.4148	10,196.8	59.9447
10,555.7	85.9567	10,555.7	85.1962	10,555.7	85.9705	10,555.7	84.9734	10,555.7	85.328	10,555.7	82.3751	10,555.7	84.5218	10,555.7	81.3826	10,555.7	82.1659	10,555.7	79.8439	10,555.7	80.7223	10,555.7	76.7789	10,555.7	77.9983	10,555.7	71.8559	10,555.7	74.6379	10,555.7	70.7908	10,555.7	71.3846	10,555.7	66.0696	10,555.7	69.4597	10,555.7	63.2476	10,555.7	65.4078	10,555.7	60.1421	10,555.7	60.8842	10,555.7	56.2846	10,555.7	58.6192	10,555.7	55.7549	10,555.7	51.0289	10,555.7	58.7846	10,555.7	47.4228	10,555.7	60.2139	10,555.7	56.128	10,555.7	50.4162	10,555.7	61.5477	10,555.7	54.6296	10,555.7	52.0571	10,555.7	59.3557
10,927.7	85.9153	10,927.7	85.3948	10,927.7	85.7693	10,927.7	85.2759	10,927.7	85.3085	10,927.7	82.7389	10,927.7	84.3413	10,927.7	81.2082	10,927.7	81.6536	10,927.7	79.1755	10,927.7	79.8726	10,927.7	77.2216	10,927.7	77.1773	10,927.7	73.5196	10,927.7	74.7248	10,927.7	69.8849	10,927.7	71.6158	10,927.7	66.1043	10,927.7	68.6529	10,927.7	63.2018	10,927.7	65.0331	10,927.7	58.7673	10,927.7	61.0119	10,927.7	58.7021	10,927.7	56.9147	10,927.7	52.0798	10,927.7	50.9591	10,927.7	59.165	10,927.7	45.2133	10,927.7	57.9116	10,927.7	58.2419	10,927.7	55.7949	10,927.7	61.2268	10,927.7	56.296	10,927.7	48.8024	10,927.7	58.8256
11,313	85.7231	11,313	85.1936	11,313	85.7432	11,313	84.7898	11,313	84.9546	11,313	82.8484	11,313	83.8071	11,313	81.0544	11,313	81.5778	11,313	79.3051	11,313	79.4211	11,313	77.8493	11,313	77.2133	11,313	74.3148	11,313	75.5457	11,313	72.2125	11,313	72.335	11,313	66.8561	11,313	68.8702	11,313	63.7702	11,313	63.776	11,313	58.6513	11,313	63.0672	11,313	60.3568	11,313	58.2294	11,313	54.4005	11,313	52.6129	11,313	58.007	11,313	44.494	11,313	56.009	11,313	58.148	11,313	57.824	11,313	60.44	11,313	56.6136	11,313	53.0324	11,313	57.8479
11,712.9	85.8166	11,712.9	85.1256	11,712.9	85.773	11,712.9	84.5513	11,712.9	84.8358	11,712.9	82.7412	11,712.9	83.6082	11,712.9	80.7768	11,712.9	81.7858	11,712.9	79.5449	11,712.9	79.4875	11,712.9	78.2597	11,712.9	77.6373	11,712.9	74.3406	11,712.9	75.7747	11,712.9	72.6577	11,712.9	72.509	11,712.9	69.004	11,712.9	70.7917	11,712.9	64.0541	11,712.9	65.9109	11,712.9	61.8038	11,712.9	64.3638	11,712.9	61.4638	11,712.9	57.4397	11,712.9	54.4097	11,712.9	53.7849	11,712.9	57.4166	11,712.9	49.8393	11,712.9	56.0073	11,712.9	56.6246	11,712.9	58.1017	11,712.9	60.2758	11,712.9	53.9885	11,712.9	54.5368	11,712.9	55.2466
12,126	85.8206	12,126	85.045	12,126	85.7256	12,126	84.5545	12,126	84.9143	12,126	82.9303	12,126	83.796	12,126	81.1428	12,126	81.9084	12,126	80.0225	12,126	79.9057	12,126	78.1189	12,126	78.5025	12,126	74.7442	12,126	76.1867	12,126	71.3912	12,126	73.7357	12,126	69.4948	12,126	70.7387	12,126	65.1492	12,126	66.9825	12,126	62.0049	12,126	64.2639	12,126	61.5585	12,126	58.6618	12,126	51.2787	12,126	58.0016	12,126	56.2887	12,126	51.4108	12,126	56.3879	12,126	58.403	12,126	58.5422	12,126	59.8531	12,126	55.3625	12,126	54.4085	12,126	55.7697
12,553.7	85.345	12,553.7	84.6707	12,553.7	85.3204	12,553.7	84.444	12,553.7	84.5092	12,553.7	83.2231	12,553.7	83.7511	12,553.7	81.6105	12,553.7	82.0544	12,553.7	80.2156	12,553.7	80.5008	12,553.7	78.6796	12,553.7	78.9556	12,553.7	76.2252	12,553.7	77.5824	12,553.7	73.2058	12,553.7	74.6685	12,553.7	69.4939	12,553.7	70.6827	12,553.7	64.9633	12,553.7	67.4216	12,553.7	64.0723	12,553.7	64.7827	12,553.7	60.7902	12,553.7	61.4661	12,553.7	56.5673	12,553.7	60.0577	12,553.7	55.4988	12,553.7	51.0379	12,553.7	55.7474	12,553.7	54.7845	12,553.7	57.1056	12,553.7	59.7168	12,553.7	55.0461	12,553.7	53.1454	12,553.7	56.3574
12,996.1	84.7811	12,996.1	84.0969	12,996.1	84.7309	12,996.1	83.9565	12,996.1	83.9961	12,996.1	82.7285	12,996.1	83.2777	12,996.1	81.8508	12,996.1	82.0952	12,996.1	80.2939	12,996.1	81.0333	12,996.1	79.1286	12,996.1	79.2235	12,996.1	76.5723	12,996.1	77.9525	12,996.1	74.1598	12,996.1	75.1214	12,996.1	70.5234	12,996.1	72.2323	12,996.1	65.1812	12,996.1	68.8907	12,996.1	65.1214	12,996.1	65.7019	12,996.1	61.2207	12,996.1	63.2322	12,996.1	56.029	12,996.1	58.9065	12,996.1	55.0153	12,996.1	53.729	12,996.1	55.9314	12,996.1	54.0417	12,996.1	56.8671	12,996.1	59.3514	12,996.1	54.5685	12,996.1	51.4921	12,996.1	56.5353
13,454.6	84.1953	13,454.6	83.4687	13,454.6	84.247	13,454.6	83.2696	13,454.6	83.5273	13,454.6	82.1371	13,454.6	82.8688	13,454.6	81.7649	13,454.6	82.0021	13,454.6	80.5235	13,454.6	81.223	13,454.6	79.4227	13,454.6	79.328	13,454.6	76.2428	13,454.6	78.0287	13,454.6	73.3952	13,454.6	75.5174	13,454.6	70.6381	13,454.6	72.6307	13,454.6	65.2462	13,454.6	69.573	13,454.6	64.5904	13,454.6	65.5227	13,454.6	61.3045	13,454.6	61.9899	13,454.6	53.5422	13,454.6	58.2475	13,454.6	52.4032	13,454.6	54.5444	13,454.6	55.6315	13,454.6	54.397	13,454.6	54.7111	13,454.6	58.8105	13,454.6	53.9081	13,454.6	43.4188	13,454.6	55.5385
13,929.2	83.4572	13,929.2	82.8881	13,929.2	83.5616	13,929.2	82.7309	13,929.2	82.7751	13,929.2	82.2394	13,929.2	82.3125	13,929.2	81.8469	13,929.2	81.7794	13,929.2	80.8059	13,929.2	81.027	13,929.2	79.354	13,929.2	79.5224	13,929.2	76.2838	13,929.2	78.2658	13,929.2	72.5077	13,929.2	75.0584	13,929.2	69.6634	13,929.2	71.1778	13,929.2	64.4986	13,929.2	68.5438	13,929.2	64.1214	13,929.2	64.5004	13,929.2	60.8713	13,929.2	61.0965	13,929.2	54.5432	13,929.2	59.7468	13,929.2	48.7854	13,929.2	51.3611	13,929.2	55.4344	13,929.2	53.4365	13,929.2	52.8116	13,929.2	59.1684	13,929.2	53.6081	13,929.2	45.4826	13,929.2	53.3623
14,419.9	82.8742	14,419.9	82.3504	14,419.9	82.7859	14,419.9	82.383	14,419.9	82.1926	14,419.9	81.9096	14,419.9	81.7736	14,419.9	81.8366	14,419.9	81.7577	14,419.9	80.6761	14,419.9	81.5638	14,419.9	79.2705	14,419.9	79.9861	14,419.9	76.3996	14,419.9	78.4337	14,419.9	72.9076	14,419.9	75.2081	14,419.9	69.5289	14,419.9	71.3513	14,419.9	65.0336	14,419.9	68.2527	14,419.9	64.8074	14,419.9	64.7423	14,419.9	59.7909	14,419.9	62.085	14,419.9	53.8845	14,419.9	59.7282	14,419.9	48.4823	14,419.9	51.4098	14,419.9	53.9652	14,419.9	49.684	14,419.9	52.6768	14,419.9	58.193	14,419.9	53.9234	14,419.9	48.2999	14,419.9	51.0595
14,928.2	82.4111	14,928.2	82.0336	14,928.2	82.3351	14,928.2	82.377	14,928.2	81.7783	14,928.2	82.0536	14,928.2	81.5087	14,928.2	82.6585	14,928.2	82.01	14,928.2	81.362	14,928.2	82.1566	14,928.2	79.6717	14,928.2	80.3541	14,928.2	76.1521	14,928.2	78.5816	14,928.2	72.6114	14,928.2	74.9637	14,928.2	69.8876	14,928.2	71.9829	14,928.2	64.4927	14,928.2	68.8726	14,928.2	64.3842	14,928.2	65.0196	14,928.2	58.8894	14,928.2	62.0347	14,928.2	54.3478	14,928.2	59.4618	14,928.2	46.5454	14,928.2	53.4658	14,928.2	54.9029	14,928.2	45.5373	14,928.2	50.3413	14,928.2	56.9082	14,928.2	54.343	14,928.2	50.0421	14,928.2	48.9076
15,455.6	82.4186	15,455.6	82.3129	15,455.6	82.3076	15,455.6	82.5002	15,455.6	81.9732	15,455.6	82.8073	15,455.6	82.0052	15,455.6	83.1221	15,455.6	82.1954	15,455.6	82.0994	15,455.6	82.1856	15,455.6	79.7297	15,455.6	80.8124	15,455.6	76.7272	15,455.6	78.7329	15,455.6	72.7573	15,455.6	74.9265	15,455.6	68.9843	15,455.6	70.8076	15,455.6	64.0028	15,455.6	67.9336	15,455.6	63.6731	15,455.6	64.0996	15,455.6	57.2746	15,455.6	61.6448	15,455.6	54.0168	15,455.6	58.8363	15,455.6	44.4931	15,455.6	50.4878	15,455.6	53.7512	15,455.6	43.4989	15,455.6	44.1436	15,455.6	55.9393	15,455.6	52.7956	15,455.6	51.608	15,455.6	47.0105
16,000.5	82.9985	16,000.5	82.7992	16,000.5	82.9032	16,000.5	83.2484	16,000.5	82.5652	16,000.5	83.4601	16,000.5	82.5518	16,000.5	83.3541	16,000.5	82.6343	16,000.5	82.2012	16,000.5	82.6519	16,000.5	79.7348	16,000.5	80.6218	16,000.5	76.6195	16,000.5	78.4365	16,000.5	73.1146	16,000.5	74.2401	16,000.5	69.5847	16,000.5	70.7177	16,000.5	64.111	16,000.5	66.6322	16,000.5	63.9564	16,000.5	63.692	16,000.5	57.9264	16,000.5	60.8301	16,000.5	54.8713	16,000.5	58.0552	16,000.5	44.3995	16,000.5	48.4315	16,000.5	52.9403	16,000.5	42.9995	16,000.5	43.9597	16,000.5	54.0822	16,000.5	49.5297	16,000.5	52.7288	16,000.5	45.6841
16,564.5	83.539	16,564.5	83.1131	16,564.5	83.5698	16,564.5	83.1343	16,564.5	83.0628	16,564.5	82.7122	16,564.5	82.3629	16,564.5	82.6081	16,564.5	82.2497	16,564.5	80.8165	16,564.5	82.0322	16,564.5	78.3835	16,564.5	79.5662	16,564.5	74.0014	16,564.5	76.8633	16,564.5	70.0867	16,564.5	71.8765	16,564.5	66.9061	16,564.5	68.558	16,564.5	60.5884	16,564.5	65.6992	16,564.5	61.0677	16,564.5	61.2356	16,564.5	55.3719	16,564.5	58.0932	16,564.5	52.5839	16,564.5	57.2622	16,564.5	44.6762	16,564.5	48.0743	16,564.5	53.715	16,564.5	39.7489	16,564.5	45.6318	16,564.5	50.9683	16,564.5	43.4246	16,564.5	47.4445	16,564.5	43.8999
17,148.9	82.9398	17,148.9	82.7567	17,148.9	83.0084	17,148.9	82.7805	17,148.9	82.7912	17,148.9	82.5189	17,148.9	82.3028	17,148.9	82.4314	17,148.9	82.3844	17,148.9	80.7307	17,148.9	81.7028	17,148.9	77.3293	17,148.9	79.2485	17,148.9	73.5808	17,148.9	76.6401	17,148.9	69.8206	17,148.9	71.6743	17,148.9	66.1062	17,148.9	67.4179	17,148.9	61.0041	17,148.9	64.9462	17,148.9	61.0088	17,148.9	59.8468	17,148.9	53.4571	17,148.9	57.1951	17,148.9	50.809	17,148.9	53.5024	17,148.9	41.8989	17,148.9	42.3676	17,148.9	52.2691	17,148.9	34.7141	17,148.9	48.7818	17,148.9	49.7257	17,148.9	45.2364	17,148.9	51.1241	17,148.9	44.7151
17,752.4	84.1835	17,752.4	83.7175	17,752.4	84.1716	17,752.4	83.7454	17,752.4	83.6997	17,752.4	82.8419	17,752.4	83.0331	17,752.4	82.289	17,752.4	82.6224	17,752.4	80.1483	17,752.4	82.0634	17,752.4	76.5767	17,752.4	78.8554	17,752.4	72.9268	17,752.4	76.2014	17,752.4	68.3157	17,752.4	71.294	17,752.4	64.7351	17,752.4	67.3545	17,752.4	60.7909	17,752.4	63.9697	17,752.4	58.6175	17,752.4	59.0128	17,752.4	48.9367	17,752.4	55.5999	17,752.4	45.4569	17,752.4	54.0659	17,752.4	33.0826	17,752.4	41.8956	17,752.4	51.991	17,752.4	40.8602	17,752.4	47.9856	17,752.4	49.2849	17,752.4	45.489	17,752.4	53.8892	17,752.4	40.4644
18,379.4	85.5292	18,379.4	84.8837	18,379.4	85.4668	18,379.4	84.6328	18,379.4	84.8483	18,379.4	83.4543	18,379.4	83.8241	18,379.4	82.6163	18,379.4	82.8224	18,379.4	80.0742	18,379.4	81.9568	18,379.4	75.9301	18,379.4	78.3053	18,379.4	71.6424	18,379.4	75.669	18,379.4	67.6523	18,379.4	69.9709	18,379.4	62.6548	18,379.4	65.8458	18,379.4	59.802	18,379.4	63.5048	18,379.4	57.6428	18,379.4	58.0992	18,379.4	45.6107	18,379.4	55.3283	18,379.4	45.9629	18,379.4	53.376	18,379.4	25.0396	18,379.4	40.3132	18,379.4	50.3023	18,379.4	45.2082	18,379.4	47.1276	18,379.4	45.8718	18,379.4	45.1898	18,379.4	53.8722	18,379.4	41.2871
19,026.9	86.8077	19,026.9	86.0443	19,026.9	86.7481	19,026.9	85.4155	19,026.9	85.7793	19,026.9	83.8016	19,026.9	84.334	19,026.9	82.428	19,026.9	82.9681	19,026.9	79.5282	19,026.9	81.6776	19,026.9	74.7172	19,026.9	77.6683	19,026.9	71.1736	19,026.9	74.9398	19,026.9	67.4163	19,026.9	69.3334	19,026.9	61.4867	19,026.9	65.0358	19,026.9	59.8112	19,026.9	62.9784	19,026.9	57.314	19,026.9	57.9196	19,026.9	46.2154	19,026.9	54.1873	19,026.9	45.2533	19,026.9	53.3993	19,026.9	30.3706	19,026.9	31.8165	19,026.9	46.9605	19,026.9	46.1811	19,026.9	47.7383	19,026.9	41.8547	19,026.9	50.3258	19,026.9	54.6763	19,026.9	43.067
19,697.8	87.9166	19,697.8	86.8324	19,697.8	87.7724	19,697.8	85.7416	19,697.8	86.4657	19,697.8	83.6109	19,697.8	84.4646	19,697.8	82.041	19,697.8	82.5983	19,697.8	79.032	19,697.8	80.9489	19,697.8	73.8717	19,697.8	76.533	19,697.8	70.3734	19,697.8	72.866	19,697.8	67.0113	19,697.8	67.6616	19,697.8	60.5531	19,697.8	63.4293	19,697.8	59.8453	19,697.8	61.3607	19,697.8	55.4808	19,697.8	56.427	19,697.8	43.5835	19,697.8	52.8217	19,697.8	44.6782	19,697.8	52.8978	19,697.8	29.1228	19,697.8	41.5391	19,697.8	47.8578	19,697.8	47.21	19,697.8	43.5072	19,697.8	40.5079	19,697.8	49.8859	19,697.8	55.6605	19,697.8	43.7093
19,999.5	88.3508	19,999.5	87.1912	19,999.5	88.198	19,999.5	85.6645	19,999.5	86.7352	19,999.5	83.1246	19,999.5	84.4452	19,999.5	81.5564	19,999.5	82.3293	19,999.5	78.353	19,999.5	80.401	19,999.5	72.9946	19,999.5	75.8875	19,999.5	69.6344	19,999.5	71.8282	19,999.5	66.2897	19,999.5	67.0569	19,999.5	59.0751	19,999.5	63.0081	19,999.5	58.8434	19,999.5	61.9156	19,999.5	50.805	19,999.5	54.906	19,999.5	36.0278	19,999.5	59.4049	19,999.5	52.4462	19,999.5	49.5614	19,999.5	50.4358	19,999.5	52.875	19,999.5	53.0953	19,999.5	58.0874	19,999.5	54.4482	19,999.5	50.2489	19,999.5	48.371	19,999.5	52.8151	19,999.5	35.9547
