"SPL Vertical"																																																																							
"On-Axis"		"10°"		"-10°"		"20°"		"-20°"		"30°"		"-30°"		"40°"		"-40°"		"50°"		"-50°"		"60°"		"-60°"		"70°"		"-70°"		"80°"		"-80°"		"90°"		"-90°"		"100°"		"-100°"		"110°"		"-110°"		"120°"		"-120°"		"130°"		"-130°"		"140°"		"-140°"		"150°"		"-150°"		"160°"		"-160°"		"170°"		"-170°"		"180°"	
"Frequency [Hz]"	"Sound Pessure Level [dB]  / [2.83V 1m] "	"Frequency [Hz]"	"Sound Pessure Level [dB]  / [2.83V 1m] "	"Frequency [Hz]"	"Sound Pessure Level [dB]  / [2.83V 1m] "	"Frequency [Hz]"	"Sound Pessure Level [dB]  / [2.83V 1m] "	"Frequency [Hz]"	"Sound Pessure Level [dB]  / [2.83V 1m] "	"Frequency [Hz]"	"Sound Pessure Level [dB]  / [2.83V 1m] "	"Frequency [Hz]"	"Sound Pessure Level [dB]  / [2.83V 1m] "	"Frequency [Hz]"	"Sound Pessure Level [dB]  / [2.83V 1m] "	"Frequency [Hz]"	"Sound Pessure Level [dB]  / [2.83V 1m] "	"Frequency [Hz]"	"Sound Pessure Level [dB]  / [2.83V 1m] "	"Frequency [Hz]"	"Sound Pessure Level [dB]  / [2.83V 1m] "	"Frequency [Hz]"	"Sound Pessure Level [dB]  / [2.83V 1m] "	"Frequency [Hz]"	"Sound Pessure Level [dB]  / [2.83V 1m] "	"Frequency [Hz]"	"Sound Pessure Level [dB]  / [2.83V 1m] "	"Frequency [Hz]"	"Sound Pessure Level [dB]  / [2.83V 1m] "	"Frequency [Hz]"	"Sound Pessure Level [dB]  / [2.83V 1m] "	"Frequency [Hz]"	"Sound Pessure Level [dB]  / [2.83V 1m] "	"Frequency [Hz]"	"Sound Pessure Level [dB]  / [2.83V 1m] "	"Frequency [Hz]"	"Sound Pessure Level [dB]  / [2.83V 1m] "	"Frequency [Hz]"	"Sound Pessure Level [dB]  / [2.83V 1m] "	"Frequency [Hz]"	"Sound Pessure Level [dB]  / [2.83V 1m] "	"Frequency [Hz]"	"Sound Pessure Level [dB]  / [2.83V 1m] "	"Frequency [Hz]"	"Sound Pessure Level [dB]  / [2.83V 1m] "	"Frequency [Hz]"	"Sound Pessure Level [dB]  / [2.83V 1m] "	"Frequency [Hz]"	"Sound Pessure Level [dB]  / [2.83V 1m] "	"Frequency [Hz]"	"Sound Pessure Level [dB]  / [2.83V 1m] "	"Frequency [Hz]"	"Sound Pessure Level [dB]  / [2.83V 1m] "	"Frequency [Hz]"	"Sound Pessure Level [dB]  / [2.83V 1m] "	"Frequency [Hz]"	"Sound Pessure Level [dB]  / [2.83V 1m] "	"Frequency [Hz]"	"Sound Pessure Level [dB]  / [2.83V 1m] "	"Frequency [Hz]"	"Sound Pessure Level [dB]  / [2.83V 1m] "	"Frequency [Hz]"	"Sound Pessure Level [dB]  / [2.83V 1m] "	"Frequency [Hz]"	"Sound Pessure Level [dB]  / [2.83V 1m] "	"Frequency [Hz]"	"Sound Pessure Level [dB]  / [2.83V 1m] "	"Frequency [Hz]"	"Sound Pessure Level [dB]  / [2.83V 1m] "	"Frequency [Hz]"	"Sound Pessure Level [dB]  / [2.83V 1m] "
20.5078	53.7912	20.5078	53.6921	20.5078	53.8823	20.5078	53.5879	20.5078	53.9626	20.5078	53.4814	20.5078	54.0288	20.5078	53.3751	20.5078	54.0782	20.5078	53.2714	20.5078	54.108	20.5078	53.1725	20.5078	54.1158	20.5078	53.0807	20.5078	54.1001	20.5078	52.9978	20.5078	54.0602	20.5078	52.9258	20.5078	53.9967	20.5078	52.8663	20.5078	53.9114	20.5078	52.821	20.5078	53.8075	20.5078	52.7911	20.5078	53.6894	20.5078	52.7779	20.5078	53.5626	20.5078	52.7823	20.5078	53.4327	20.5078	52.8049	20.5078	53.3053	20.5078	52.8461	20.5078	53.1854	20.5078	52.9056	20.5078	53.0769	20.5078	52.983
21.9727	55.6153	21.9727	55.4975	21.9727	55.7263	21.9727	55.3763	21.9727	55.827	21.9727	55.2548	21.9727	55.9141	21.9727	55.1362	21.9727	55.9842	21.9727	55.0234	21.9727	56.0343	21.9727	54.9189	21.9727	56.0617	21.9727	54.8252	21.9727	56.0645	21.9727	54.7446	21.9727	56.0416	21.9727	54.679	21.9727	55.9932	21.9727	54.6301	21.9727	55.9203	21.9727	54.5992	21.9727	55.8254	21.9727	54.5875	21.9727	55.7123	21.9727	54.5957	21.9727	55.5856	21.9727	54.624	21.9727	55.4504	21.9727	54.6724	21.9727	55.3123	21.9727	54.7404	21.9727	55.1765	21.9727	54.8269	21.9727	55.0478	21.9727	54.9302
23.4375	56.4041	23.4375	56.3049	23.4375	56.4968	23.4375	56.202	23.4375	56.5804	23.4375	56.098	23.4375	56.652	23.4375	55.9953	23.4375	56.7087	23.4375	55.8961	23.4375	56.7478	23.4375	55.8026	23.4375	56.7669	23.4375	55.7168	23.4375	56.7642	23.4375	55.6405	23.4375	56.7383	23.4375	55.5754	23.4375	56.6891	23.4375	55.5232	23.4375	56.6176	23.4375	55.4852	23.4375	56.5259	23.4375	55.4628	23.4375	56.4176	23.4375	55.4571	23.4375	56.2972	23.4375	55.4691	23.4375	56.1702	23.4375	55.4996	23.4375	56.042	23.4375	55.5488	23.4375	55.9182	23.4375	55.6166	23.4375	55.8036	23.4375	55.7021
24.9023	56.9951	24.9023	56.8905	24.9023	57.0934	24.9023	56.7828	24.9023	57.182	24.9023	56.675	24.9023	57.2579	24.9023	56.57	24.9023	57.318	24.9023	56.4704	24.9023	57.3595	24.9023	56.3786	24.9023	57.3805	24.9023	56.2968	24.9023	57.3794	24.9023	56.2268	24.9023	57.3557	24.9023	56.1702	24.9023	57.3099	24.9023	56.1283	24.9023	57.2436	24.9023	56.1022	24.9023	57.1592	24.9023	56.0927	24.9023	57.0601	24.9023	56.1003	24.9023	56.9503	24.9023	56.1253	24.9023	56.834	24.9023	56.1673	24.9023	56.7157	24.9023	56.2261	24.9023	56.5997	24.9023	56.3005	24.9023	56.4897	24.9023	56.389
26.3672	57.763	26.3672	57.6604	26.3672	57.8589	26.3672	57.5543	26.3672	57.9451	26.3672	57.4477	26.3672	58.0183	26.3672	57.3435	26.3672	58.0757	26.3672	57.2443	26.3672	58.1147	26.3672	57.1524	26.3672	58.1333	26.3672	57.0702	26.3672	58.1302	26.3672	56.9994	26.3672	58.1049	26.3672	56.9418	26.3672	58.0581	26.3672	56.8987	26.3672	57.9913	26.3672	56.8713	26.3672	57.907	26.3672	56.8604	26.3672	57.8086	26.3672	56.8666	26.3672	57.6999	26.3672	56.8901	26.3672	57.5852	26.3672	56.9307	26.3672	57.4687	26.3672	56.988	26.3672	57.3546	26.3672	57.0608	26.3672	57.2465	26.3672	57.1477
27.832	58.7797	27.832	58.6745	27.832	58.8785	27.832	58.5661	27.832	58.9675	27.832	58.4577	27.832	59.0436	27.832	58.3522	27.832	59.1035	27.832	58.2525	27.832	59.1448	27.832	58.1609	27.832	59.1653	27.832	58.0798	27.832	59.1637	27.832	58.011	27.832	59.1398	27.832	57.9562	27.832	59.094	27.832	57.9166	27.832	59.0283	27.832	57.8933	27.832	58.9453	27.832	57.887	27.832	58.8483	27.832	57.8979	27.832	58.7414	27.832	57.9259	27.832	58.6286	27.832	57.9706	27.832	58.514	27.832	58.0313	27.832	58.4012	27.832	58.1065	27.832	58.2938	27.832	58.1947
29.2969	59.5948	29.2969	59.4808	29.2969	59.7012	29.2969	59.3627	29.2969	59.7966	29.2969	59.2439	29.2969	59.8775	29.2969	59.1275	29.2969	59.9407	29.2969	59.0165	29.2969	59.9834	29.2969	58.9135	29.2969	60.0034	29.2969	58.821	29.2969	59.9993	29.2969	58.7412	29.2969	59.9706	29.2969	58.6759	29.2969	59.9179	29.2969	58.6269	29.2969	59.843	29.2969	58.5955	29.2969	59.7487	29.2969	58.5825	29.2969	59.6388	29.2969	58.5888	29.2969	59.5174	29.2969	58.6144	29.2969	59.3894	29.2969	58.6594	29.2969	59.2594	29.2969	58.7231	29.2969	59.132	29.2969	58.8042	29.2969	59.0114	29.2969	58.9011
30.7617	60.4875	30.7617	60.3969	30.7617	60.573	30.7617	60.3041	30.7617	60.6505	30.7617	60.2118	30.7617	60.7171	30.7617	60.1226	30.7617	60.7703	30.7617	60.0388	30.7617	60.8076	30.7617	59.9625	30.7617	60.8273	30.7617	59.8957	30.7617	60.8282	30.7617	59.84	30.7617	60.8101	30.7617	59.7966	30.7617	60.7736	30.7617	59.7666	30.7617	60.7201	30.7617	59.7508	30.7617	60.652	30.7617	59.7495	30.7617	60.5722	30.7617	59.7627	30.7617	60.4838	30.7617	59.7903	30.7617	60.3904	30.7617	59.8316	30.7617	60.2951	30.7617	59.8856	30.7617	60.2011	30.7617	59.9512	30.7617	60.1108	30.7617	60.0269
32.2266	61.2894	32.2266	61.186	32.2266	61.3871	32.2266	61.0804	32.2266	61.476	32.2266	60.9759	32.2266	61.5524	32.2266	60.8753	32.2266	61.6135	32.2266	60.7815	32.2266	61.6564	32.2266	60.6968	32.2266	61.6793	32.2266	60.6234	32.2266	61.6807	32.2266	60.563	32.2266	61.6606	32.2266	60.5169	32.2266	61.6198	32.2266	60.4862	32.2266	61.5601	32.2266	60.4716	32.2266	61.4843	32.2266	60.4732	32.2266	61.3957	32.2266	60.491	32.2266	61.298	32.2266	60.5243	32.2266	61.1949	32.2266	60.5725	32.2266	61.0899	32.2266	60.6343	32.2266	60.986	32.2266	60.7084	32.2266	60.8863	32.2266	60.793
33.6914	61.6263	33.6914	61.5182	33.6914	61.7282	33.6914	61.4074	33.6914	61.8207	33.6914	61.297	33.6914	61.9002	33.6914	61.1903	33.6914	61.9637	33.6914	61.0899	33.6914	62.0084	33.6914	60.9983	33.6914	62.032	33.6914	60.9179	33.6914	62.0332	33.6914	60.8504	33.6914	62.0114	33.6914	60.7976	33.6914	61.9673	33.6914	60.7605	33.6914	61.9026	33.6914	60.74	33.6914	61.8198	33.6914	60.7367	33.6914	61.7226	33.6914	60.7507	33.6914	61.6149	33.6914	60.7818	33.6914	61.5009	33.6914	60.8294	33.6914	61.3849	33.6914	60.8927	33.6914	61.2706	33.6914	60.9703	33.6914	61.1615	33.6914	61.0605
35.1563	62.4753	35.1563	62.37	35.1563	62.5754	35.1563	62.2629	35.1563	62.6669	35.1563	62.1572	35.1563	62.7465	35.1563	62.056	35.1563	62.811	35.1563	61.9619	35.1563	62.8578	35.1563	61.8775	35.1563	62.8847	35.1563	61.8048	35.1563	62.8905	35.1563	61.7457	35.1563	62.8747	35.1563	61.7016	35.1563	62.838	35.1563	61.6734	35.1563	62.782	35.1563	61.6617	35.1563	62.7093	35.1563	61.6667	35.1563	62.6229	35.1563	61.6881	35.1563	62.5263	35.1563	61.7255	35.1563	62.4231	35.1563	61.7779	35.1563	62.3168	35.1563	61.844	35.1563	62.2107	35.1563	61.9223	35.1563	62.1079	35.1563	62.0109
36.6211	62.8274	36.6211	62.704	36.6211	62.9432	36.6211	62.5769	36.6211	63.0476	36.6211	62.4498	36.6211	63.137	36.6211	62.3265	36.6211	63.2081	36.6211	62.2102	36.6211	63.258	36.6211	62.1043	36.6211	63.2848	36.6211	62.0115	36.6211	63.2872	36.6211	61.9342	36.6211	63.265	36.6211	61.8746	36.6211	63.2193	36.6211	61.8342	36.6211	63.1518	36.6211	61.8142	36.6211	63.0652	36.6211	61.8151	36.6211	62.9627	36.6211	61.837	36.6211	62.8481	36.6211	61.8795	36.6211	62.725	36.6211	61.9414	36.6211	62.5975	36.6211	62.0212	36.6211	62.4692	36.6211	62.1167	36.6211	62.3439	36.6211	62.2253
38.0859	64.1141	38.0859	64.0025	38.0859	64.2188	38.0859	63.8873	38.0859	64.3131	38.0859	63.7719	38.0859	64.3938	38.0859	63.6593	38.0859	64.4578	38.0859	63.5527	38.0859	64.5024	38.0859	63.4547	38.0859	64.5255	38.0859	63.3678	38.0859	64.5258	38.0859	63.2942	38.0859	64.5028	38.0859	63.2356	38.0859	64.4571	38.0859	63.1937	38.0859	64.3903	38.0859	63.1695	38.0859	64.3048	38.0859	63.1637	38.0859	64.2041	38.0859	63.1768	38.0859	64.092	38.0859	63.2085	38.0859	63.9726	38.0859	63.2584	38.0859	63.8503	38.0859	63.3255	38.0859	63.7291	38.0859	63.4083	38.0859	63.6128	38.0859	63.5049
39.5508	64.4919	39.5508	64.3837	39.5508	64.5955	39.5508	64.2742	39.5508	64.6912	39.5508	64.1667	39.5508	64.7754	39.5508	64.064	39.5508	64.8451	39.5508	63.9689	39.5508	64.8974	39.5508	63.8837	39.5508	64.9302	39.5508	63.8105	39.5508	64.9418	39.5508	63.751	39.5508	64.9317	39.5508	63.7066	39.5508	64.9002	39.5508	63.6784	39.5508	64.8483	39.5508	63.667	39.5508	64.7781	39.5508	63.6729	39.5508	64.6924	39.5508	63.696	39.5508	64.5942	39.5508	63.7362	39.5508	64.4872	39.5508	63.7926	39.5508	64.3751	39.5508	63.8641	39.5508	64.2617	39.5508	63.9491	39.5508	64.1507	39.5508	64.0455
41.0156	64.7506	41.0156	64.6454	41.0156	64.8515	41.0156	64.5395	41.0156	64.9448	41.0156	64.4362	41.0156	65.027	41.0156	64.3385	41.0156	65.0952	41.0156	64.2491	41.0156	65.1465	41.0156	64.1706	41.0156	65.179	41.0156	64.105	41.0156	65.1913	41.0156	64.0538	41.0156	65.1832	41.0156	64.0184	41.0156	65.1549	41.0156	63.9995	41.0156	65.1081	41.0156	63.9975	41.0156	65.0449	41.0156	64.012	41.0156	64.968	41.0156	64.0426	41.0156	64.8806	41.0156	64.0883	41.0156	64.7858	41.0156	64.1478	41.0156	64.6867	41.0156	64.2193	41.0156	64.5861	41.0156	64.301	41.0156	64.4867	41.0156	64.3909
42.4805	66.0466	42.4805	65.9411	42.4805	66.1431	42.4805	65.8301	42.4805	66.2273	42.4805	65.717	42.4805	66.2961	42.4805	65.6052	42.4805	66.3467	42.4805	65.4976	42.4805	66.377	42.4805	65.3974	42.4805	66.3856	42.4805	65.3069	42.4805	66.3717	42.4805	65.2286	42.4805	66.3357	42.4805	65.1643	42.4805	66.2789	42.4805	65.1156	42.4805	66.2033	42.4805	65.0836	42.4805	66.112	42.4805	65.0691	42.4805	66.0083	42.4805	65.0725	42.4805	65.8963	42.4805	65.0939	42.4805	65.7799	42.4805	65.1328	42.4805	65.663	42.4805	65.1884	42.4805	65.5494	42.4805	65.2597	42.4805	65.4424	42.4805	65.345
43.9453	66.5518	43.9453	66.4517	43.9453	66.6453	43.9453	66.3482	43.9453	66.729	43.9453	66.2448	43.9453	66.7997	43.9453	66.1445	43.9453	66.8548	43.9453	66.0504	43.9453	66.8921	43.9453	65.9649	43.9453	66.9101	43.9453	65.8906	43.9453	66.9081	43.9453	65.8293	43.9453	66.8862	43.9453	65.7826	43.9453	66.8457	43.9453	65.7516	43.9453	66.7883	43.9453	65.737	43.9453	66.7166	43.9453	65.7391	43.9453	66.6334	43.9453	65.7575	43.9453	66.5419	43.9453	65.7917	43.9453	66.445	43.9453	65.8406	43.9453	66.3458	43.9453	65.9028	43.9453	66.2469	43.9453	65.9766	43.9453	66.1508	43.9453	66.0599
45.4102	66.5374	45.4102	66.4241	45.4102	66.643	45.4102	66.3068	45.4102	66.7373	45.4102	66.1892	45.4102	66.817	45.4102	66.0751	45.4102	66.8793	45.4102	65.9679	45.4102	66.922	45.4102	65.871	45.4102	66.9435	45.4102	65.7873	45.4102	66.9432	45.4102	65.7194	45.4102	66.9216	45.4102	65.6692	45.4102	66.8799	45.4102	65.6383	45.4102	66.8203	45.4102	65.6274	45.4102	66.7455	45.4102	65.6365	45.4102	66.6584	45.4102	65.665	45.4102	66.5622	45.4102	65.7117	45.4102	66.4596	45.4102	65.7745	45.4102	66.3533	45.4102	65.8513	45.4102	66.2457	45.4102	65.9395	45.4102	66.1393	45.4102	66.0364
46.875	67.3792	46.875	67.2762	46.875	67.4709	46.875	67.1652	46.875	67.5483	46.875	67.0494	46.875	67.6086	46.875	66.9322	46.875	67.6493	46.875	66.8166	46.875	67.6687	46.875	66.7059	46.875	67.6657	46.875	66.6028	46.875	67.64	46.875	66.51	46.875	67.5922	46.875	66.4301	46.875	67.5239	46.875	66.3651	46.875	67.4372	46.875	66.317	46.875	67.3354	46.875	66.2873	46.875	67.222	46.875	66.277	46.875	67.1009	46.875	66.2868	46.875	66.9761	46.875	66.3168	46.875	66.8518	46.875	66.3666	46.875	66.732	46.875	66.435	46.875	66.6204	46.875	66.5204
48.3398	68.0772	48.3398	67.9754	48.3398	68.1699	48.3398	67.8679	48.3398	68.2502	48.3398	67.7578	48.3398	68.3151	48.3398	67.6485	48.3398	68.3617	48.3398	67.5426	48.3398	68.388	48.3398	67.4432	48.3398	68.3924	48.3398	67.3524	48.3398	68.3743	48.3398	67.2726	48.3398	68.3341	48.3398	67.2055	48.3398	68.2732	48.3398	67.1528	48.3398	68.1939	48.3398	67.1158	48.3398	68.0993	48.3398	67.0954	48.3398	67.9932	48.3398	67.0924	48.3398	67.8795	48.3398	67.107	48.3398	67.7624	48.3398	67.1392	48.3398	67.6458	48.3398	67.1887	48.3398	67.5336	48.3398	67.2545	48.3398	67.4291	48.3398	67.3353
51.2695	68.8366	51.2695	68.7368	51.2695	68.9285	51.2695	68.6326	51.2695	69.0092	51.2695	68.5272	51.2695	69.0756	51.2695	68.4238	51.2695	69.1251	51.2695	68.3254	51.2695	69.1554	51.2695	68.2348	51.2695	69.1651	51.2695	68.1543	51.2695	69.1535	51.2695	68.0859	51.2695	69.1213	51.2695	68.0314	51.2695	69.0697	51.2695	67.9919	51.2695	69.0011	51.2695	67.9683	51.2695	68.9186	51.2695	67.9612	51.2695	68.8257	51.2695	67.9704	51.2695	68.7261	51.2695	67.9957	51.2695	68.6232	51.2695	68.0362	51.2695	68.5202	51.2695	68.0909	51.2695	68.4199	51.2695	68.1583	51.2695	68.3247	51.2695	68.2369
52.7344	69.4145	52.7344	69.3142	52.7344	69.5072	52.7344	69.2097	52.7344	69.5889	52.7344	69.1043	52.7344	69.6566	52.7344	69.0013	52.7344	69.7077	52.7344	68.9036	52.7344	69.7401	52.7344	68.8142	52.7344	69.7525	52.7344	68.7353	52.7344	69.7444	52.7344	68.669	52.7344	69.7161	52.7344	68.617	52.7344	69.6691	52.7344	68.5806	52.7344	69.6054	52.7344	68.5604	52.7344	69.5277	52.7344	68.5569	52.7344	69.4392	52.7344	68.5699	52.7344	69.3432	52.7344	68.599	52.7344	69.2427	52.7344	68.6434	52.7344	69.1408	52.7344	68.7017	52.7344	69.0404	52.7344	68.7725	52.7344	68.9439	52.7344	68.8539
54.1992	69.8292	54.1992	69.7278	54.1992	69.9235	54.1992	69.6228	54.1992	70.0074	54.1992	69.5177	54.1992	70.0777	54.1992	69.4158	54.1992	70.1318	54.1992	69.3202	54.1992	70.1677	54.1992	69.2337	54.1992	70.184	54.1992	69.1587	54.1992	70.1803	54.1992	69.0973	54.1992	70.1572	54.1992	69.0509	54.1992	70.1158	54.1992	69.0208	54.1992	70.0583	54.1992	69.0073	54.1992	69.9872	54.1992	69.0108	54.1992	69.9053	54.1992	69.0308	54.1992	69.8154	54.1992	69.0665	54.1992	69.7203	54.1992	69.1169	54.1992	69.6226	54.1992	69.1802	54.1992	69.5248	54.1992	69.2548	54.1992	69.4294	54.1992	69.3386
55.6641	70.3153	55.6641	70.214	55.6641	70.4083	55.6641	70.1081	55.6641	70.4899	55.6641	70.0011	55.6641	70.5571	55.6641	69.8966	55.6641	70.6073	55.6641	69.798	55.6641	70.639	55.6641	69.7084	55.6641	70.6512	55.6641	69.6306	55.6641	70.6438	55.6641	69.5669	55.6641	70.6178	55.6641	69.5191	55.6641	70.5749	55.6641	69.4885	55.6641	70.5172	55.6641	69.4757	55.6641	70.4475	55.6641	69.4809	55.6641	70.3683	55.6641	69.5033	55.6641	70.2822	55.6641	69.542	55.6641	70.1914	55.6641	69.5953	55.6641	70.098	55.6641	69.6611	55.6641	70.0038	55.6641	69.7373	55.6641	69.9109	55.6641	69.8213
58.5938	71.4074	58.5938	71.3055	58.5938	71.4985	58.5938	71.1961	58.5938	71.5753	58.5938	71.0828	58.5938	71.6349	58.5938	70.9691	58.5938	71.6748	58.5938	70.8582	58.5938	71.6931	58.5938	70.7532	58.5938	71.6889	58.5938	70.657	58.5938	71.662	58.5938	70.5718	58.5938	71.6134	58.5938	70.5	58.5938	71.545	58.5938	70.4431	58.5938	71.4596	58.5938	70.4025	58.5938	71.3607	58.5938	70.3792	58.5938	71.2519	58.5938	70.3736	58.5938	71.1373	58.5938	70.386	58.5938	71.0209	58.5938	70.4161	58.5938	70.9062	58.5938	70.4632	58.5938	70.7966	58.5938	70.5264	58.5938	70.6951	58.5938	70.6043
60.0586	71.7702	60.0586	71.669	60.0586	71.8614	60.0586	71.5613	60.0586	71.9392	60.0586	71.4504	60.0586	72.0006	60.0586	71.3399	60.0586	72.0431	60.0586	71.2331	60.0586	72.065	60.0586	71.1329	60.0586	72.0652	60.0586	71.0421	60.0586	72.0436	60.0586	70.963	60.0586	72.001	60.0586	70.8975	60.0586	71.9394	60.0586	70.8473	60.0586	71.8613	60.0586	70.8134	60.0586	71.7698	60.0586	70.7966	60.0586	71.6685	60.0586	70.7972	60.0586	71.5609	60.0586	70.815	60.0586	71.4506	60.0586	70.8498	60.0586	71.3408	60.0586	70.9005	60.0586	71.2348	60.0586	70.9661	60.0586	71.1354	60.0586	71.0451
62.9883	72.6022	62.9883	72.5007	62.9883	72.6939	62.9883	72.3928	62.9883	72.7723	62.9883	72.2821	62.9883	72.8346	62.9883	72.1721	62.9883	72.8782	62.9883	72.0662	62.9883	72.9014	62.9883	71.9673	62.9883	72.9033	62.9883	71.8783	62.9883	72.8837	62.9883	71.8014	62.9883	72.8436	62.9883	71.7385	62.9883	72.7848	62.9883	71.6912	62.9883	72.7099	62.9883	71.6604	62.9883	72.6218	62.9883	71.6468	62.9883	72.5238	62.9883	71.6506	62.9883	72.4194	62.9883	71.6716	62.9883	72.3117	62.9883	71.7091	62.9883	72.204	62.9883	71.7622	62.9883	72.0993	62.9883	71.8296	62.9883	72.0003	62.9883	71.9096
64.4531	73.047	64.4531	72.9458	64.4531	73.1391	64.4531	72.8389	64.4531	73.2187	64.4531	72.7299	64.4531	73.2828	64.4531	72.6224	64.4531	73.3288	64.4531	72.5196	64.4531	73.3551	64.4531	72.4243	64.4531	73.3604	64.4531	72.3394	64.4531	73.3448	64.4531	72.2669	64.4531	73.309	64.4531	72.2086	64.4531	73.2547	64.4531	72.1658	64.4531	73.1842	64.4531	72.1395	64.4531	73.1005	64.4531	72.1299	64.4531	73.0067	64.4531	72.1373	64.4531	72.9059	64.4531	72.1612	64.4531	72.8014	64.4531	72.2011	64.4531	72.6961	64.4531	72.256	64.4531	72.5932	64.4531	72.3244	64.4531	72.4952	64.4531	72.4049
67.3828	73.8029	67.3828	73.7003	67.3828	73.8968	67.3828	73.5928	67.3828	73.9786	67.3828	73.4841	67.3828	74.0453	67.3828	73.3777	67.3828	74.0943	67.3828	73.2772	67.3828	74.1239	67.3828	73.1857	67.3828	74.1332	67.3828	73.1057	67.3828	74.1221	67.3828	73.0396	67.3828	74.0918	67.3828	72.989	67.3828	74.044	67.3828	72.9551	67.3828	73.981	67.3828	72.9383	67.3828	73.9057	67.3828	72.9389	67.3828	73.8209	67.3828	72.9562	67.3828	73.7292	67.3828	72.9896	67.3828	73.6334	67.3828	73.0377	67.3828	73.5357	67.3828	73.0991	67.3828	73.4384	67.3828	73.172	67.3828	73.3438	67.3828	73.2543
68.8477	74.1839	68.8477	74.0804	68.8477	74.2784	68.8477	73.9718	68.8477	74.3604	68.8477	73.8618	68.8477	74.427	68.8477	73.754	68.8477	74.4755	68.8477	73.6522	68.8477	74.5043	68.8477	73.5594	68.8477	74.5126	68.8477	73.4784	68.8477	74.5004	68.8477	73.4115	68.8477	74.469	68.8477	73.3604	68.8477	74.4203	68.8477	73.3264	68.8477	74.3567	68.8477	73.31	68.8477	74.2812	68.8477	73.3111	68.8477	74.1966	68.8477	73.3295	68.8477	74.1055	68.8477	73.364	68.8477	74.0104	68.8477	73.4134	68.8477	73.9134	68.8477	73.476	68.8477	73.8167	68.8477	73.5497	68.8477	73.7224	68.8477	73.6326
71.7773	75.0149	71.7773	74.9113	71.7773	75.1084	71.7773	74.8014	71.7773	75.1883	71.7773	74.6892	71.7773	75.2516	71.7773	74.5786	71.7773	75.2961	71.7773	74.4733	71.7773	75.3201	71.7773	74.3768	71.7773	75.3234	71.7773	74.2921	71.7773	75.3063	71.7773	74.2219	71.7773	75.2704	71.7773	74.1681	71.7773	75.2181	71.7773	74.1321	71.7773	75.1522	71.7773	74.1146	71.7773	75.0758	71.7773	74.1156	71.7773	74.9917	71.7773	74.1345	71.7773	74.9025	71.7773	74.1702	71.7773	74.81	71.7773	74.2209	71.7773	74.7161	71.7773	74.2847	71.7773	74.6222	71.7773	74.359	71.7773	74.5301	71.7773	74.4417
74.707	75.8918	74.707	75.7861	74.707	75.9861	74.707	75.6728	74.707	76.0653	74.707	75.5559	74.707	76.1263	74.707	75.4395	74.707	76.1667	74.707	75.3272	74.707	76.1848	74.707	75.2227	74.707	76.18	74.707	75.129	74.707	76.153	74.707	75.0487	74.707	76.1053	74.707	74.984	74.707	76.0395	74.707	74.9362	74.707	75.9587	74.707	74.9064	74.707	75.8667	74.707	74.8949	74.707	75.767	74.707	74.9014	74.707	75.6629	74.707	74.9253	74.707	75.5574	74.707	74.9654	74.707	75.4529	74.707	75.0203	74.707	75.3518	74.707	75.0883	74.707	75.256	74.707	75.1675
77.6367	76.5078	77.6367	76.4004	77.6367	76.6047	77.6367	76.2864	77.6367	76.6875	77.6367	76.1698	77.6367	76.7531	77.6367	76.0547	77.6367	76.7989	77.6367	75.9449	77.6367	76.8233	77.6367	75.8438	77.6367	76.8258	77.6367	75.7545	77.6367	76.8067	77.6367	75.6795	77.6367	76.7675	77.6367	75.6207	77.6367	76.7104	77.6367	75.5795	77.6367	76.6382	77.6367	75.5566	77.6367	76.554	77.6367	75.5522	77.6367	76.4608	77.6367	75.5658	77.6367	76.3616	77.6367	75.5967	77.6367	76.259	77.6367	75.6435	77.6367	76.1555	77.6367	75.7047	77.6367	76.0534	77.6367	75.7784	77.6367	75.955	77.6367	75.8626
79.1016	76.8068	79.1016	76.6997	79.1016	76.904	79.1016	76.5864	79.1016	76.9874	79.1016	76.4711	79.1016	77.0541	79.1016	76.3578	79.1016	77.1014	79.1016	76.2501	79.1016	77.1278	79.1016	76.1517	79.1016	77.1327	79.1016	76.0653	79.1016	77.1163	79.1016	75.9936	79.1016	77.0802	79.1016	75.9382	79.1016	77.0265	79.1016	75.9006	79.1016	76.9579	79.1016	75.8811	79.1016	76.8774	79.1016	75.88	79.1016	76.7878	79.1016	75.8967	79.1016	76.692	79.1016	75.9302	79.1016	76.5925	79.1016	75.9793	79.1016	76.4914	79.1016	76.0421	79.1016	76.391	79.1016	76.1169	79.1016	76.2936	79.1016	76.2015
82.0313	77.4243	82.0313	77.3179	82.0313	77.5216	82.0313	77.2064	82.0313	77.606	82.0313	77.0938	82.0313	77.6745	82.0313	76.9843	82.0313	77.7245	82.0313	76.8816	82.0313	77.7545	82.0313	76.7892	82.0313	77.7639	82.0313	76.71	82.0313	77.7531	82.0313	76.6463	82.0313	77.7234	82.0313	76.5998	82.0313	77.6769	82.0313	76.5714	82.0313	77.6162	82.0313	76.5613	82.0313	77.544	82.0313	76.5691	82.0313	77.463	82.0313	76.5938	82.0313	77.3757	82.0313	76.6341	82.0313	77.284	82.0313	76.6883	82.0313	77.1902	82.0313	76.7543	82.0313	77.0959	82.0313	76.8303	82.0313	77.0031	82.0313	76.9139
84.9609	78.0011	84.9609	77.8941	84.9609	78.0985	84.9609	77.7815	84.9609	78.1827	84.9609	77.668	84.9609	78.2506	84.9609	77.5579	84.9609	78.3003	84.9609	77.4557	84.9609	78.3308	84.9609	77.3653	84.9609	78.342	84.9609	77.2901	84.9609	78.3352	84.9609	77.2327	84.9609	78.3121	84.9609	77.1949	84.9609	78.2751	84.9609	77.1776	84.9609	78.2267	84.9609	77.1808	84.9609	78.1692	84.9609	77.2034	84.9609	78.1043	84.9609	77.2436	84.9609	78.0333	84.9609	77.2992	84.9609	77.9572	84.9609	77.3673	84.9609	77.8764	84.9609	77.4449	84.9609	77.7919	84.9609	77.5288	84.9609	77.7046	84.9609	77.6163
87.8906	78.7545	87.8906	78.648	87.8906	78.8457	87.8906	78.5304	87.8906	78.9182	87.8906	78.4061	87.8906	78.9695	87.8906	78.2798	87.8906	78.9982	87.8906	78.1565	87.8906	79.004	87.8906	78.0405	87.8906	78.9877	87.8906	77.9362	87.8906	78.9515	87.8906	77.847	87.8906	78.8982	87.8906	77.7759	87.8906	78.8311	87.8906	77.7249	87.8906	78.7535	87.8906	77.695	87.8906	78.6683	87.8906	77.6864	87.8906	78.5776	87.8906	77.6985	87.8906	78.4831	87.8906	77.7298	87.8906	78.3861	87.8906	77.7784	87.8906	78.288	87.8906	77.8419	87.8906	78.19	87.8906	77.9174	87.8906	78.0941	87.8906	78.0024
90.8203	79.3867	90.8203	79.2835	90.8203	79.4758	90.8203	79.17	90.8203	79.5473	90.8203	79.0505	90.8203	79.5987	90.8203	78.9294	90.8203	79.6281	90.8203	78.8109	90.8203	79.635	90.8203	78.6992	90.8203	79.6198	90.8203	78.598	90.8203	79.5841	90.8203	78.5105	90.8203	79.5307	90.8203	78.4394	90.8203	79.4627	90.8203	78.3867	90.8203	79.3836	90.8203	78.3536	90.8203	79.2964	90.8203	78.3406	90.8203	79.2038	90.8203	78.3474	90.8203	79.1077	90.8203	78.3731	90.8203	79.0096	90.8203	78.4162	90.8203	78.9108	90.8203	78.4747	90.8203	78.8129	90.8203	78.5462	90.8203	78.718	90.8203	78.6282
95.2148	80.0771	95.2148	79.9669	95.2148	80.1739	95.2148	79.8481	95.2148	80.2535	95.2148	79.7253	95.2148	80.3126	95.2148	79.6038	95.2148	80.3494	95.2148	79.4882	95.2148	80.363	95.2148	79.3829	95.2148	80.3542	95.2148	79.2917	95.2148	80.325	95.2148	79.2177	95.2148	80.2785	95.2148	79.1629	95.2148	80.2185	95.2148	79.1286	95.2148	80.1486	95.2148	79.115	95.2148	80.0723	95.2148	79.1215	95.2148	79.992	95.2148	79.1468	95.2148	79.909	95.2148	79.189	95.2148	79.824	95.2148	79.2456	95.2148	79.7373	95.2148	79.3139	95.2148	79.6494	95.2148	79.3911	95.2148	79.5612	95.2148	79.4744
98.1445	80.7406	98.1445	80.6312	98.1445	80.8351	98.1445	80.5113	98.1445	80.9107	98.1445	80.3855	98.1445	80.9644	98.1445	80.2589	98.1445	80.9943	98.1445	80.1362	98.1445	80.9996	98.1445	80.0218	98.1445	80.9809	98.1445	79.9198	98.1445	80.9403	98.1445	79.8335	98.1445	80.8808	98.1445	79.7653	98.1445	80.8064	98.1445	79.7171	98.1445	80.7214	98.1445	79.6895	98.1445	80.6298	98.1445	79.6826	98.1445	80.5349	98.1445	79.6955	98.1445	80.4391	98.1445	79.7265	98.1445	80.3438	98.1445	79.7734	98.1445	80.2499	98.1445	79.8337	98.1445	80.1581	98.1445	79.9048	98.1445	80.069	98.1445	79.984
101.074	81.1734	101.074	81.0609	101.074	81.2724	101.074	80.9399	101.074	81.3542	101.074	80.8151	101.074	81.4153	101.074	80.6917	101.074	81.4537	101.074	80.5746	101.074	81.4684	101.074	80.468	101.074	81.4598	101.074	80.3758	101.074	81.4297	101.074	80.3009	101.074	81.3808	101.074	80.2453	101.074	81.3166	101.074	80.21	101.074	81.2409	101.074	80.1951	101.074	81.1574	101.074	80.1999	101.074	81.069	101.074	80.2229	101.074	80.9782	101.074	80.2621	101.074	80.8867	101.074	80.3151	101.074	80.7954	101.074	80.3795	101.074	80.7053	101.074	80.4527	101.074	80.6174	101.074	80.5327
105.469	81.838	105.469	81.7281	105.469	81.9322	105.469	81.607	105.469	82.0068	105.469	81.4797	105.469	82.0593	105.469	81.3513	105.469	82.0881	105.469	81.227	105.469	82.0931	105.469	81.1118	105.469	82.0758	105.469	81.0099	105.469	82.0386	105.469	80.925	105.469	81.9851	105.469	80.8598	105.469	81.9191	105.469	80.8161	105.469	81.8443	105.469	80.7946	105.469	81.7639	105.469	80.7951	105.469	81.6799	105.469	80.8163	105.469	81.5935	105.469	80.8561	105.469	81.5053	105.469	80.912	105.469	81.4156	105.469	80.9809	105.469	81.3248	105.469	81.0595	105.469	81.234	105.469	81.1448
108.398	82.2038	108.398	82.0931	108.398	82.299	108.398	81.9717	108.398	82.375	108.398	81.8446	108.398	82.4288	108.398	81.7173	108.398	82.4589	108.398	81.595	108.398	82.4653	108.398	81.4826	108.398	82.4493	108.398	81.3845	108.398	82.4136	108.398	81.304	108.398	82.3619	108.398	81.2437	108.398	82.2982	108.398	81.2051	108.398	82.2262	108.398	81.1887	108.398	82.1492	108.398	81.1937	108.398	82.0691	108.398	81.2189	108.398	81.9868	108.398	81.2619	108.398	81.9026	108.398	81.32	108.398	81.8167	108.398	81.3901	108.398	81.7292	108.398	81.4689	108.398	81.6409	108.398	81.5534
112.793	82.7624	112.793	82.6489	112.793	82.8592	112.793	82.5237	112.793	82.9351	112.793	82.3921	112.793	82.9874	112.793	82.2602	112.793	83.0147	112.793	82.1337	112.793	83.0173	112.793	82.0179	112.793	82.9971	112.793	81.9176	112.793	82.9574	112.793	81.8366	112.793	82.9024	112.793	81.7774	112.793	82.8367	112.793	81.7414	112.793	82.7645	112.793	81.729	112.793	82.689	112.793	81.739	112.793	82.6119	112.793	81.7695	112.793	82.5338	112.793	81.8178	112.793	82.4544	112.793	81.8804	112.793	82.3732	112.793	81.9538	112.793	82.2899	112.793	82.0344	112.793	82.2048	112.793	82.1189
117.188	83.2533	117.188	83.1379	117.188	83.3504	117.188	83.0093	117.188	83.425	117.188	82.8731	117.188	83.4742	117.188	82.7357	117.188	83.4969	117.188	82.603	117.188	83.4935	117.188	82.4808	117.188	83.4664	117.188	82.3743	117.188	83.4195	117.188	82.2877	117.188	83.3577	117.188	82.224	117.188	83.2863	117.188	82.1849	117.188	83.2102	117.188	82.1707	117.188	83.1326	117.188	82.1803	117.188	83.0553	117.188	82.2115	117.188	82.9784	117.188	82.2613	117.188	82.9009	117.188	82.326	117.188	82.8217	117.188	82.4014	117.188	82.7398	117.188	82.4837	117.188	82.6554	117.188	82.5693
120.117	83.6274	120.117	83.5117	120.117	83.7238	120.117	83.3818	120.117	83.7966	120.117	83.2434	120.117	83.8431	120.117	83.1026	120.117	83.8619	120.117	82.9658	120.117	83.8535	120.117	82.8387	120.117	83.8201	120.117	82.7268	120.117	83.7655	120.117	82.6344	120.117	83.6949	120.117	82.5649	120.117	83.6139	120.117	82.5202	120.117	83.5278	120.117	82.5007	120.117	83.4408	120.117	82.5055	120.117	83.3554	120.117	82.5323	120.117	83.2726	120.117	82.5779	120.117	83.1917	120.117	82.6383	120.117	83.1117	120.117	82.7093	120.117	83.0313	120.117	82.7871	120.117	82.9501	120.117	82.8682
124.512	83.9677	124.512	83.8492	124.512	84.0669	124.512	83.7167	124.512	84.1424	124.512	83.5762	124.512	84.191	124.512	83.4339	124.512	84.2114	124.512	83.2959	124.512	84.2036	124.512	83.168	124.512	84.1699	124.512	83.055	124.512	84.1139	124.512	82.9613	124.512	84.0407	124.512	82.8895	124.512	83.956	124.512	82.8416	124.512	83.8651	124.512	82.818	124.512	83.7723	124.512	82.818	124.512	83.6805	124.512	82.8396	124.512	83.5909	124.512	82.8803	124.512	83.5035	124.512	82.9367	124.512	83.4175	124.512	83.0049	124.512	83.3321	124.512	83.0815	124.512	83.2471	124.512	83.1631
128.906	84.1982	128.906	84.0764	128.906	84.3008	128.906	83.9413	128.906	84.3799	128.906	83.7991	128.906	84.432	128.906	83.6563	128.906	84.4556	128.906	83.5195	128.906	84.4512	128.906	83.3946	128.906	84.4208	128.906	83.2867	128.906	84.3684	128.906	83.1996	128.906	84.2992	128.906	83.1361	128.906	84.219	128.906	83.0972	128.906	84.1329	128.906	83.0829	128.906	84.0453	128.906	83.0917	128.906	83.9587	128.906	83.1214	128.906	83.8741	128.906	83.1686	128.906	83.7913	128.906	83.2299	128.906	83.7093	128.906	83.3015	128.906	83.6272	128.906	83.3797	128.906	83.5444	128.906	83.4615
133.301	84.4295	133.301	84.3036	133.301	84.5353	133.301	84.1635	133.301	84.6161	133.301	84.016	133.301	84.6688	133.301	83.868	133.301	84.692	133.301	83.7267	133.301	84.6861	133.301	83.5987	133.301	84.654	133.301	83.4894	133.301	84.6	133.301	83.4033	133.301	84.5297	133.301	83.3432	133.301	84.4494	133.301	83.3101	133.301	84.3649	133.301	83.3035	133.301	84.2804	133.301	83.3215	133.301	84.1984	133.301	83.3608	133.301	84.1197	133.301	83.4175	133.301	84.0433	133.301	83.487	133.301	83.9675	133.301	83.5649	133.301	83.8907	133.301	83.647	133.301	83.8115	133.301	83.73
139.16	84.6456	139.16	84.5172	139.16	84.7519	139.16	84.3729	139.16	84.8316	139.16	84.2195	139.16	84.8815	139.16	84.0646	139.16	84.9005	139.16	83.9156	139.16	84.8897	139.16	83.7796	139.16	84.8522	139.16	83.6627	139.16	84.793	139.16	83.5697	139.16	84.7182	139.16	83.5039	139.16	84.6343	139.16	83.4668	139.16	84.5472	139.16	83.4581	139.16	84.4613	139.16	83.4758	139.16	84.3787	139.16	83.5166	139.16	84.2998	139.16	83.5762	139.16	84.2233	139.16	83.6496	139.16	84.1473	139.16	83.7318	139.16	84.0695	139.16	83.818	139.16	83.9887	139.16	83.9045
143.555	84.7129	143.555	84.5826	143.555	84.8199	143.555	84.4353	143.555	84.899	143.555	84.2781	143.555	84.9469	143.555	84.1187	143.555	84.9629	143.555	83.965	143.555	84.9482	143.555	83.8242	143.555	84.9064	143.555	83.7027	143.555	84.8428	143.555	83.6057	143.555	84.764	143.555	83.5365	143.555	84.6771	143.555	83.4968	143.555	84.5881	143.555	83.4864	143.555	84.5013	143.555	83.5036	143.555	84.4188	143.555	83.5449	143.555	84.3406	143.555	83.6059	143.555	84.2649	143.555	83.6814	143.555	84.1892	143.555	83.766	143.555	84.1113	143.555	83.8548	143.555	84.0295	143.555	83.9436
147.949	84.7484	147.949	84.6142	147.949	84.8582	147.949	84.462	147.949	84.9384	147.949	84.2993	147.949	84.9859	147.949	84.1343	147.949	84.9997	147.949	83.9752	147.949	84.9813	147.949	83.8296	147.949	84.9343	147.949	83.7042	147.949	84.8645	147.949	83.6041	147.949	84.7789	147.949	83.5328	147.949	84.6851	147.949	83.4917	147.949	84.5894	147.949	83.4804	147.949	84.4969	147.949	83.4969	147.949	84.41	147.949	83.5376	147.949	84.3287	147.949	83.5979	147.949	84.2513	147.949	83.6727	147.949	84.1752	147.949	83.7565	147.949	84.0977	147.949	83.8443	147.949	84.0168	147.949	83.932
153.809	84.7247	153.809	84.5914	153.809	84.8315	153.809	84.4381	153.809	84.9074	153.809	84.2724	153.809	84.9497	153.809	84.1028	153.809	84.9584	153.809	83.938	153.809	84.9359	153.809	83.7866	153.809	84.887	153.809	83.6559	153.809	84.8181	153.809	83.5519	153.809	84.7368	153.809	83.4786	153.809	84.65	153.809	83.4378	153.809	84.5636	153.809	83.429	153.809	84.4807	153.809	83.45	153.809	84.4022	153.809	83.4966	153.809	84.3271	153.809	83.5636	153.809	84.253	153.809	83.6454	153.809	84.1774	153.809	83.736	153.809	84.0979	153.809	83.8302	153.809	84.0133	153.809	83.9236
159.668	84.772	159.668	84.6335	159.668	84.8828	159.668	84.4741	159.668	84.9609	159.668	84.302	159.668	85.0034	159.668	84.1258	159.668	85.0099	159.668	83.9546	159.668	84.9828	159.668	83.7972	159.668	84.927	159.668	83.6611	159.668	84.8499	159.668	83.5525	159.668	84.7599	159.668	83.4758	159.668	84.6656	159.668	83.433	159.668	84.5739	159.668	83.424	159.668	84.4889	159.668	83.4467	159.668	84.4118	159.668	83.4969	159.668	84.3407	159.668	83.5691	159.668	84.272	159.668	83.6571	159.668	84.2015	159.668	83.754	159.668	84.1256	159.668	83.8538	159.668	84.0422	159.668	83.951
165.527	84.7765	165.527	84.6376	165.527	84.8861	165.527	84.4763	165.527	84.9613	165.527	84.3012	165.527	84.9994	165.527	84.1214	165.527	85.0002	165.527	83.9464	165.527	84.9665	165.527	83.7852	165.527	84.9039	165.527	83.6459	165.527	84.8202	165.527	83.5348	165.527	84.7245	165.527	83.4565	165.527	84.6261	165.527	83.413	165.527	84.5322	165.527	83.4044	165.527	84.4475	165.527	83.4282	165.527	84.3729	165.527	83.4803	165.527	84.3063	165.527	83.555	165.527	84.2436	165.527	83.6455	165.527	84.1794	165.527	83.7445	165.527	84.1094	165.527	83.8452	165.527	84.0305	165.527	83.9419
171.387	84.689	171.387	84.5495	171.387	84.7966	171.387	84.3852	171.387	84.8668	171.387	84.205	171.387	84.8971	171.387	84.0186	171.387	84.8876	171.387	83.8361	171.387	84.8416	171.387	83.667	171.387	84.7652	171.387	83.5197	171.387	84.6671	171.387	83.4008	171.387	84.5571	171.387	83.315	171.387	84.4452	171.387	83.2644	171.387	84.3394	171.387	83.2489	171.387	84.2446	171.387	83.2662	171.387	84.1625	171.387	83.312	171.387	84.0912	171.387	83.3804	171.387	84.0267	171.387	83.4645	171.387	83.9637	171.387	83.557	171.387	83.8972	171.387	83.6511	171.387	83.8235	171.387	83.7411
177.246	84.4686	177.246	84.322	177.246	84.5835	177.246	84.1514	177.246	84.6614	177.246	83.9662	177.246	84.6991	177.246	83.7766	177.246	84.6967	177.246	83.593	177.246	84.6575	177.246	83.4253	177.246	84.5878	177.246	83.2821	177.246	84.4962	177.246	83.1699	177.246	84.393	177.246	83.0928	177.246	84.2879	177.246	83.0522	177.246	84.1887	177.246	83.0475	177.246	84.1001	177.246	83.0754	177.246	84.0228	177.246	83.1312	177.246	83.9547	177.246	83.2087	177.246	83.8914	177.246	83.3008	177.246	83.8278	177.246	83.4004	177.246	83.7592	177.246	83.5005	177.246	83.6823	177.246	83.5956
183.105	84.2595	183.105	84.1069	183.105	84.3774	183.105	83.9275	183.105	84.4552	183.105	83.7309	183.105	84.4904	183.105	83.5281	183.105	84.4833	183.105	83.3308	183.105	84.4377	183.105	83.15	183.105	84.3604	183.105	82.9959	183.105	84.2607	183.105	82.8762	183.105	84.1492	183.105	82.7959	183.105	84.0363	183.105	82.7565	183.105	83.9304	183.105	82.7567	183.105	83.8364	183.105	82.792	183.105	83.7558	183.105	82.8564	183.105	83.6867	183.105	82.942	183.105	83.6246	183.105	83.0407	183.105	83.5639	183.105	83.1446	183.105	83.4989	183.105	83.2465	183.105	83.4254	183.105	83.3412
188.965	84.1292	188.965	83.9811	188.965	84.2394	188.965	83.8028	188.965	84.3069	188.965	83.6039	188.965	84.3296	188.965	83.3955	188.965	84.3088	188.965	83.1895	188.965	84.2491	188.965	82.9978	188.965	84.1586	188.965	82.8312	188.965	84.0475	188.965	82.6983	188.965	83.9274	188.965	82.6052	188.965	83.8091	188.965	82.5544	188.965	83.7009	188.965	82.545	188.965	83.6075	188.965	82.5732	188.965	83.5292	188.965	82.6328	188.965	83.463	188.965	82.7161	188.965	83.4036	188.965	82.8144	188.965	83.3447	188.965	82.9193	188.965	83.2803	188.965	83.0232	188.965	83.206	188.965	83.12
196.289	84.0616	196.289	83.9157	196.289	84.1674	196.289	83.7376	196.289	84.2282	196.289	83.5371	196.289	84.2421	196.289	83.3253	196.289	84.2106	196.289	83.1145	196.289	84.1392	196.289	82.9166	196.289	84.0369	196.289	82.7427	196.289	83.9152	196.289	82.602	196.289	83.7869	196.289	82.5012	196.289	83.6639	196.289	82.4435	196.289	83.555	196.289	82.4288	196.289	83.4645	196.289	82.4541	196.289	83.3923	196.289	82.5132	196.289	83.3341	196.289	82.5983	196.289	83.2831	196.289	82.7001	196.289	83.2317	196.289	82.8092	196.289	83.1728	196.289	82.9168	196.289	83.1015	196.289	83.0157
203.613	83.8672	203.613	83.7176	203.613	83.9742	203.613	83.5337	203.613	84.0329	203.613	83.326	203.613	84.0411	203.613	83.1069	203.613	84.0004	203.613	82.8894	203.613	83.9166	203.613	82.6865	203.613	83.7994	203.613	82.5099	203.613	83.662	203.613	82.3693	203.613	83.519	203.613	82.271	203.613	83.3846	203.613	82.2177	203.613	83.2692	203.613	82.2085	203.613	83.1782	203.613	82.2391	203.613	83.1111	203.613	82.3029	203.613	83.0623	203.613	82.3911	203.613	83.0235	203.613	82.4943	203.613	82.9852	203.613	82.6027	203.613	82.9387	203.613	82.7072	203.613	82.878	203.613	82.8005
210.938	83.6165	210.938	83.4605	210.938	83.7285	210.938	83.2692	210.938	83.7906	210.938	83.0535	210.938	83.8002	210.938	82.8259	210.938	83.7584	210.938	82.5997	210.938	83.6707	210.938	82.3885	210.938	83.5467	210.938	82.2047	210.938	83.3994	210.938	82.0587	210.938	83.2439	210.938	81.9579	210.938	83.095	210.938	81.9053	210.938	82.9648	210.938	81.8999	210.938	82.8604	210.938	81.9367	210.938	82.7833	210.938	82.0073	210.938	82.7296	210.938	82.1015	210.938	82.6914	210.938	82.2082	210.938	82.6586	210.938	82.3166	210.938	82.6211	210.938	82.4171	210.938	82.5708	210.938	82.503
218.262	83.4304	218.262	83.2747	218.262	83.5418	218.262	83.0838	218.262	83.6028	218.262	82.8686	218.262	83.6106	218.262	82.6416	218.262	83.5665	218.262	82.416	218.262	83.476	218.262	82.2046	218.262	83.3488	218.262	82.0194	218.262	83.1981	218.262	81.8704	218.262	83.0389	218.262	81.7648	218.262	82.8857	218.262	81.7061	218.262	82.7505	218.262	81.6944	218.262	82.6408	218.262	81.7254	218.262	82.5587	218.262	81.7918	218.262	82.5014	218.262	81.8836	218.262	82.4616	218.262	81.9892	218.262	82.4295	218.262	82.0971	218.262	82.3942	218.262	82.197	218.262	82.3467	218.262	82.2813
225.586	83.2695	225.586	83.1088	225.586	83.3823	225.586	82.9103	225.586	83.441	225.586	82.6862	225.586	83.4431	225.586	82.4505	225.586	83.391	225.586	82.2179	225.586	83.292	225.586	82.0024	225.586	83.1584	225.586	81.8169	225.586	83.006	225.586	81.6715	225.586	82.8519	225.586	81.5733	225.586	82.7114	225.586	81.5256	225.586	82.5956	225.586	81.5274	225.586	82.5091	225.586	81.5742	225.586	82.4506	225.586	81.6578	225.586	82.4139	225.586	81.7671	225.586	82.3899	225.586	81.8897	225.586	82.3678	225.586	82.0128	225.586	82.3371	225.586	82.1253	225.586	82.2892	225.586	82.2188
232.91	83.1442	232.91	82.9715	232.91	83.2649	232.91	82.7579	232.91	83.3263	232.91	82.5168	232.91	83.3251	232.91	82.2636	232.91	83.2635	232.91	82.0138	232.91	83.1487	232.91	81.7823	232.91	82.9936	232.91	81.582	232.91	82.8151	232.91	81.4226	232.91	82.6323	232.91	81.3107	232.91	82.4629	232.91	81.2492	232.91	82.3201	232.91	81.2379	232.91	82.211	232.91	81.2728	232.91	82.1359	232.91	81.3472	232.91	82.0893	232.91	81.4507	232.91	82.0616	232.91	81.5709	232.91	82.0405	232.91	81.694	232.91	82.0132	232.91	81.8071	232.91	81.9687	232.91	81.9004
241.699	82.8219	241.699	82.6286	241.699	82.9624	241.699	82.3944	241.699	83.0422	241.699	82.1344	241.699	83.0579	241.699	81.8657	241.699	83.0117	241.699	81.6056	241.699	82.9118	241.699	81.3705	241.699	82.7714	241.699	81.1735	241.699	82.6082	241.699	81.0239	241.699	82.4409	241.699	80.9262	241.699	82.2858	241.699	80.8803	241.699	82.1534	241.699	80.883	241.699	82.0471	241.699	80.9284	241.699	81.9645	241.699	81.0085	241.699	81.8994	241.699	81.1138	241.699	81.8444	241.699	81.2337	241.699	81.7917	241.699	81.3571	241.699	81.7337	241.699	81.4742	241.699	81.6638	241.699	81.5776
250.488	82.5391	250.488	82.3175	250.488	82.6957	250.488	82.0441	250.488	82.7793	250.488	81.7365	250.488	82.7875	250.488	81.4162	250.488	82.7249	250.488	81.1062	250.488	82.6031	250.488	80.8291	250.488	82.441	250.488	80.6042	250.488	82.2631	250.488	80.4442	250.488	82.0954	250.488	80.354	250.488	81.9595	250.488	80.3316	250.488	81.8668	250.488	80.37	250.488	81.8156	250.488	80.4595	250.488	81.7934	250.488	80.5893	250.488	81.7824	250.488	80.7483	250.488	81.765	250.488	80.9246	250.488	81.7276	250.488	81.1057	250.488	81.6617	250.488	81.2794	250.488	81.5639	250.488	81.4348
259.277	82.8362	259.277	82.6277	259.277	82.9724	259.277	82.3583	259.277	83.0291	259.277	82.0433	259.277	83.0042	259.277	81.7016	259.277	82.9013	259.277	81.3556	259.277	82.7309	259.277	81.0292	259.277	82.5117	259.277	80.7459	259.277	82.2702	259.277	80.5251	259.277	82.0375	259.277	80.3792	259.277	81.8441	259.277	80.3119	259.277	81.7113	259.277	80.3188	259.277	81.6446	259.277	80.3905	259.277	81.6324	259.277	80.5145	259.277	81.6508	259.277	80.6773	259.277	81.6719	259.277	80.8645	259.277	81.671	259.277	81.0606	259.277	81.6314	259.277	81.2495	259.277	81.5458	259.277	81.4157
268.066	82.6574	268.066	82.4673	268.066	82.7748	268.066	82.2156	268.066	82.8121	268.066	81.9172	268.066	82.7666	268.066	81.5904	268.066	82.6409	268.066	81.2572	268.066	82.4445	268.066	80.942	268.066	82.1947	268.066	80.6691	268.066	81.9171	268.066	80.4595	268.066	81.6433	268.066	80.3268	268.066	81.4069	268.066	80.2752	268.066	81.2361	268.066	80.299	268.066	81.146	268.066	80.3854	268.066	81.1336	268.066	80.5182	268.066	81.1789	268.066	80.6798	268.066	81.2512	268.066	80.8532	268.066	81.3182	268.066	81.0214	268.066	81.3538	268.066	81.1681	268.066	81.3422	268.066	81.2788
276.855	82.6077	276.855	82.4261	276.855	82.7146	276.855	82.1792	276.855	82.7411	276.855	81.879	276.855	82.685	276.855	81.5408	276.855	82.5494	276.855	81.1831	276.855	82.3429	276.855	80.8276	276.855	82.082	276.855	80.4988	276.855	81.7903	276.855	80.2224	276.855	81.4975	276.855	80.021	276.855	81.2343	276.855	79.9099	276.855	81.0262	276.855	79.893	276.855	80.8875	276.855	79.9613	276.855	80.8194	276.855	80.0954	276.855	80.8108	276.855	80.2695	276.855	80.8417	276.855	80.4567	276.855	80.8867	276.855	80.6321	276.855	80.9201	276.855	80.7756	276.855	80.9202	276.855	80.8734
287.109	82.6524	287.109	82.501	287.109	82.7327	287.109	82.2909	287.109	82.733	287.109	82.0379	287.109	82.6503	287.109	81.759	287.109	82.4876	287.109	81.4716	287.109	82.2556	287.109	81.1921	287.109	81.973	287.109	80.9353	287.109	81.6671	287.109	80.7137	287.109	81.3711	287.109	80.5377	287.109	81.1198	287.109	80.4154	287.109	80.9419	287.109	80.3521	287.109	80.8512	287.109	80.3493	287.109	80.8419	287.109	80.4033	287.109	80.891	287.109	80.5039	287.109	80.9664	287.109	80.6353	287.109	81.0358	287.109	80.7773	287.109	81.0743	287.109	80.9086	287.109	81.067	287.109	81.0098
297.363	82.3527	297.363	82.1694	297.363	82.4571	297.363	81.9238	297.363	82.4715	297.363	81.6366	297.363	82.3908	297.363	81.3315	297.363	82.2174	297.363	81.0342	297.363	81.9623	297.363	80.7685	297.363	81.647	297.363	80.5539	297.363	81.3028	297.363	80.4022	297.363	80.9692	297.363	80.317	297.363	80.6885	297.363	80.2952	297.363	80.4972	297.363	80.3295	297.363	80.4171	297.363	80.4111	297.363	80.4477	297.363	80.5294	297.363	80.5658	297.363	80.6722	297.363	80.7323	297.363	80.8233	297.363	80.9029	297.363	80.9634	297.363	81.0399	297.363	81.0713	297.363	81.1181	297.363	81.1274
307.617	82.3974	307.617	82.148	307.617	82.5648	307.617	81.834	307.617	82.6365	307.617	81.4762	307.617	82.604	307.617	81.0985	307.617	82.4649	307.617	80.728	307.617	82.2261	307.617	80.3932	307.617	81.905	307.617	80.1214	307.617	81.5309	307.617	79.934	307.617	81.1444	307.617	79.8419	307.617	80.7924	307.617	79.8435	307.617	80.5206	307.617	79.9262	307.617	80.3624	307.617	80.0709	307.617	80.3298	307.617	80.2559	307.617	80.408	307.617	80.459	307.617	80.5595	307.617	80.6575	307.617	80.7352	307.617	80.8288	307.617	80.8884	307.617	80.9511	307.617	80.9848	307.617	81.0064
319.336	82.1998	319.336	81.9454	319.336	82.3643	319.336	81.6184	319.336	82.4269	319.336	81.2413	319.336	82.3814	319.336	80.8414	319.336	82.2284	319.336	80.449	319.336	81.9766	319.336	80.0951	319.336	81.6442	319.336	79.8075	319.336	81.2607	319.336	79.606	319.336	80.8654	319.336	79.4999	319.336	80.5031	319.336	79.4876	319.336	80.2167	319.336	79.5588	319.336	80.0382	319.336	79.6972	319.336	79.9809	319.336	79.8829	319.336	80.0358	319.336	80.0929	319.336	80.1727	319.336	80.3011	319.336	80.3465	319.336	80.4801	319.336	80.5086	319.336	80.604	319.336	80.619	319.336	80.6531
329.59	82.357	329.59	82.0984	329.59	82.5149	329.59	81.7533	329.59	82.5621	329.59	81.3412	329.59	82.4939	329.59	80.8874	329.59	82.3108	329.59	80.4241	329.59	82.0214	329.59	79.989	329.59	81.644	329.59	79.6217	329.59	81.2087	329.59	79.3565	329.59	80.7566	329.59	79.2129	329.59	80.3363	329.59	79.1911	329.59	79.9949	329.59	79.2736	329.59	79.7679	329.59	79.4323	329.59	79.6708	329.59	79.6362	329.59	79.696	329.59	79.8547	329.59	79.8149	329.59	80.0592	329.59	79.9839	329.59	80.2229	329.59	80.1546	329.59	80.3232	329.59	80.2845	329.59	80.3448
341.309	82.3051	341.309	82.043	341.309	82.4743	341.309	81.7032	341.309	82.5395	341.309	81.3049	341.309	82.4944	341.309	80.8711	341.309	82.3387	341.309	80.4282	341.309	82.0792	341.309	80.0048	341.309	81.7316	341.309	79.6301	341.309	81.3229	341.309	79.331	341.309	80.8905	341.309	79.1282	341.309	80.4801	341.309	79.0329	341.309	80.1379	341.309	79.0445	341.309	79.9005	341.309	79.1508	341.309	79.7848	341.309	79.3293	341.309	79.7834	341.309	79.5499	341.309	79.8667	341.309	79.7785	341.309	79.9918	341.309	79.9806	341.309	80.1129	341.309	80.1271	341.309	80.1907	341.309	80.199
353.027	82.2309	353.027	81.9348	353.027	82.4115	353.027	81.5393	353.027	82.4666	353.027	81.0672	353.027	82.3923	353.027	80.5495	353.027	82.1914	353.027	80.0243	353.027	81.8746	353.027	79.5354	353.027	81.4624	353.027	79.1251	353.027	80.9866	353.027	78.8253	353.027	80.4909	353.027	78.6495	353.027	80.0282	353.027	78.5921	353.027	79.654	353.027	78.6358	353.027	79.4136	353.027	78.7603	353.027	79.3272	353.027	78.947	353.027	79.381	353.027	79.1763	353.027	79.5295	353.027	79.4231	353.027	79.7112	353.027	79.6554	353.027	79.8666	353.027	79.8385	353.027	79.9516	353.027	79.9428
366.211	82.3288	366.211	82.0556	366.211	82.4925	366.211	81.6858	366.211	82.5383	366.211	81.2372	366.211	82.4625	366.211	80.7325	366.211	82.2675	366.211	80.2016	366.211	81.963	366.211	79.6813	366.211	81.5684	366.211	79.2138	366.211	81.1126	366.211	78.8404	366.211	80.6336	366.211	78.5909	366.211	80.1746	366.211	78.4743	366.211	79.7782	366.211	78.4769	366.211	79.4807	366.211	78.5711	366.211	79.3048	366.211	78.7262	366.211	79.2518	366.211	78.9149	366.211	79.297	366.211	79.1135	366.211	79.3944	366.211	79.2981	366.211	79.4915	366.211	79.4444	366.211	79.5451	366.211	79.5307
379.395	82.5801	379.395	82.2969	379.395	82.7506	379.395	81.9155	379.395	82.7977	379.395	81.4541	379.395	82.7157	379.395	80.9357	379.395	82.5057	379.395	80.3895	379.395	82.1781	379.395	79.8522	379.395	81.7541	379.395	79.3671	379.395	81.2665	379.395	78.9787	379.395	80.7571	379.395	78.7229	379.395	80.2729	379.395	78.6162	379.395	79.8615	379.395	78.651	379.395	79.5672	379.395	78.8006	379.395	79.4221	379.395	79.0283	379.395	79.4319	379.395	79.2955	379.395	79.5639	379.395	79.5653	379.395	79.7547	379.395	79.8027	379.395	79.9338	379.395	79.9766	379.395	80.0461	379.395	80.0621
392.578	82.4796	392.578	82.1793	392.578	82.6681	392.578	81.7842	392.578	82.7307	392.578	81.3141	392.578	82.6575	392.578	80.793	392.578	82.445	392.578	80.2496	392.578	82.1002	392.578	79.7189	392.578	81.6446	392.578	79.2406	392.578	81.1173	392.578	78.8545	392.578	80.5727	392.578	78.5928	392.578	80.0704	392.578	78.4717	392.578	79.6607	392.578	78.4891	392.578	79.375	392.578	78.6273	392.578	79.228	392.578	78.8574	392.578	79.2211	392.578	79.1422	392.578	79.3373	392.578	79.4375	392.578	79.5322	392.578	79.6963	392.578	79.7396	392.578	79.8752	392.578	79.8924	392.578	79.9437
405.762	82.1511	405.762	81.849	405.762	82.3375	405.762	81.4431	405.762	82.4018	405.762	80.9528	405.762	82.3407	405.762	80.4072	405.762	82.1544	405.762	79.8467	405.762	81.8468	405.762	79.3214	405.762	81.4287	405.762	78.8835	405.762	80.9217	405.762	78.5739	405.762	80.3635	405.762	78.408	405.762	79.8119	405.762	78.3734	405.762	79.3406	405.762	78.4406	405.762	79.0221	405.762	78.5799	405.762	78.8981	405.762	78.7707	405.762	78.9579	405.762	78.9981	405.762	79.1441	405.762	79.2426	405.762	79.3783	405.762	79.4732	405.762	79.5872	405.762	79.6506	405.762	79.7169	405.762	79.7388
420.41	82.652	420.41	82.337	420.41	82.8348	420.41	81.9022	420.41	82.8761	420.41	81.3632	420.41	82.7704	420.41	80.7412	420.41	82.5186	420.41	80.0676	420.41	82.1306	420.41	79.3894	420.41	81.6284	420.41	78.7713	420.41	81.0462	420.41	78.2871	420.41	80.4285	420.41	77.9939	420.41	79.825	420.41	77.9049	420.41	79.2879	420.41	77.9842	420.41	78.8729	420.41	78.1726	420.41	78.6331	420.41	78.4172	420.41	78.5959	420.41	78.6827	420.41	78.7347	420.41	78.9441	420.41	78.9696	420.41	79.1749	420.41	79.2047	420.41	79.3419	420.41	79.3651	420.41	79.4122
435.059	82.3299	435.059	82.0492	435.059	82.4935	435.059	81.6629	435.059	82.5318	435.059	81.1845	435.059	82.4406	435.059	80.6314	435.059	82.2218	435.059	80.0272	435.059	81.8855	435.059	79.4072	435.059	81.4522	435.059	78.8252	435.059	80.9526	435.059	78.3542	435.059	80.4246	435.059	78.0685	435.059	79.9084	435.059	78.0077	435.059	79.4442	435.059	78.1496	435.059	79.0749	435.059	78.4225	435.059	78.8468	435.059	78.7451	435.059	78.7933	435.059	79.0562	435.059	78.9059	435.059	79.3196	435.059	79.124	435.059	79.5148	435.059	79.3621	435.059	79.626	435.059	79.5475	435.059	79.6392
451.172	82.687	451.172	82.355	451.172	82.8696	451.172	81.8854	451.172	82.8951	451.172	81.2956	451.172	82.7605	451.172	80.6096	451.172	82.4685	451.172	79.8606	451.172	82.0302	451.172	79.0953	451.172	81.4697	451.172	78.3783	451.172	80.8273	451.172	77.7913	451.172	80.159	451.172	77.4178	451.172	79.5277	451.172	77.3093	451.172	78.9892	451.172	77.4571	451.172	78.5871	451.172	77.7956	451.172	78.3583	451.172	78.2351	451.172	78.3329	451.172	78.6919	451.172	78.5078	451.172	79.0994	451.172	78.8211	451.172	79.4078	451.172	79.1683	451.172	79.5804	451.172	79.4482	451.172	79.5947
465.82	82.6772	465.82	82.3542	465.82	82.8623	465.82	81.9061	465.82	82.9005	465.82	81.3492	465.82	82.7878	465.82	80.7038	465.82	82.5265	465.82	79.9952	465.82	82.1275	465.82	79.2577	465.82	81.6129	465.82	78.5387	465.82	81.0174	465.82	77.9036	465.82	80.3862	465.82	77.431	465.82	79.769	465.82	77.1905	465.82	79.2129	465.82	77.2099	465.82	78.7603	465.82	77.4558	465.82	78.4533	465.82	77.8481	465.82	78.3295	465.82	78.293	465.82	78.3983	465.82	78.7076	465.82	78.6152	465.82	79.029	465.82	78.8898	465.82	79.2149	465.82	79.124	465.82	79.2448
483.398	82.7274	483.398	82.3901	483.398	82.9194	483.398	81.9168	483.398	82.9597	483.398	81.3205	483.398	82.8445	483.398	80.6208	483.398	82.574	483.398	79.847	483.398	82.1566	483.398	79.043	483.398	81.6141	483.398	78.2711	483.398	80.9862	483.398	77.6102	483.398	80.3305	483.398	77.1402	483.398	79.7135	483.398	76.9161	483.398	79.1941	483.398	76.9478	483.398	78.811	483.398	77.2029	483.398	78.5854	483.398	77.6211	483.398	78.5281	483.398	78.1249	483.398	78.6324	483.398	78.6278	483.398	78.8561	483.398	79.0472	483.398	79.1199	483.398	79.3195	483.398	79.3311	483.398	79.4124
499.512	82.6095	499.512	82.2894	499.512	82.7872	499.512	81.8387	499.512	82.8133	499.512	81.2727	499.512	82.6824	499.512	80.6101	499.512	82.3951	499.512	79.876	499.512	81.9612	499.512	79.1067	499.512	81.4047	499.512	78.3558	499.512	80.7685	499.512	77.6979	499.512	80.115	499.512	77.2167	499.512	79.519	499.512	76.9729	499.512	79.0502	499.512	76.9732	499.512	78.7537	499.512	77.1727	499.512	78.6404	499.512	77.5068	499.512	78.6902	499.512	77.9167	499.512	78.8557	499.512	78.3503	499.512	79.0672	499.512	78.7548	499.512	79.2472	499.512	79.0776	499.512	79.33	499.512	79.2762
517.09	82.8535	517.09	82.5439	517.09	83.0039	517.09	82.085	517.09	82.9905	517.09	81.4913	517.09	82.8138	517.09	80.7809	517.09	82.4801	517.09	79.976	517.09	82.0026	517.09	79.1083	517.09	81.4044	517.09	78.2296	517.09	80.7223	517.09	77.4243	517.09	80.0079	517.09	76.8062	517.09	79.3268	517.09	76.4854	517.09	78.7523	517.09	76.5102	517.09	78.3566	517.09	76.8397	517.09	78.1968	517.09	77.3736	517.09	78.2904	517.09	77.998	517.09	78.5894	517.09	78.6106	517.09	78.9862	517.09	79.1276	517.09	79.3551	517.09	79.4856	517.09	79.5949	517.09	79.6454
536.133	82.3444	536.133	81.9904	536.133	82.5249	536.133	81.478	536.133	82.5271	536.133	80.8326	536.133	82.3568	536.133	80.0882	536.133	82.0301	536.133	79.2845	536.133	81.5743	536.133	78.4656	536.133	81.0252	536.133	77.683	536.133	80.4233	536.133	77.0004	536.133	79.8075	536.133	76.4918	536.133	79.2132	536.133	76.2238	536.133	78.6786	536.133	76.2276	536.133	78.2573	536.133	76.4862	536.133	78.02	536.133	76.9448	536.133	78.0239	536.133	77.5254	536.133	78.2586	536.133	78.1362	536.133	78.6282	536.133	78.682	536.133	78.9937	536.133	79.0789	536.133	79.2327	536.133	79.2694
555.176	82.9142	555.176	82.5164	555.176	83.1138	555.176	81.9388	555.176	83.1023	555.176	81.2033	555.176	82.8758	555.176	80.3325	555.176	82.4444	555.176	79.3495	555.176	81.8388	555.176	78.2836	555.176	81.1149	555.176	77.1903	555.176	80.3503	555.176	76.1799	555.176	79.6232	555.176	75.4269	555.176	78.9829	555.176	75.0995	555.176	78.4442	555.176	75.2301	555.176	78.0249	555.176	75.6958	555.176	77.7892	555.176	76.3382	555.176	77.8171	555.176	77.0472	555.176	78.1042	555.176	77.7488	555.176	78.5228	555.176	78.372	555.176	78.9034	555.176	78.8433	555.176	79.1182	555.176	79.1021
574.219	83.0935	574.219	82.6741	574.219	83.3022	574.219	82.0622	574.219	83.2921	574.219	81.2913	574.219	83.0622	574.219	80.4094	574.219	82.6179	574.219	79.4684	574.219	81.9767	574.219	78.5064	574.219	81.1744	574.219	77.5392	574.219	80.2708	574.219	76.584	574.219	79.3473	574.219	75.7149	574.219	78.4938	574.219	75.1106	574.219	77.7964	574.219	74.9889	574.219	77.3413	574.219	75.4021	574.219	77.2173	574.219	76.168	574.219	77.4617	574.219	77.0505	574.219	77.9843	574.219	77.8929	574.219	78.5941	574.219	78.606	574.219	79.1034	574.219	79.1255	574.219	79.3896	574.219	79.3978
594.727	83.3818	594.727	82.9967	594.727	83.5402	594.727	82.3949	594.727	83.4677	594.727	81.5952	594.727	83.1675	594.727	80.6297	594.727	82.6556	594.727	79.548	594.727	81.9686	594.727	78.4155	594.727	81.1671	594.727	77.31	594.727	80.3257	594.727	76.3164	594.727	79.5052	594.727	75.5249	594.727	78.7206	594.727	75.0272	594.727	77.9434	594.727	74.8992	594.727	77.1684	594.727	75.1639	594.727	76.5177	594.727	75.7613	594.727	76.2593	594.727	76.5579	594.727	76.5677	594.727	77.3901	594.727	77.2682	594.727	78.1044	594.727	78.0102	594.727	78.58	594.727	78.5382	594.727	78.7362
615.234	83.719	615.234	83.364	615.234	83.8351	615.234	82.7844	615.234	83.7089	615.234	82.0123	615.234	83.3459	615.234	81.1011	615.234	82.7624	615.234	80.1175	615.234	81.9925	615.234	79.1193	615.234	81.0952	615.234	78.1301	615.234	80.1536	615.234	77.1389	615.234	79.2564	615.234	76.146	615.234	78.4602	615.234	75.2443	615.234	77.7651	615.234	74.6621	615.234	77.1456	615.234	74.628	615.234	76.6174	615.234	75.1139	615.234	76.2662	615.234	75.8565	615.234	76.1976	615.234	76.5981	615.234	76.4367	615.234	77.1795	615.234	76.8701	615.234	77.5097	615.234	77.299	615.234	77.5446
637.207	83.7876	637.207	83.4557	637.207	83.9043	637.207	82.92	637.207	83.8007	637.207	82.2034	637.207	83.475	637.207	81.3424	637.207	82.9297	637.207	80.3845	637.207	82.1778	637.207	79.3761	637.207	81.2565	637.207	78.3489	637.207	80.2431	637.207	77.3157	637.207	79.2532	637.207	76.2961	637.207	78.3965	637.207	75.375	637.207	77.715	637.207	74.7528	637.207	77.202	637.207	74.6672	637.207	76.9007	637.207	75.1552	637.207	76.9002	637.207	75.9815	637.207	77.1832	637.207	76.8516	637.207	77.5882	637.207	77.567	637.207	77.9526	637.207	78.0332	637.207	78.1855	637.207	78.2296
659.18	82.9868	659.18	82.6873	659.18	83.0939	659.18	82.2118	659.18	82.9982	659.18	81.5813	659.18	82.6976	659.18	80.8204	659.18	82.2003	659.18	79.9572	659.18	81.5281	659.18	79.0222	659.18	80.7201	659.18	78.0458	659.18	79.8356	659.18	77.0559	659.18	78.9489	659.18	76.0881	659.18	78.1279	659.18	75.2137	659.18	77.402	659.18	74.5668	659.18	76.7745	659.18	74.3198	659.18	76.308	659.18	74.5696	659.18	76.1734	659.18	75.2352	659.18	76.4817	659.18	76.103	659.18	77.0727	659.18	76.9475	659.18	77.641	659.18	77.5995	659.18	77.9659	659.18	77.9549
682.617	82.8842	682.617	82.5483	682.617	83.0355	682.617	82.0406	682.617	82.9905	682.617	81.38	682.617	82.7375	682.617	80.5966	682.617	82.2685	682.617	79.7333	682.617	81.5907	682.617	78.8399	682.617	80.7396	682.617	77.9593	682.617	79.7888	682.617	77.1183	682.617	78.8409	682.617	76.3358	682.617	77.9862	682.617	75.6466	682.617	77.2525	682.617	75.1219	682.617	76.6208	682.617	74.8639	682.617	76.1288	682.617	74.9648	682.617	75.9276	682.617	75.4359	682.617	76.1388	682.617	76.1544	682.617	76.6601	682.617	76.903	682.617	77.2343	682.617	77.4719	682.617	77.6349	682.617	77.7292
707.52	83.2363	707.52	82.8283	707.52	83.4486	707.52	82.2477	707.52	83.4425	707.52	81.5245	707.52	83.1968	707.52	80.6978	707.52	82.7024	707.52	79.8102	707.52	81.9779	707.52	78.8926	707.52	81.0779	707.52	77.9519	707.52	80.0839	707.52	76.9739	707.52	79.0786	707.52	75.9607	707.52	78.1132	707.52	75.0097	707.52	77.1954	707.52	74.3786	707.52	76.3493	707.52	74.347	707.52	75.7405	707.52	74.8907	707.52	75.6556	707.52	75.7122	707.52	76.156	707.52	76.5533	707.52	76.9256	707.52	77.2802	707.52	77.6068	707.52	77.8105	707.52	78.0083	707.52	78.0716
732.422	84.0564	732.422	83.7059	732.422	84.1778	732.422	83.1455	732.422	84.0642	732.422	82.4139	732.422	83.7208	732.422	81.5744	732.422	83.1662	732.422	80.7058	732.422	82.4351	732.422	79.8748	732.422	81.5818	732.422	79.1011	732.422	80.6821	732.422	78.3477	732.422	79.8202	732.422	77.5551	732.422	79.0339	732.422	76.7022	732.422	78.2651	732.422	75.8688	732.422	77.4312	732.422	75.2786	732.422	76.6188	732.422	75.2318	732.422	76.1927	732.422	75.8302	732.422	76.4601	732.422	76.8121	732.422	77.217	732.422	77.7878	732.422	78.0237	732.422	78.4798	732.422	78.5844	732.422	78.7545
757.324	84.2032	757.324	83.7277	757.324	84.4381	757.324	83.0648	757.324	84.3953	757.324	82.2759	757.324	84.06	757.324	81.4227	757.324	83.4455	757.324	80.5622	757.324	82.5963	757.324	79.7446	757.324	81.594	757.324	79.0052	757.324	80.5655	757.324	78.3421	757.324	79.6651	757.324	77.7	757.324	78.9757	757.324	77.0016	757.324	78.4027	757.324	76.2365	757.324	77.7617	757.324	75.5818	757.324	77.0305	757.324	75.4172	757.324	76.5183	757.324	75.9643	757.324	76.62	757.324	76.9409	757.324	77.2628	757.324	77.8896	757.324	78.0193	757.324	78.5299	757.324	78.5678	757.324	78.7579
785.156	84.6223	785.156	84.1428	785.156	84.8346	785.156	83.4528	785.156	84.7515	785.156	82.6316	785.156	84.374	785.156	81.7676	785.156	83.7278	785.156	80.9344	785.156	82.8561	785.156	80.1628	785.156	81.8133	785.156	79.4214	785.156	80.6663	785.156	78.6335	785.156	79.5066	785.156	77.7423	785.156	78.4517	785.156	76.7924	785.156	77.5766	785.156	75.9586	785.156	76.8286	785.156	75.4383	785.156	76.1358	785.156	75.3195	785.156	75.6563	785.156	75.6396	785.156	75.7558	785.156	76.3914	785.156	76.4996	785.156	77.3434	785.156	77.4656	785.156	78.1175	785.156	78.1949	785.156	78.4346
811.523	84.1635	811.523	83.7627	811.523	84.3291	811.523	83.1719	811.523	84.2268	811.523	82.4431	811.523	83.8401	811.523	81.6253	811.523	83.1758	811.523	80.7548	811.523	82.2692	811.523	79.8603	811.523	81.1844	811.523	78.98	811.523	80.0284	811.523	78.1706	811.523	78.9727	811.523	77.4815	811.523	78.1717	811.523	76.9023	811.523	77.5536	811.523	76.3575	811.523	76.8432	811.523	75.8195	811.523	75.9091	811.523	75.4669	811.523	75.0737	811.523	75.6229	811.523	74.989	811.523	76.3265	811.523	75.7728	811.523	77.1962	811.523	76.8321	811.523	77.827	811.523	77.6499	811.523	78
840.82	84.2655	840.82	83.8867	840.82	84.4641	840.82	83.3848	840.82	84.4265	840.82	82.7938	840.82	84.1205	840.82	82.1223	840.82	83.5492	840.82	81.3802	840.82	82.745	840.82	80.6031	840.82	81.7571	840.82	79.8261	840.82	80.65	840.82	79.03	840.82	79.5185	840.82	78.154	840.82	78.4727	840.82	77.1938	840.82	77.549	840.82	76.2631	840.82	76.6743	840.82	75.5126	840.82	75.844	840.82	75.0115	840.82	75.3046	840.82	74.8345	840.82	75.3628	840.82	75.1606	840.82	75.9736	840.82	75.9797	840.82	76.7675	840.82	76.8782	840.82	77.3369	840.82	77.3978
870.117	84.0888	870.117	83.778	870.117	84.2465	870.117	83.3652	870.117	84.1957	870.117	82.8739	870.117	83.8998	870.117	82.2937	870.117	83.3554	870.117	81.6092	870.117	82.5887	870.117	80.8466	870.117	81.6325	870.117	80.0727	870.117	80.5275	870.117	79.3101	870.117	79.3959	870.117	78.4717	870.117	78.4523	870.117	77.4439	870.117	77.7365	870.117	76.2748	870.117	76.9502	870.117	75.3234	870.117	75.8407	870.117	75.051	870.117	74.6578	870.117	75.4632	870.117	74.236	870.117	76.1878	870.117	74.9784	870.117	76.9148	870.117	76.172	870.117	77.4266	870.117	77.1116	870.117	77.5335
900.879	84.2869	900.879	84.0877	900.879	84.331	900.879	83.7149	900.879	84.2181	900.879	83.1502	900.879	83.9256	900.879	82.3982	900.879	83.426	900.879	81.4897	900.879	82.6987	900.879	80.4717	900.879	81.7309	900.879	79.4135	900.879	80.544	900.879	78.4328	900.879	79.2725	900.879	77.6646	900.879	78.1758	900.879	77.1232	900.879	77.3751	900.879	76.6336	900.879	76.6572	900.879	76.0018	900.879	75.8224	900.879	75.2723	900.879	75.0663	900.879	74.9004	900.879	74.8847	900.879	75.4169	900.879	75.4847	900.879	76.5581	900.879	76.5345	900.879	77.5455	900.879	77.4872	900.879	77.8902
933.105	84.7225	933.105	84.629	933.105	84.6041	933.105	84.306	933.105	84.2858	933.105	83.7351	933.105	83.7812	933.105	82.9147	933.105	83.1147	933.105	81.8874	933.105	82.3126	933.105	80.75	933.105	81.3723	933.105	79.608	933.105	80.2787	933.105	78.5017	933.105	79.1235	933.105	77.4093	933.105	78.1645	933.105	76.3346	933.105	77.5253	933.105	75.3636	933.105	76.9161	933.105	74.6303	933.105	75.9941	933.105	74.2737	933.105	74.8239	933.105	74.4618	933.105	74.0809	933.105	75.2491	933.105	74.512	933.105	76.3158	933.105	75.7438	933.105	77.147	933.105	76.866	933.105	77.3743
965.332	84.9723	965.332	84.837	965.332	84.8774	965.332	84.4486	965.332	84.5637	965.332	83.7757	965.332	84.0467	965.332	82.8043	965.332	83.3594	965.332	81.5783	965.332	82.5311	965.332	80.2216	965.332	81.5362	965.332	78.8856	965.332	80.2959	965.332	77.6271	965.332	78.7891	965.332	76.4033	965.332	77.2253	965.332	75.3191	965.332	76.0589	965.332	74.7993	965.332	75.4984	965.332	75.025	965.332	75.242	965.332	75.4917	965.332	75.0214	965.332	75.7381	965.332	74.9055	965.332	75.8392	965.332	75.1917	965.332	76.2104	965.332	75.9978	965.332	76.8556	965.332	76.8658	965.332	77.2036
1,000.49	85.3438	1,000.49	85.2133	1,000.49	85.1493	1,000.49	84.7655	1,000.49	84.6795	1,000.49	84.0433	1,000.49	84.0291	1,000.49	83.087	1,000.49	83.2825	1,000.49	81.9204	1,000.49	82.4482	1,000.49	80.5943	1,000.49	81.4473	1,000.49	79.2463	1,000.49	80.1902	1,000.49	78.0338	1,000.49	78.7261	1,000.49	76.9368	1,000.49	77.3722	1,000.49	75.7524	1,000.49	76.4695	1,000.49	74.4464	1,000.49	75.8753	1,000.49	73.5441	1,000.49	75.2166	1,000.49	73.7048	1,000.49	74.4115	1,000.49	74.6407	1,000.49	73.8105	1,000.49	75.7056	1,000.49	74.0749	1,000.49	76.6082	1,000.49	75.2647	1,000.49	77.1806	1,000.49	76.5247	1,000.49	77.2049
1,035.64	85.9065	1,035.64	85.7121	1,035.64	85.7065	1,035.64	85.1423	1,035.64	85.1723	1,035.64	84.2673	1,035.64	84.4325	1,035.64	83.1423	1,035.64	83.6241	1,035.64	81.7472	1,035.64	82.7957	1,035.64	80.0659	1,035.64	81.8412	1,035.64	78.375	1,035.64	80.572	1,035.64	77.3288	1,035.64	78.9706	1,035.64	77.0601	1,035.64	77.4639	1,035.64	76.8421	1,035.64	76.5548	1,035.64	76.1422	1,035.64	75.9616	1,035.64	75.0612	1,035.64	75.1964	1,035.64	74.3218	1,035.64	74.3794	1,035.64	74.6621	1,035.64	74.0777	1,035.64	75.8157	1,035.64	74.7397	1,035.64	77.0832	1,035.64	76.2083	1,035.64	78.0052	1,035.64	77.61	1,035.64	78.25
1,072.27	86.533	1,072.27	86.4048	1,072.27	86.2078	1,072.27	85.7827	1,072.27	85.4957	1,072.27	84.6424	1,072.27	84.531	1,072.27	83.0254	1,072.27	83.5112	1,072.27	81.1177	1,072.27	82.5575	1,072.27	79.2208	1,072.27	81.5602	1,072.27	77.5606	1,072.27	80.3002	1,072.27	76.1862	1,072.27	78.7876	1,072.27	75.0316	1,072.27	77.3862	1,072.27	73.9947	1,072.27	76.3237	1,072.27	73.0595	1,072.27	75.4282	1,072.27	72.6096	1,072.27	74.8931	1,072.27	73.2927	1,072.27	74.9317	1,072.27	74.8116	1,072.27	74.778	1,072.27	76.3157	1,072.27	74.361	1,072.27	77.4244	1,072.27	75.2393	1,072.27	78.0353	1,072.27	76.9545	1,072.27	77.9624
1,108.89	86.9325	1,108.89	86.9244	1,108.89	86.5291	1,108.89	86.4368	1,108.89	85.7819	1,108.89	85.3767	1,108.89	84.8413	1,108.89	83.6911	1,108.89	83.9299	1,108.89	81.4855	1,108.89	83.1247	1,108.89	79.0967	1,108.89	82.1968	1,108.89	76.9795	1,108.89	80.8091	1,108.89	75.4504	1,108.89	78.84	1,108.89	74.5933	1,108.89	76.6959	1,108.89	74.2704	1,108.89	75.3608	1,108.89	74.0665	1,108.89	75.0821	1,108.89	73.6829	1,108.89	75.208	1,108.89	73.4532	1,108.89	75.3609	1,108.89	74.0878	1,108.89	75.083	1,108.89	75.5814	1,108.89	74.4311	1,108.89	77.2009	1,108.89	75.1612	1,108.89	78.2757	1,108.89	77.1381	1,108.89	78.3386
1,148.44	87.0799	1,148.44	87.066	1,148.44	86.7116	1,148.44	86.6046	1,148.44	86.0351	1,148.44	85.609	1,148.44	85.1893	1,148.44	84.0375	1,148.44	84.3203	1,148.44	82.0118	1,148.44	83.4318	1,148.44	79.8908	1,148.44	82.3638	1,148.44	78.1797	1,148.44	80.9275	1,148.44	77.2479	1,148.44	79.0841	1,148.44	76.9353	1,148.44	77.2327	1,148.44	76.5457	1,148.44	75.8608	1,148.44	75.4604	1,148.44	74.7367	1,148.44	73.6585	1,148.44	74.1858	1,148.44	72.24	1,148.44	74.8182	1,148.44	72.8957	1,148.44	75.4727	1,148.44	74.9553	1,148.44	75.4015	1,148.44	76.9499	1,148.44	75.887	1,148.44	78.2403	1,148.44	77.4393	1,148.44	78.4529
1,189.45	87.007	1,189.45	86.8549	1,189.45	86.7021	1,189.45	86.3086	1,189.45	85.9538	1,189.45	85.396	1,189.45	84.9708	1,189.45	84.1371	1,189.45	84.0616	1,189.45	82.6581	1,189.45	83.3134	1,189.45	81.1613	1,189.45	82.478	1,189.45	79.7003	1,189.45	81.2124	1,189.45	78.347	1,189.45	79.3602	1,189.45	77.4952	1,189.45	77.2586	1,189.45	77.0197	1,189.45	75.5657	1,189.45	76.1564	1,189.45	74.2718	1,189.45	74.6512	1,189.45	73.6902	1,189.45	73.2179	1,189.45	74.4273	1,189.45	73.4281	1,189.45	75.0552	1,189.45	75.2265	1,189.45	74.8654	1,189.45	77.0125	1,189.45	75.3803	1,189.45	78.0297	1,189.45	76.9425	1,189.45	78.0237
1,230.47	87.1083	1,230.47	86.7926	1,230.47	86.8844	1,230.47	86.0324	1,230.47	86.1185	1,230.47	84.9623	1,230.47	85.0095	1,230.47	83.7643	1,230.47	83.9542	1,230.47	82.6316	1,230.47	83.1879	1,230.47	81.5494	1,230.47	82.4383	1,230.47	80.1739	1,230.47	81.2246	1,230.47	78.4211	1,230.47	79.3351	1,230.47	77.5476	1,230.47	77.2266	1,230.47	78.0637	1,230.47	75.4746	1,230.47	78.0698	1,230.47	73.655	1,230.47	76.6956	1,230.47	72.7416	1,230.47	74.0227	1,230.47	73.8929	1,230.47	72.1412	1,230.47	74.7067	1,230.47	74.3046	1,230.47	74.8316	1,230.47	76.4633	1,230.47	75.3582	1,230.47	77.2469	1,230.47	76.2268	1,230.47	77.0147
1,274.41	87.0189	1,274.41	86.6226	1,274.41	86.8579	1,274.41	85.7399	1,274.41	86.1014	1,274.41	84.4638	1,274.41	84.8907	1,274.41	82.9986	1,274.41	83.5961	1,274.41	81.6362	1,274.41	82.5296	1,274.41	80.4881	1,274.41	81.5987	1,274.41	79.1849	1,274.41	80.42	1,274.41	76.9719	1,274.41	78.7813	1,274.41	74.0266	1,274.41	77.0218	1,274.41	74.145	1,274.41	75.5557	1,274.41	76.0333	1,274.41	74.2279	1,274.41	76.5392	1,274.41	73.8627	1,274.41	75.2275	1,274.41	74.6959	1,274.41	71.6603	1,274.41	74.6895	1,274.41	71.6727	1,274.41	73.9168	1,274.41	75.5194	1,274.41	74.2945	1,274.41	76.9626	1,274.41	75.5291	1,274.41	76.647
1,319.82	86.5199	1,319.82	86.1358	1,319.82	86.3306	1,319.82	85.2282	1,319.82	85.6848	1,319.82	84.0095	1,319.82	84.7649	1,319.82	82.7733	1,319.82	83.572	1,319.82	81.5777	1,319.82	82.1265	1,319.82	80.3062	1,319.82	80.634	1,319.82	79.1097	1,319.82	79.0668	1,319.82	77.8846	1,319.82	77.0357	1,319.82	75.6189	1,319.82	74.5549	1,319.82	72.6518	1,319.82	72.3407	1,319.82	73.7588	1,319.82	70.4464	1,319.82	75.7327	1,319.82	70.4741	1,319.82	75.5425	1,319.82	73.2727	1,319.82	72.9053	1,319.82	74.7013	1,319.82	70.4044	1,319.82	74.2106	1,319.82	72.647	1,319.82	74.0075	1,319.82	74.8084	1,319.82	75.1011	1,319.82	75.6013
1,366.7	85.8155	1,366.7	85.7625	1,366.7	85.5405	1,366.7	85.1308	1,366.7	85.0795	1,366.7	83.7544	1,366.7	84.409	1,366.7	81.8449	1,366.7	83.3101	1,366.7	80.0865	1,366.7	81.6501	1,366.7	79.0443	1,366.7	79.7204	1,366.7	78.4271	1,366.7	77.8305	1,366.7	77.5702	1,366.7	75.573	1,366.7	75.7854	1,366.7	72.4018	1,366.7	72.7121	1,366.7	68.7727	1,366.7	71.5324	1,366.7	66.7192	1,366.7	73.7722	1,366.7	68.9029	1,366.7	74.5568	1,366.7	72.3637	1,366.7	72.8391	1,366.7	73.8395	1,366.7	69.8637	1,366.7	73.1421	1,366.7	70.2368	1,366.7	72.5826	1,366.7	73.2207	1,366.7	74.0633	1,366.7	74.711
1,413.57	85.3446	1,413.57	85.0572	1,413.57	85.1831	1,413.57	84.2986	1,413.57	84.5284	1,413.57	83.1162	1,413.57	83.4028	1,413.57	81.7122	1,413.57	82.3717	1,413.57	80.0447	1,413.57	81.7968	1,413.57	77.6149	1,413.57	80.9368	1,413.57	74.1695	1,413.57	78.9619	1,413.57	69.903	1,413.57	75.8097	1,413.57	65.0809	1,413.57	72.2279	1,413.57	60.4283	1,413.57	69.0192	1,413.57	60.0374	1,413.57	67.9447	1,413.57	67.8113	1,413.57	70.381	1,413.57	72.9908	1,413.57	71.7023	1,413.57	74.1061	1,413.57	70.5196	1,413.57	72.3793	1,413.57	71.2788	1,413.57	70.5937	1,413.57	74.4	1,413.57	70.573	1,413.57	74.5968	1,413.57	72.3902
1,463.38	85.5556	1,463.38	84.8966	1,463.38	85.2502	1,463.38	83.4989	1,463.38	84.2234	1,463.38	81.8988	1,463.38	83.0323	1,463.38	80.4087	1,463.38	81.9617	1,463.38	78.6267	1,463.38	80.7362	1,463.38	75.8301	1,463.38	79.0348	1,463.38	71.5409	1,463.38	76.6647	1,463.38	66.6246	1,463.38	73.4433	1,463.38	64.5807	1,463.38	69.7489	1,463.38	64.9509	1,463.38	66.8547	1,463.38	63.5785	1,463.38	64.3244	1,463.38	65.848	1,463.38	63.5661	1,463.38	70.9378	1,463.38	67.9427	1,463.38	71.4236	1,463.38	70.0322	1,463.38	69.4072	1,463.38	70.4784	1,463.38	68.8937	1,463.38	72.0353	1,463.38	70.323	1,463.38	72.9995	1,463.38	72.2224
1,516.11	85.7431	1,516.11	84.767	1,516.11	85.469	1,516.11	82.8963	1,516.11	84.308	1,516.11	80.8688	1,516.11	82.9596	1,516.11	79.0131	1,516.11	81.4529	1,516.11	77.0528	1,516.11	79.3215	1,516.11	74.8226	1,516.11	76.5698	1,516.11	72.5253	1,516.11	73.7031	1,516.11	70.5503	1,516.11	70.8689	1,516.11	69.4811	1,516.11	68.2609	1,516.11	69.5795	1,516.11	67.3026	1,516.11	67.7646	1,516.11	66.6289	1,516.11	60.2269	1,516.11	59.2843	1,516.11	65.902	1,516.11	63.7057	1,516.11	67.2826	1,516.11	68.3822	1,516.11	64.5606	1,516.11	68.2246	1,516.11	65.6399	1,516.11	70.115	1,516.11	69.8625	1,516.11	72.6724	1,516.11	72.693
1,568.85	85.275	1,568.85	84.4507	1,568.85	85.2911	1,568.85	82.9435	1,568.85	84.4552	1,568.85	80.8807	1,568.85	82.7413	1,568.85	78.1687	1,568.85	80.1192	1,568.85	74.4331	1,568.85	76.8019	1,568.85	69.7407	1,568.85	73.8115	1,568.85	67.09	1,568.85	71.8913	1,568.85	67.9118	1,568.85	69.8109	1,568.85	68.705	1,568.85	67.6168	1,568.85	68.5833	1,568.85	66.5861	1,568.85	66.3965	1,568.85	66.2939	1,568.85	59.7807	1,568.85	62.6643	1,568.85	58.9973	1,568.85	57.7867	1,568.85	64.3616	1,568.85	61.551	1,568.85	65.4771	1,568.85	67.7788	1,568.85	66.523	1,568.85	71.6316	1,568.85	69.8399	1,568.85	72.6202	1,568.85	71.9735
1,624.51	84.6064	1,624.51	84.0503	1,624.51	84.5754	1,624.51	82.8598	1,624.51	83.8255	1,624.51	80.7953	1,624.51	82.0463	1,624.51	77.5739	1,624.51	78.8743	1,624.51	73.336	1,624.51	74.3069	1,624.51	68.736	1,624.51	69.2539	1,624.51	64.3602	1,624.51	65.047	1,624.51	61.001	1,624.51	63.6591	1,624.51	61.2205	1,624.51	65.13	1,624.51	62.8375	1,624.51	64.7065	1,624.51	61.8852	1,624.51	62.6335	1,624.51	59.2	1,624.51	60.3278	1,624.51	58.9505	1,624.51	55.1314	1,624.51	63.0048	1,624.51	55.4543	1,624.51	63.7561	1,624.51	63.5601	1,624.51	64.2893	1,624.51	69.3848	1,624.51	67.8754	1,624.51	71.4386	1,624.51	70.8702
1,681.64	85.3194	1,681.64	84.7777	1,681.64	85.0965	1,681.64	83.5916	1,681.64	83.8479	1,681.64	81.5025	1,681.64	81.3524	1,681.64	78.1584	1,681.64	77.3818	1,681.64	74.1186	1,681.64	71.5253	1,681.64	71.1707	1,681.64	66.2164	1,681.64	68.9418	1,681.64	68.3609	1,681.64	64.6954	1,681.64	70.1741	1,681.64	59.2942	1,681.64	70.7305	1,681.64	56.0287	1,681.64	70.3391	1,681.64	49.4033	1,681.64	68.9237	1,681.64	58.2918	1,681.64	66.5106	1,681.64	59.8152	1,681.64	61.8258	1,681.64	61.6	1,681.64	54.4757	1,681.64	59.6441	1,681.64	56.095	1,681.64	63.5658	1,681.64	68.4585	1,681.64	70.3012	1,681.64	72.9216	1,681.64	73.4653
1,741.7	86.5952	1,741.7	85.6314	1,741.7	86.1751	1,741.7	83.8438	1,741.7	84.2237	1,741.7	81.6954	1,741.7	81.1366	1,741.7	78.9264	1,741.7	77.2214	1,741.7	75.0474	1,741.7	71.4345	1,741.7	70.5616	1,741.7	64.0594	1,741.7	67.3539	1,741.7	68.4584	1,741.7	65.0946	1,741.7	71.1467	1,741.7	59.8533	1,741.7	71.5484	1,741.7	56.1536	1,741.7	70.9899	1,741.7	53.6579	1,741.7	70.515	1,741.7	52.9287	1,741.7	68.701	1,741.7	52.2806	1,741.7	64.6077	1,741.7	55.4396	1,741.7	60.1642	1,741.7	55.5051	1,741.7	57.7178	1,741.7	61.3141	1,741.7	69.5414	1,741.7	70.1638	1,741.7	73.8093	1,741.7	74.0865
1,803.22	86.8306	1,803.22	86.2231	1,803.22	86.1362	1,803.22	84.5373	1,803.22	84.1094	1,803.22	82.1007	1,803.22	80.6519	1,803.22	78.834	1,803.22	75.0769	1,803.22	74.3988	1,803.22	65.4476	1,803.22	69.1681	1,803.22	51.9129	1,803.22	62.2849	1,803.22	65.825	1,803.22	57.7785	1,803.22	70.5124	1,803.22	48.8911	1,803.22	72.0917	1,803.22	61.4274	1,803.22	70.9436	1,803.22	62.2417	1,803.22	69.7229	1,803.22	52.4462	1,803.22	68.7562	1,803.22	50.2535	1,803.22	64.9439	1,803.22	37.8441	1,803.22	64.1841	1,803.22	59.2789	1,803.22	55.6932	1,803.22	63.3491	1,803.22	67.6849	1,803.22	70.6772	1,803.22	73.8048	1,803.22	74.663
1,866.21	87.0738	1,866.21	86.5536	1,866.21	85.9884	1,866.21	84.847	1,866.21	83.7858	1,866.21	82.5846	1,866.21	80.7686	1,866.21	79.7021	1,866.21	74.915	1,866.21	76.1528	1,866.21	62.9772	1,866.21	73.0191	1,866.21	68.0642	1,866.21	68.4893	1,866.21	71.794	1,866.21	61.2235	1,866.21	73.3025	1,866.21	66.469	1,866.21	73.1797	1,866.21	69.9411	1,866.21	73.059	1,866.21	68.0739	1,866.21	73.6121	1,866.21	54.2165	1,866.21	73.096	1,866.21	47.8278	1,866.21	67.9418	1,866.21	39.0052	1,866.21	59.3586	1,866.21	58.0782	1,866.21	55.7576	1,866.21	64.697	1,866.21	65.5031	1,866.21	70.3457	1,866.21	73.3484	1,866.21	74.5161
1,932.13	87.1195	1,932.13	86.4374	1,932.13	86.4441	1,932.13	85.1319	1,932.13	83.9984	1,932.13	82.6695	1,932.13	79.968	1,932.13	78.2186	1,932.13	73.4022	1,932.13	73.2497	1,932.13	66.5325	1,932.13	69.4662	1,932.13	67.3286	1,932.13	61.8677	1,932.13	68.2183	1,932.13	57.2246	1,932.13	70.8933	1,932.13	64.7684	1,932.13	70.5992	1,932.13	69.1264	1,932.13	66.7391	1,932.13	66.7374	1,932.13	69.5446	1,932.13	62.5278	1,932.13	72.1077	1,932.13	60.3469	1,932.13	71.2829	1,932.13	54.0123	1,932.13	68.28	1,932.13	60.909	1,932.13	63.1584	1,932.13	66.0443	1,932.13	63.3148	1,932.13	70.124	1,932.13	71.2396	1,932.13	72.7281
1,999.51	87.5301	1,999.51	86.7957	1,999.51	86.7027	1,999.51	85.1818	1,999.51	83.6885	1,999.51	82.2803	1,999.51	78.9646	1,999.51	78.0434	1,999.51	73.964	1,999.51	74.5089	1,999.51	74.0823	1,999.51	68.7963	1,999.51	74.86	1,999.51	64.2711	1,999.51	74.868	1,999.51	69.4578	1,999.51	76.5342	1,999.51	68.9057	1,999.51	76.8755	1,999.51	65.2546	1,999.51	74.7383	1,999.51	65.1989	1,999.51	73.6366	1,999.51	65.1308	1,999.51	72.0805	1,999.51	63.0858	1,999.51	70.6937	1,999.51	49.6133	1,999.51	70.5298	1,999.51	62.9443	1,999.51	66.2044	1,999.51	65.9747	1,999.51	57.9822	1,999.51	69.8541	1,999.51	70.9048	1,999.51	72.293
2,069.82	86.9233	2,069.82	87.4222	2,069.82	85.5926	2,069.82	85.8798	2,069.82	83.2601	2,069.82	81.3227	2,069.82	78.9456	2,069.82	76.4163	2,069.82	75.2078	2,069.82	74.5983	2,069.82	76.887	2,069.82	69.1271	2,069.82	77.1324	2,069.82	69.7458	2,069.82	75.7198	2,069.82	71.2886	2,069.82	76.1044	2,069.82	67.8837	2,069.82	77.5463	2,069.82	62.7248	2,069.82	76.2689	2,069.82	60.3399	2,069.82	75.7837	2,069.82	62.2723	2,069.82	73.9344	2,069.82	67.8578	2,069.82	70.0442	2,069.82	56.752	2,069.82	72.5372	2,069.82	60.3859	2,069.82	67.8806	2,069.82	63.1584	2,069.82	57.8602	2,069.82	68.9182	2,069.82	70.3347	2,069.82	71.7017
2,143.07	87.0964	2,143.07	87.4518	2,143.07	85.6613	2,143.07	85.467	2,143.07	83.0462	2,143.07	80.9281	2,143.07	77.3064	2,143.07	75.9897	2,143.07	74.1688	2,143.07	67.2249	2,143.07	76.2617	2,143.07	63.254	2,143.07	79.5671	2,143.07	61.9493	2,143.07	81.1358	2,143.07	72.9935	2,143.07	81.1645	2,143.07	74.1315	2,143.07	81.5103	2,143.07	70.7742	2,143.07	80.2219	2,143.07	70.1433	2,143.07	77.8877	2,143.07	68.5322	2,143.07	75.6614	2,143.07	72.1981	2,143.07	70.4463	2,143.07	67.0436	2,143.07	71.0239	2,143.07	28.9221	2,143.07	69.6136	2,143.07	56.9872	2,143.07	55.1787	2,143.07	65.5922	2,143.07	70.6464	2,143.07	70.8089
2,219.24	88.2015	2,219.24	87.709	2,219.24	86.2385	2,219.24	84.53	2,219.24	82.742	2,219.24	81.2056	2,219.24	77.9397	2,219.24	77.5093	2,219.24	76.8395	2,219.24	64.6623	2,219.24	79.1628	2,219.24	73.4945	2,219.24	81.4807	2,219.24	71.7827	2,219.24	81.625	2,219.24	76.3675	2,219.24	81.126	2,219.24	77.9521	2,219.24	81.3846	2,219.24	75.8251	2,219.24	80.6528	2,219.24	77.041	2,219.24	81.26	2,219.24	72.8626	2,219.24	79.0852	2,219.24	70.5796	2,219.24	71.3119	2,219.24	71.2313	2,219.24	72.6152	2,219.24	66.6219	2,219.24	65.8663	2,219.24	63.4198	2,219.24	61.927	2,219.24	64.5591	2,219.24	73.7535	2,219.24	73.5781
2,296.88	88.0017	2,296.88	87.5867	2,296.88	85.789	2,296.88	84.1045	2,296.88	82.4593	2,296.88	78.5599	2,296.88	78.9786	2,296.88	69.1304	2,296.88	79.8534	2,296.88	71.2563	2,296.88	80.8893	2,296.88	78.287	2,296.88	80.9835	2,296.88	76.8291	2,296.88	79.5984	2,296.88	79.4673	2,296.88	74.466	2,296.88	79.9066	2,296.88	73.7002	2,296.88	76.4633	2,296.88	76.9292	2,296.88	76.2572	2,296.88	80.3906	2,296.88	77.7542	2,296.88	81.2854	2,296.88	74.1603	2,296.88	74.7801	2,296.88	73.3029	2,296.88	70.3911	2,296.88	67.5172	2,296.88	69.4903	2,296.88	64.1177	2,296.88	65.9505	2,296.88	67.1059	2,296.88	74.917	2,296.88	74.0865
2,378.91	87.7381	2,378.91	86.954	2,378.91	85.066	2,378.91	84.4183	2,378.91	79.382	2,378.91	79.4479	2,378.91	78.2819	2,378.91	73.141	2,378.91	79.3785	2,378.91	76.4846	2,378.91	80.5563	2,378.91	75.918	2,378.91	80.2223	2,378.91	78.4584	2,378.91	78.8969	2,378.91	80.4082	2,378.91	79.3548	2,378.91	78.0101	2,378.91	78.0518	2,378.91	74.8909	2,378.91	71.3443	2,378.91	74.5795	2,378.91	71.9106	2,378.91	76.1006	2,378.91	77.2407	2,378.91	73.0372	2,378.91	75.896	2,378.91	66.7201	2,378.91	71.1167	2,378.91	63.0928	2,378.91	64.2601	2,378.91	66.3437	2,378.91	67.619	2,378.91	68.8517	2,378.91	73.9598	2,378.91	73.7356
2,462.4	87.9584	2,462.4	87.0777	2,462.4	86.2476	2,462.4	84.1867	2,462.4	79.3112	2,462.4	76.9457	2,462.4	75.4085	2,462.4	77.4749	2,462.4	80.1374	2,462.4	76.8493	2,462.4	81.5597	2,462.4	72.3964	2,462.4	81.4947	2,462.4	75.3291	2,462.4	80.6212	2,462.4	75.4745	2,462.4	80.8727	2,462.4	75.1416	2,462.4	79.8139	2,462.4	72.2256	2,462.4	76.21	2,462.4	70.322	2,462.4	74.0635	2,462.4	72.9833	2,462.4	74.0131	2,462.4	69.4998	2,462.4	74.0154	2,462.4	68.2515	2,462.4	70.0917	2,462.4	62.9243	2,462.4	70.4595	2,462.4	63.3628	2,462.4	64.4602	2,462.4	67.5298	2,462.4	74.7688	2,462.4	73.3432
2,548.83	86.6865	2,548.83	86.2218	2,548.83	85.3697	2,548.83	82.2592	2,548.83	80.7377	2,548.83	78.9521	2,548.83	75.037	2,548.83	78.5874	2,548.83	81.7627	2,548.83	73.564	2,548.83	82.8533	2,548.83	75.3363	2,548.83	81.9741	2,548.83	73.3455	2,548.83	80.1379	2,548.83	72.7441	2,548.83	78.3554	2,548.83	74.3683	2,548.83	78.0641	2,548.83	70.8537	2,548.83	76.0597	2,548.83	68.154	2,548.83	76.482	2,548.83	71.9381	2,548.83	73.4991	2,548.83	70.5585	2,548.83	71.7529	2,548.83	67.0301	2,548.83	72.0451	2,548.83	65.9373	2,548.83	69.989	2,548.83	60.0091	2,548.83	65.4725	2,548.83	65.4645	2,548.83	72.7949	2,548.83	71.3195
2,639.65	87.2942	2,639.65	85.8494	2,639.65	85.0191	2,639.65	82.2556	2,639.65	78.8036	2,639.65	79.926	2,639.65	75.4989	2,639.65	76.3613	2,639.65	81.31	2,639.65	75.7533	2,639.65	82.928	2,639.65	76.1379	2,639.65	82.0199	2,639.65	76.4808	2,639.65	79.6648	2,639.65	74.7124	2,639.65	78.3653	2,639.65	70.5088	2,639.65	79.2218	2,639.65	70.552	2,639.65	75.0964	2,639.65	69.2204	2,639.65	72.0119	2,639.65	67.0868	2,639.65	74.3856	2,639.65	70.9173	2,639.65	72.1708	2,639.65	69.6529	2,639.65	72.5212	2,639.65	64.9155	2,639.65	72.5858	2,639.65	62.7173	2,639.65	61.6193	2,639.65	64.7253	2,639.65	70.4714	2,639.65	69.8052
2,731.93	87.1912	2,731.93	85.6148	2,731.93	85.8408	2,731.93	82.768	2,731.93	79.9726	2,731.93	79.6851	2,731.93	75.1956	2,731.93	76.3148	2,731.93	81.7971	2,731.93	77.1886	2,731.93	83.1999	2,731.93	76.171	2,731.93	82.2594	2,731.93	71.9053	2,731.93	80.2834	2,731.93	72.0273	2,731.93	80.2238	2,731.93	74.1093	2,731.93	81.2853	2,731.93	71.8083	2,731.93	77.845	2,731.93	71.5489	2,731.93	69.9323	2,731.93	71.4974	2,731.93	74.0691	2,731.93	68.8014	2,731.93	75.4515	2,731.93	68.4913	2,731.93	72.3871	2,731.93	65.3826	2,731.93	70.734	2,731.93	63.7527	2,731.93	62.0166	2,731.93	63.3651	2,731.93	73.2174	2,731.93	71.5527
2,828.61	86.5962	2,828.61	84.9372	2,828.61	85.5419	2,828.61	82.5644	2,828.61	80.0799	2,828.61	79.4037	2,828.61	74.005	2,828.61	79.1483	2,828.61	80.7756	2,828.61	78.8067	2,828.61	82.9387	2,828.61	76.0686	2,828.61	81.9286	2,828.61	75.121	2,828.61	78.869	2,828.61	74.0125	2,828.61	78.8577	2,828.61	74.798	2,828.61	79.5576	2,828.61	73.7926	2,828.61	75.1455	2,828.61	69.6648	2,828.61	67.7167	2,828.61	70.3795	2,828.61	73.7509	2,828.61	70.3855	2,828.61	76.1614	2,828.61	67.6103	2,828.61	74.2893	2,828.61	64.2196	2,828.61	72.1962	2,828.61	62.4274	2,828.61	66.4079	2,828.61	65.919	2,828.61	71.5172	2,828.61	68.0116
2,928.22	87.0837	2,928.22	85.7926	2,928.22	85.772	2,928.22	83.0153	2,928.22	80.8308	2,928.22	80.5052	2,928.22	76.9617	2,928.22	78.6645	2,928.22	80.6744	2,928.22	77.6202	2,928.22	82.6755	2,928.22	76.4835	2,928.22	82.247	2,928.22	75.1688	2,928.22	79.8311	2,928.22	75.476	2,928.22	79.2685	2,928.22	73.4713	2,928.22	78.4901	2,928.22	68.311	2,928.22	71.1348	2,928.22	67.3014	2,928.22	66.8102	2,928.22	67.9618	2,928.22	75.2684	2,928.22	69.602	2,928.22	76.1266	2,928.22	68.7509	2,928.22	73.461	2,928.22	64.1381	2,928.22	71.4325	2,928.22	63.0342	2,928.22	62.0268	2,928.22	64.8443	2,928.22	73.8909	2,928.22	72.8018
3,030.76	87.3867	3,030.76	85.7504	3,030.76	86.53	3,030.76	83.8671	3,030.76	80.8765	3,030.76	80.9349	3,030.76	77.8406	3,030.76	79.2821	3,030.76	81.6148	3,030.76	78.3229	3,030.76	82.5846	3,030.76	77.2596	3,030.76	82.4811	3,030.76	76.9634	3,030.76	81.3915	3,030.76	71.8562	3,030.76	79.5413	3,030.76	69.165	3,030.76	76.6678	3,030.76	72.6219	3,030.76	71.5552	3,030.76	71.547	3,030.76	71.1913	3,030.76	70.378	3,030.76	73.943	3,030.76	70.9697	3,030.76	76.0945	3,030.76	70.0394	3,030.76	71.5957	3,030.76	66.6548	3,030.76	68.5271	3,030.76	56.8451	3,030.76	67.5176	3,030.76	65.0946	3,030.76	73.8658	3,030.76	69.7168
3,137.7	87.1062	3,137.7	86.3479	3,137.7	86.6172	3,137.7	83.994	3,137.7	81.8801	3,137.7	80.8037	3,137.7	77.3983	3,137.7	80.1115	3,137.7	82.1741	3,137.7	77.6848	3,137.7	82.6065	3,137.7	77.8131	3,137.7	81.5676	3,137.7	73.2882	3,137.7	81.3459	3,137.7	72.4884	3,137.7	80.0558	3,137.7	75.6602	3,137.7	73.6941	3,137.7	72.7344	3,137.7	65.8181	3,137.7	69.3163	3,137.7	70.4497	3,137.7	67.659	3,137.7	74.0908	3,137.7	70.7217	3,137.7	74.935	3,137.7	69.782	3,137.7	71.8028	3,137.7	67.4306	3,137.7	69.0487	3,137.7	59.6677	3,137.7	68.4477	3,137.7	58.8261	3,137.7	73.657	3,137.7	69.3775
3,249.02	87.4461	3,249.02	86.8398	3,249.02	86.4757	3,249.02	83.673	3,249.02	82.9731	3,249.02	81.648	3,249.02	77.2292	3,249.02	78.9681	3,249.02	81.8791	3,249.02	78.6258	3,249.02	82.7136	3,249.02	76.2763	3,249.02	81.1657	3,249.02	75.0204	3,249.02	80.4178	3,249.02	77.6981	3,249.02	79.2249	3,249.02	75.0757	3,249.02	71.4023	3,249.02	69.3324	3,249.02	66.2684	3,249.02	69.3173	3,249.02	67.1828	3,249.02	68.7244	3,249.02	72.4247	3,249.02	69.0488	3,249.02	74.6261	3,249.02	70.9413	3,249.02	69.7756	3,249.02	68.5313	3,249.02	70.1818	3,249.02	58.1872	3,249.02	69.5443	3,249.02	64.668	3,249.02	71.5097	3,249.02	64.158
3,363.28	87.5648	3,363.28	86.4148	3,363.28	86.2637	3,363.28	83.5994	3,363.28	83.0137	3,363.28	81.1969	3,363.28	78.8794	3,363.28	79.5148	3,363.28	81.3519	3,363.28	77.9911	3,363.28	82.2818	3,363.28	76.4535	3,363.28	80.6579	3,363.28	78.4719	3,363.28	78.7292	3,363.28	73.9752	3,363.28	75.2647	3,363.28	68.4832	3,363.28	67.502	3,363.28	72.2203	3,363.28	72.4729	3,363.28	70.7896	3,363.28	71.0378	3,363.28	69.765	3,363.28	71.4232	3,363.28	70.5059	3,363.28	75.8177	3,363.28	69.1711	3,363.28	69.302	3,363.28	67.6905	3,363.28	70.7626	3,363.28	60.3832	3,363.28	69.4303	3,363.28	62.2704	3,363.28	71.4158	3,363.28	66.9213
3,481.93	87.6482	3,481.93	86.3057	3,481.93	86.4241	3,481.93	83.4772	3,481.93	83.2694	3,481.93	80.6672	3,481.93	79.8208	3,481.93	79.2275	3,481.93	81.6114	3,481.93	78.2925	3,481.93	82.1259	3,481.93	78.8059	3,481.93	80.3843	3,481.93	77.0419	3,481.93	78.1956	3,481.93	72.8148	3,481.93	68.0608	3,481.93	75.1848	3,481.93	68.3496	3,481.93	72.1366	3,481.93	76.6538	3,481.93	68.9854	3,481.93	70.7239	3,481.93	69.9054	3,481.93	71.1909	3,481.93	70.7715	3,481.93	74.6231	3,481.93	70.1737	3,481.93	69.6628	3,481.93	68.9799	3,481.93	71.1842	3,481.93	61.0925	3,481.93	69.306	3,481.93	64.6247	3,481.93	71.9753	3,481.93	67.2115
3,604.98	87.4148	3,604.98	86.3754	3,604.98	86.4104	3,604.98	83.8238	3,604.98	83.6148	3,604.98	81.2795	3,604.98	80.104	3,604.98	79.4182	3,604.98	81.5109	3,604.98	80.0052	3,604.98	82.4726	3,604.98	79.0268	3,604.98	80.0589	3,604.98	75.8117	3,604.98	77.5102	3,604.98	76.8955	3,604.98	71.0568	3,604.98	74.7275	3,604.98	72.7198	3,604.98	69.5669	3,604.98	77.257	3,604.98	70.1451	3,604.98	72.2408	3,604.98	68.8796	3,604.98	69.8004	3,604.98	68.5088	3,604.98	74.4611	3,604.98	70.6429	3,604.98	68.1447	3,604.98	68.075	3,604.98	68.3757	3,604.98	62.3397	3,604.98	69.139	3,604.98	58.2912	3,604.98	71.0989	3,604.98	66.3868
3,732.42	86.9847	3,732.42	85.9183	3,732.42	85.972	3,732.42	83.3503	3,732.42	84.0485	3,732.42	80.3995	3,732.42	81.2612	3,732.42	80.0594	3,732.42	81.1744	3,732.42	80.6547	3,732.42	81.9643	3,732.42	78.2495	3,732.42	81.5106	3,732.42	77.9717	3,732.42	78.79	3,732.42	73.4251	3,732.42	75.1378	3,732.42	68.0797	3,732.42	75.302	3,732.42	71.2491	3,732.42	75.4599	3,732.42	66.8559	3,732.42	72.7122	3,732.42	67.0476	3,732.42	65.4091	3,732.42	67.682	3,732.42	72.3006	3,732.42	68.4478	3,732.42	68.9916	3,732.42	67.749	3,732.42	68.5751	3,732.42	62.2075	3,732.42	69.9715	3,732.42	58.9343	3,732.42	70.6531	3,732.42	62.3264
3,864.26	87.5411	3,864.26	86.0278	3,864.26	86.4143	3,864.26	83.8036	3,864.26	83.5844	3,864.26	79.782	3,864.26	82.5277	3,864.26	81.658	3,864.26	81.2403	3,864.26	80.8919	3,864.26	81.6149	3,864.26	78.9543	3,864.26	82.2738	3,864.26	76.7973	3,864.26	79.93	3,864.26	71.3944	3,864.26	77.1616	3,864.26	71.6113	3,864.26	75.1852	3,864.26	69.9467	3,864.26	75.3428	3,864.26	69.5976	3,864.26	72.6458	3,864.26	67.7345	3,864.26	68.9615	3,864.26	68.2261	3,864.26	73.334	3,864.26	67.9623	3,864.26	67.8936	3,864.26	66.7107	3,864.26	68.4603	3,864.26	63.4917	3,864.26	68.5989	3,864.26	58.7328	3,864.26	69.6468	3,864.26	64.303
4,000.49	86.3391	4,000.49	86.5921	4,000.49	85.8202	4,000.49	83.061	4,000.49	84.0505	4,000.49	80.9592	4,000.49	82.3217	4,000.49	82.3151	4,000.49	81.2978	4,000.49	80.2859	4,000.49	82.1027	4,000.49	78.2127	4,000.49	82.4973	4,000.49	72.6984	4,000.49	81.4387	4,000.49	75.2415	4,000.49	78.7757	4,000.49	71.4796	4,000.49	75.108	4,000.49	70.2556	4,000.49	69.531	4,000.49	70.022	4,000.49	71.0755	4,000.49	66.4229	4,000.49	69.2197	4,000.49	68.731	4,000.49	72.6369	4,000.49	70.0561	4,000.49	69.403	4,000.49	67.1868	4,000.49	63.3367	4,000.49	64.4064	4,000.49	70.1128	4,000.49	45.2388	4,000.49	69.2983	4,000.49	59.3799
4,141.11	87.3694	4,141.11	86.8106	4,141.11	85.5661	4,141.11	81.4759	4,141.11	84.3573	4,141.11	82.4441	4,141.11	82.7176	4,141.11	82.1107	4,141.11	81.6934	4,141.11	79.7617	4,141.11	81.7908	4,141.11	75.1827	4,141.11	82.4224	4,141.11	76.4363	4,141.11	81.9021	4,141.11	75.4972	4,141.11	77.7162	4,141.11	69.0672	4,141.11	77.1312	4,141.11	70.3799	4,141.11	70.1824	4,141.11	70.6616	4,141.11	63.3783	4,141.11	67.7177	4,141.11	67.3434	4,141.11	68.4242	4,141.11	72.0842	4,141.11	70.1941	4,141.11	69.1608	4,141.11	69.2047	4,141.11	64.496	4,141.11	63.9095	4,141.11	70.7819	4,141.11	50.2938	4,141.11	65.8834	4,141.11	59.9629
4,287.6	87.887	4,287.6	86.2749	4,287.6	84.9984	4,287.6	81.3083	4,287.6	84.4662	4,287.6	82.9889	4,287.6	82.8877	4,287.6	81.3039	4,287.6	82.4987	4,287.6	78.0009	4,287.6	81.7517	4,287.6	79.1646	4,287.6	81.3856	4,287.6	76.7699	4,287.6	80.5874	4,287.6	72.6724	4,287.6	75.9764	4,287.6	75.8229	4,287.6	76.4274	4,287.6	71.2647	4,287.6	69.0766	4,287.6	68.9605	4,287.6	70.1852	4,287.6	67.81	4,287.6	54.1098	4,287.6	68.3407	4,287.6	71.3778	4,287.6	69.8415	4,287.6	67.0253	4,287.6	69.7428	4,287.6	66.9553	4,287.6	64.8241	4,287.6	70.7895	4,287.6	55.1061	4,287.6	65.0363	4,287.6	61.0379
4,438.48	88.3978	4,438.48	85.9177	4,438.48	85.8017	4,438.48	82.77	4,438.48	84.3155	4,438.48	83.4624	4,438.48	84.1362	4,438.48	80.2321	4,438.48	81.5711	4,438.48	80.4604	4,438.48	79.5776	4,438.48	78.6922	4,438.48	80.2365	4,438.48	75.9774	4,438.48	77.9633	4,438.48	75.478	4,438.48	78.3822	4,438.48	68.1301	4,438.48	77.7291	4,438.48	67.842	4,438.48	74.8424	4,438.48	68.4097	4,438.48	71.5685	4,438.48	67.0634	4,438.48	67.7012	4,438.48	66.3625	4,438.48	70.7737	4,438.48	69.5506	4,438.48	59.4259	4,438.48	68.1863	4,438.48	66.8827	4,438.48	65.2826	4,438.48	66.6096	4,438.48	48.4488	4,438.48	64.6878	4,438.48	65.4944
4,595.21	88.3026	4,595.21	84.6111	4,595.21	86.436	4,595.21	84.0875	4,595.21	84.7511	4,595.21	83.4622	4,595.21	83.7528	4,595.21	81.0767	4,595.21	79.2843	4,595.21	80.4056	4,595.21	79.2875	4,595.21	77.4517	4,595.21	79.3037	4,595.21	76.3599	4,595.21	77.9946	4,595.21	69.0043	4,595.21	79.1077	4,595.21	71.421	4,595.21	75.2304	4,595.21	68.3097	4,595.21	73.6306	4,595.21	66.3153	4,595.21	73.1265	4,595.21	65.9496	4,595.21	70.6164	4,595.21	63.8401	4,595.21	69.3528	4,595.21	67.7282	4,595.21	61.6888	4,595.21	68.22	4,595.21	67.6469	4,595.21	61.161	4,595.21	67.2159	4,595.21	58.8515	4,595.21	64.889	4,595.21	59.6211
4,756.35	88.3951	4,756.35	84.8634	4,756.35	86.0284	4,756.35	85.0316	4,756.35	84.6727	4,756.35	82.3241	4,756.35	84.862	4,756.35	81.9319	4,756.35	79.5563	4,756.35	79.9136	4,756.35	80.0987	4,756.35	77.1657	4,756.35	78.79	4,756.35	69.6937	4,756.35	79.1182	4,756.35	75.1092	4,756.35	79.9038	4,756.35	71.9023	4,756.35	74.8086	4,756.35	69.2496	4,756.35	75.0094	4,756.35	66.6021	4,756.35	73.5115	4,756.35	65.8216	4,756.35	70.6142	4,756.35	68.2151	4,756.35	71.5986	4,756.35	67.613	4,756.35	59.0156	4,756.35	69.8395	4,756.35	65.3436	4,756.35	66.5491	4,756.35	66.8287	4,756.35	54.2686	4,756.35	66.2921	4,756.35	54.2999
4,924.8	88.108	4,924.8	85.3792	4,924.8	86.9992	4,924.8	85.1261	4,924.8	83.8968	4,924.8	82.4972	4,924.8	85.7629	4,924.8	82.3279	4,924.8	82.0664	4,924.8	78.5381	4,924.8	78.3559	4,924.8	75.945	4,924.8	79.334	4,924.8	75.5592	4,924.8	80.2364	4,924.8	73.6934	4,924.8	78.3081	4,924.8	70.461	4,924.8	74.2008	4,924.8	71.0163	4,924.8	75.8838	4,924.8	68.706	4,924.8	69.1861	4,924.8	67.5909	4,924.8	70.1032	4,924.8	68.1652	4,924.8	69.3957	4,924.8	68.5616	4,924.8	58.9773	4,924.8	69.7859	4,924.8	62.6433	4,924.8	67.0443	4,924.8	63.9174	4,924.8	58.3194	4,924.8	66.4687	4,924.8	62.8894
5,097.66	88.3098	5,097.66	85.8546	5,097.66	87.0818	5,097.66	84.813	5,097.66	83.7069	5,097.66	82.4602	5,097.66	85.6518	5,097.66	82.1618	5,097.66	82.2866	5,097.66	78.3651	5,097.66	76.1996	5,097.66	78.9066	5,097.66	79.5069	5,097.66	73.6619	5,097.66	80.2328	5,097.66	74.3267	5,097.66	75.2227	5,097.66	71.4002	5,097.66	71.4233	5,097.66	69.6999	5,097.66	74.5985	5,097.66	67.6059	5,097.66	68.4267	5,097.66	64.9378	5,097.66	71.1115	5,097.66	66.762	5,097.66	66.5228	5,097.66	68.5098	5,097.66	51.4299	5,097.66	69.0163	5,097.66	61.2921	5,097.66	65.6153	5,097.66	64.1326	5,097.66	62.8732	5,097.66	64.9545	5,097.66	59.045
5,277.83	88.1352	5,277.83	86.0615	5,277.83	87.5511	5,277.83	84.3518	5,277.83	82.8556	5,277.83	83.6725	5,277.83	85.0733	5,277.83	81.8141	5,277.83	82.291	5,277.83	80.1808	5,277.83	75.3069	5,277.83	77.7544	5,277.83	81.2921	5,277.83	76.825	5,277.83	76.8124	5,277.83	74.5777	5,277.83	71.224	5,277.83	68.4724	5,277.83	68.0665	5,277.83	69.6334	5,277.83	73.6948	5,277.83	67.3643	5,277.83	60.8369	5,277.83	67.7826	5,277.83	72.9616	5,277.83	65.0383	5,277.83	63.4746	5,277.83	67.2094	5,277.83	60.3696	5,277.83	69.1986	5,277.83	54.472	5,277.83	65.6298	5,277.83	64.5532	5,277.83	63.7893	5,277.83	64.9466	5,277.83	54.1116
5,463.87	87.8498	5,463.87	85.7767	5,463.87	87.7222	5,463.87	84.2973	5,463.87	83.2297	5,463.87	83.8418	5,463.87	84.2319	5,463.87	80.906	5,463.87	82.7242	5,463.87	80.2635	5,463.87	72.8972	5,463.87	77.5935	5,463.87	80.7305	5,463.87	75.1595	5,463.87	77.5202	5,463.87	72.014	5,463.87	69.189	5,463.87	72.0406	5,463.87	68.9096	5,463.87	67.8505	5,463.87	68.3508	5,463.87	66.047	5,463.87	58.559	5,463.87	65.7553	5,463.87	72.7244	5,463.87	63.3927	5,463.87	63.084	5,463.87	67.6738	5,463.87	62.0059	5,463.87	68.4453	5,463.87	58.7621	5,463.87	66.6408	5,463.87	64.685	5,463.87	59.6464	5,463.87	65.9714	5,463.87	41.8188
5,657.23	87.3011	5,657.23	85.6701	5,657.23	87.7312	5,657.23	84.9528	5,657.23	84.1383	5,657.23	84.0498	5,657.23	84.2456	5,657.23	81.7441	5,657.23	83.1628	5,657.23	80.4567	5,657.23	71.5526	5,657.23	75.8567	5,657.23	78.2599	5,657.23	76.315	5,657.23	76.3218	5,657.23	71.0699	5,657.23	72.2862	5,657.23	69.4228	5,657.23	70.8159	5,657.23	68.2426	5,657.23	66.6916	5,657.23	66.053	5,657.23	51.0511	5,657.23	65.4526	5,657.23	72.742	5,657.23	65.9808	5,657.23	65.2702	5,657.23	65.422	5,657.23	60.9403	5,657.23	68.3143	5,657.23	60.6765	5,657.23	66.4371	5,657.23	61.8332	5,657.23	63.6358	5,657.23	62.1468	5,657.23	46.2586
5,856.45	87.36	5,856.45	86.0167	5,856.45	87.5698	5,856.45	85.1034	5,856.45	84.3551	5,856.45	83.8364	5,856.45	83.9458	5,856.45	82.1199	5,856.45	83.1204	5,856.45	80.5582	5,856.45	75.7038	5,856.45	76.5508	5,856.45	76.4003	5,856.45	75.1669	5,856.45	77.0038	5,856.45	72.9727	5,856.45	76.4062	5,856.45	72.965	5,856.45	75.1338	5,856.45	68.174	5,856.45	68.4851	5,856.45	67.4993	5,856.45	57.4601	5,856.45	65.5134	5,856.45	72.0014	5,856.45	64.9244	5,856.45	65.1412	5,856.45	67.2886	5,856.45	64.8017	5,856.45	68.1697	5,856.45	49.0634	5,856.45	67.3878	5,856.45	62.7742	5,856.45	64.6194	5,856.45	63.1639	5,856.45	55.628
6,062.99	86.79	6,062.99	85.788	6,062.99	87.3587	6,062.99	85.2424	6,062.99	84.2004	6,062.99	84.0174	6,062.99	83.612	6,062.99	82.3202	6,062.99	83.2395	6,062.99	80.1302	6,062.99	77.2463	6,062.99	77.2009	6,062.99	75.259	6,062.99	75.6975	6,062.99	78.4925	6,062.99	70.8881	6,062.99	77.2627	6,062.99	69.8512	6,062.99	73.9674	6,062.99	67.5424	6,062.99	68.8568	6,062.99	66.2546	6,062.99	47.5875	6,062.99	65.2054	6,062.99	70.6284	6,062.99	66.043	6,062.99	60.4709	6,062.99	66.3504	6,062.99	61.6396	6,062.99	68.7111	6,062.99	35.8829	6,062.99	67.2669	6,062.99	63.6603	6,062.99	63.1223	6,062.99	62.1108	6,062.99	54.7072
6,276.86	86.5	6,276.86	85.9913	6,276.86	86.9986	6,276.86	85.222	6,276.86	85.0319	6,276.86	84.133	6,276.86	83.7002	6,276.86	82.3813	6,276.86	83.3101	6,276.86	80.0916	6,276.86	80.1808	6,276.86	78.5973	6,276.86	74.2561	6,276.86	74.9839	6,276.86	79.3519	6,276.86	74.1703	6,276.86	77.6015	6,276.86	71.6773	6,276.86	71.6079	6,276.86	66.2982	6,276.86	64.8188	6,276.86	66.7283	6,276.86	50.729	6,276.86	64.2655	6,276.86	67.5828	6,276.86	66.3367	6,276.86	59.7393	6,276.86	65.941	6,276.86	62.8518	6,276.86	68.3843	6,276.86	54.5029	6,276.86	67.4304	6,276.86	62.6673	6,276.86	64.1692	6,276.86	60.1378	6,276.86	58.3208
6,498.05	86.4106	6,498.05	86.1062	6,498.05	86.3976	6,498.05	85.3269	6,498.05	84.6696	6,498.05	84.1721	6,498.05	83.9821	6,498.05	82.3484	6,498.05	84.1204	6,498.05	81.1407	6,498.05	81.2211	6,498.05	78.7806	6,498.05	75.0956	6,498.05	76.1897	6,498.05	78.5059	6,498.05	72.7243	6,498.05	76.6084	6,498.05	70.8927	6,498.05	73.0047	6,498.05	67.9524	6,498.05	64.2365	6,498.05	64.9484	6,498.05	58.2286	6,498.05	63.7722	6,498.05	62.267	6,498.05	65.9909	6,498.05	61.0404	6,498.05	66.2609	6,498.05	60.1007	6,498.05	69.0697	6,498.05	58.6614	6,498.05	67.9913	6,498.05	61.7181	6,498.05	65.5754	6,498.05	59.4617	6,498.05	59.7697
6,726.56	86.2884	6,726.56	85.9537	6,726.56	86.3422	6,726.56	85.0089	6,726.56	84.8913	6,726.56	84.0802	6,726.56	83.6757	6,726.56	82.5826	6,726.56	83.8289	6,726.56	81.5348	6,726.56	81.6527	6,726.56	78.9664	6,726.56	76.4158	6,726.56	75.71	6,726.56	75.867	6,726.56	73.4698	6,726.56	72.6714	6,726.56	69.1785	6,726.56	73.1146	6,726.56	67.6526	6,726.56	68.8466	6,726.56	64.5487	6,726.56	62.1849	6,726.56	61.592	6,726.56	57.9391	6,726.56	64.8014	6,726.56	56.705	6,726.56	64.6887	6,726.56	61.7588	6,726.56	67.7924	6,726.56	47.6983	6,726.56	67.8379	6,726.56	57.8265	6,726.56	65.5692	6,726.56	62.6388	6,726.56	58.3902
6,963.87	86.1891	6,963.87	85.5952	6,963.87	86.4023	6,963.87	84.8402	6,963.87	85.1743	6,963.87	83.7713	6,963.87	84.0099	6,963.87	82.6516	6,963.87	83.7493	6,963.87	81.2783	6,963.87	81.6406	6,963.87	78.1504	6,963.87	77.1091	6,963.87	74.6165	6,963.87	75.9875	6,963.87	70.8351	6,963.87	73.2286	6,963.87	68.6611	6,963.87	72.6576	6,963.87	66.3909	6,963.87	67.9506	6,963.87	64.125	6,963.87	63.5431	6,963.87	62.9045	6,963.87	66.1551	6,963.87	64.1698	6,963.87	45.7748	6,963.87	62.6377	6,963.87	66.278	6,963.87	67.2984	6,963.87	56.7685	6,963.87	65.7113	6,963.87	51.9947	6,963.87	64.3711	6,963.87	62.3373	6,963.87	57.1072
7,209.96	86.0311	7,209.96	85.2195	7,209.96	86.3278	7,209.96	84.7843	7,209.96	84.8894	7,209.96	83.5841	7,209.96	83.9794	7,209.96	82.52	7,209.96	83.2937	7,209.96	80.5684	7,209.96	80.1171	7,209.96	77.3506	7,209.96	75.4328	7,209.96	74.0084	7,209.96	72.8982	7,209.96	69.4426	7,209.96	74.6859	7,209.96	66.4565	7,209.96	74.0714	7,209.96	65.9606	7,209.96	68.8721	7,209.96	63.7383	7,209.96	62.8708	7,209.96	62.9737	7,209.96	65.9658	7,209.96	63.7548	7,209.96	64.2344	7,209.96	61.2435	7,209.96	66.7242	7,209.96	67.2825	7,209.96	58.8285	7,209.96	65.7298	7,209.96	57.562	7,209.96	64.8896	7,209.96	59.9644	7,209.96	57.367
7,464.84	85.5276	7,464.84	85.1318	7,464.84	86.4815	7,464.84	84.9749	7,464.84	85.3823	7,464.84	83.5953	7,464.84	84.5333	7,464.84	82.2327	7,464.84	82.617	7,464.84	80.3347	7,464.84	78.2379	7,464.84	76.7751	7,464.84	72.1236	7,464.84	73.0857	7,464.84	73.3412	7,464.84	72.1901	7,464.84	77.1181	7,464.84	68.6861	7,464.84	73.3172	7,464.84	66.48	7,464.84	68.4526	7,464.84	63.8804	7,464.84	59.195	7,464.84	61.631	7,464.84	62.6024	7,464.84	63.4117	7,464.84	61.5117	7,464.84	62.2635	7,464.84	64.3306	7,464.84	67.0278	7,464.84	59.1063	7,464.84	66.4818	7,464.84	56.6955	7,464.84	65.1136	7,464.84	54.5258	7,464.84	59.7583
7,727.05	85.1874	7,727.05	85.1016	7,727.05	86.2036	7,727.05	84.9265	7,727.05	85.4866	7,727.05	83.3618	7,727.05	84.1366	7,727.05	82.5043	7,727.05	81.9036	7,727.05	79.2458	7,727.05	77.1537	7,727.05	75.8229	7,727.05	64.2202	7,727.05	73.4397	7,727.05	76.931	7,727.05	69.0198	7,727.05	77.8183	7,727.05	67.2385	7,727.05	73.3237	7,727.05	63.5979	7,727.05	69.7501	7,727.05	63.3364	7,727.05	59.5699	7,727.05	61.3712	7,727.05	65.6863	7,727.05	61.7213	7,727.05	59.6575	7,727.05	61.0376	7,727.05	59.5307	7,727.05	65.4075	7,727.05	54.3566	7,727.05	65	7,727.05	55.7447	7,727.05	64.8223	7,727.05	56.2891	7,727.05	60.2867
7,999.51	85.3972	7,999.51	85.3436	7,999.51	86.1961	7,999.51	84.696	7,999.51	85.6012	7,999.51	84.0505	7,999.51	84.3872	7,999.51	82.2138	7,999.51	82.5	7,999.51	78.1075	7,999.51	76.6967	7,999.51	75.7944	7,999.51	67.8415	7,999.51	72.5981	7,999.51	77.5687	7,999.51	68.8087	7,999.51	77.116	7,999.51	66.6024	7,999.51	73.6899	7,999.51	65.4268	7,999.51	68.5275	7,999.51	62.6664	7,999.51	58.718	7,999.51	63.4027	7,999.51	60.9342	7,999.51	62.8431	7,999.51	61.3637	7,999.51	62.1516	7,999.51	59.2658	7,999.51	65.5652	7,999.51	58.8475	7,999.51	65.8595	7,999.51	55.0532	7,999.51	64.2638	7,999.51	52.8788	7,999.51	61.4271
8,282.23	85.2209	8,282.23	85.2215	8,282.23	86.196	8,282.23	85.0007	8,282.23	85.7104	8,282.23	84.5247	8,282.23	84.0555	8,282.23	81.3524	8,282.23	82.3552	8,282.23	78.9801	8,282.23	77.8221	8,282.23	75.976	8,282.23	73.3201	8,282.23	74.0429	8,282.23	77.1512	8,282.23	71.9719	8,282.23	74.9411	8,282.23	68.4485	8,282.23	70.3837	8,282.23	65.6525	8,282.23	65.7193	8,282.23	63.2176	8,282.23	55.1215	8,282.23	61.7776	8,282.23	57.4019	8,282.23	63.774	8,282.23	63.895	8,282.23	62.7629	8,282.23	57.3266	8,282.23	65.5229	8,282.23	62.2823	8,282.23	66.7727	8,282.23	55.7147	8,282.23	64.8506	8,282.23	32.6631	8,282.23	60.9926
8,573.73	85.2393	8,573.73	85.7303	8,573.73	86.1666	8,573.73	85.6508	8,573.73	85.6944	8,573.73	83.917	8,573.73	83.8794	8,573.73	81.3975	8,573.73	82.1798	8,573.73	79.3294	8,573.73	78.2703	8,573.73	76.558	8,573.73	75.048	8,573.73	74.2986	8,573.73	75.7163	8,573.73	70.6431	8,573.73	71.7586	8,573.73	67.3713	8,573.73	66.7422	8,573.73	62.98	8,573.73	55.7187	8,573.73	62.0162	8,573.73	54.6186	8,573.73	60.6733	8,573.73	57.1792	8,573.73	61.7271	8,573.73	59.9598	8,573.73	61.7914	8,573.73	53.8332	8,573.73	64.3096	8,573.73	55.8678	8,573.73	64.9074	8,573.73	55.1523	8,573.73	64.1129	8,573.73	44.8951	8,573.73	61.3882
8,876.95	85.4377	8,876.95	86.4002	8,876.95	86.0283	8,876.95	86.0516	8,876.95	85.8302	8,876.95	83.9397	8,876.95	84.1631	8,876.95	82.203	8,876.95	81.6271	8,876.95	79.3444	8,876.95	79.0455	8,876.95	77.0868	8,876.95	74.7927	8,876.95	71.0713	8,876.95	73.117	8,876.95	69.1771	8,876.95	66.5003	8,876.95	65.8442	8,876.95	64.86	8,876.95	63.0967	8,876.95	58.7498	8,876.95	60.4969	8,876.95	53.5243	8,876.95	61.3347	8,876.95	52.0394	8,876.95	60.8178	8,876.95	55.1717	8,876.95	60.4437	8,876.95	47.9805	8,876.95	64.3356	8,876.95	60.1081	8,876.95	64.0331	8,876.95	46.2738	8,876.95	64.841	8,876.95	40.6472	8,876.95	60.2948
9,188.96	85.6828	9,188.96	86.7163	9,188.96	85.735	9,188.96	86.1889	9,188.96	85.5342	9,188.96	84.7414	9,188.96	83.9789	9,188.96	82.7641	9,188.96	81.7338	9,188.96	79.9131	9,188.96	79.0796	9,188.96	77.069	9,188.96	75.106	9,188.96	72.0189	9,188.96	68.3911	9,188.96	70.4458	9,188.96	64.8339	9,188.96	67.02	9,188.96	68.4559	9,188.96	65.489	9,188.96	64.4318	9,188.96	58.5772	9,188.96	61.4044	9,188.96	62.0107	9,188.96	47.8954	9,188.96	59.5358	9,188.96	59.6342	9,188.96	62.5907	9,188.96	47.468	9,188.96	63.4138	9,188.96	56.0267	9,188.96	63.59	9,188.96	51.2958	9,188.96	64.7551	9,188.96	44.7338	9,188.96	61.9665
9,514.16	85.4018	9,514.16	86.4809	9,514.16	85.6657	9,514.16	86.3749	9,514.16	85.5727	9,514.16	84.7146	9,514.16	84.1458	9,514.16	82.4743	9,514.16	82.3476	9,514.16	80.1717	9,514.16	77.9821	9,514.16	76.3702	9,514.16	76.365	9,514.16	72.8245	9,514.16	60.6514	9,514.16	69.3602	9,514.16	66.5899	9,514.16	66.3723	9,514.16	69.3918	9,514.16	63.1227	9,514.16	63.2432	9,514.16	59.5376	9,514.16	61.6796	9,514.16	60.1291	9,514.16	38.4034	9,514.16	59.4096	9,514.16	61.8279	9,514.16	62.7812	9,514.16	52.4487	9,514.16	61.0224	9,514.16	57.9111	9,514.16	64.0734	9,514.16	50.98	9,514.16	64.1459	9,514.16	48.0124	9,514.16	60.6421
9,849.61	85.5539	9,849.61	86.5081	9,849.61	85.6301	9,849.61	86.1468	9,849.61	85.4914	9,849.61	84.1473	9,849.61	84.2952	9,849.61	82.5235	9,849.61	82.2225	9,849.61	79.3938	9,849.61	77.3798	9,849.61	75.962	9,849.61	76.5392	9,849.61	72.5364	9,849.61	68.4171	9,849.61	69.1984	9,849.61	68.3767	9,849.61	66.554	9,849.61	66.5387	9,849.61	62.5325	9,849.61	62.4586	9,849.61	60.4758	9,849.61	62.8353	9,849.61	60.4438	9,849.61	50.04	9,849.61	60.6098	9,849.61	52.952	9,849.61	63.1168	9,849.61	54.4582	9,849.61	59.6507	9,849.61	53.3163	9,849.61	63.8116	9,849.61	54.8109	9,849.61	63.5884	9,849.61	42.447	9,849.61	60.6452
10,196.8	85.7186	10,196.8	86.6779	10,196.8	85.7091	10,196.8	85.6196	10,196.8	85.5349	10,196.8	84.0894	10,196.8	84.4928	10,196.8	81.8842	10,196.8	81.9437	10,196.8	79.1663	10,196.8	78.2847	10,196.8	76.4791	10,196.8	76.3918	10,196.8	72.5586	10,196.8	69.6153	10,196.8	69.597	10,196.8	68.4864	10,196.8	66.422	10,196.8	62.956	10,196.8	63.1527	10,196.8	59.8456	10,196.8	60.5417	10,196.8	57.6601	10,196.8	59.9669	10,196.8	46.9255	10,196.8	61.1454	10,196.8	40.9214	10,196.8	62.8856	10,196.8	54.6911	10,196.8	60.9413	10,196.8	54.8355	10,196.8	63.9868	10,196.8	50.5804	10,196.8	62.9781	10,196.8	46.4554	10,196.8	59.9447
10,555.7	85.9567	10,555.7	86.8936	10,555.7	85.6799	10,555.7	85.6001	10,555.7	85.7344	10,555.7	83.7421	10,555.7	84.6291	10,555.7	80.9761	10,555.7	82.7706	10,555.7	79.5819	10,555.7	78.3949	10,555.7	75.33	10,555.7	76.7057	10,555.7	70.7959	10,555.7	65.8937	10,555.7	67.4875	10,555.7	67.6978	10,555.7	64.7285	10,555.7	59.7631	10,555.7	61.3556	10,555.7	62.9351	10,555.7	59.3883	10,555.7	50.7558	10,555.7	58.5087	10,555.7	49.7574	10,555.7	59.1792	10,555.7	52.057	10,555.7	61.8864	10,555.7	49.2091	10,555.7	61.228	10,555.7	58.9091	10,555.7	62.2511	10,555.7	54.9216	10,555.7	61.3828	10,555.7	43.9221	10,555.7	59.3557
10,927.7	85.9153	10,927.7	86.989	10,927.7	85.3991	10,927.7	85.6819	10,927.7	85.6953	10,927.7	83.3724	10,927.7	84.5576	10,927.7	81.6548	10,927.7	82.7877	10,927.7	78.7776	10,927.7	78.3228	10,927.7	74.55	10,927.7	76.642	10,927.7	70.3828	10,927.7	64.3139	10,927.7	67.2366	10,927.7	69.771	10,927.7	64.0709	10,927.7	62.5833	10,927.7	61.112	10,927.7	66.0181	10,927.7	58.8151	10,927.7	57.9879	10,927.7	59.0134	10,927.7	58.3487	10,927.7	58.7785	10,927.7	48.4109	10,927.7	61.4525	10,927.7	45.8702	10,927.7	61.5181	10,927.7	57.8236	10,927.7	61.979	10,927.7	55.8703	10,927.7	61.1884	10,927.7	46.0412	10,927.7	58.8256
11,313	85.7231	11,313	86.5256	11,313	84.9045	11,313	85.3677	11,313	85.1124	11,313	83.9365	11,313	84.4234	11,313	81.7868	11,313	82.7535	11,313	78.4216	11,313	78.3996	11,313	75.6333	11,313	77.0504	11,313	70.5873	11,313	64.2014	11,313	68.3065	11,313	68.562	11,313	65.2529	11,313	63.7512	11,313	62.0336	11,313	67.1176	11,313	59.2672	11,313	58.0198	11,313	57.1417	11,313	57.886	11,313	58.4879	11,313	47.4912	11,313	62.3502	11,313	52.8046	11,313	61.601	11,313	49.3055	11,313	62.1347	11,313	48.3695	11,313	60.8559	11,313	36.8578	11,313	57.8479
11,712.9	85.8166	11,712.9	86.11	11,712.9	84.6808	11,712.9	85.2991	11,712.9	84.7575	11,712.9	83.7887	11,712.9	84.4793	11,712.9	81.2928	11,712.9	82.9341	11,712.9	78.419	11,712.9	79.9106	11,712.9	74.3443	11,712.9	77.109	11,712.9	71.0857	11,712.9	68.1199	11,712.9	67.7847	11,712.9	67.01	11,712.9	64.7674	11,712.9	62.6361	11,712.9	61.035	11,712.9	67.1951	11,712.9	59.0189	11,712.9	56.6902	11,712.9	56.8768	11,712.9	52.2127	11,712.9	58.3653	11,712.9	45.5295	11,712.9	61.9582	11,712.9	53.8832	11,712.9	60.5672	11,712.9	47.6566	11,712.9	61.1344	11,712.9	51.569	11,712.9	59.5794	11,712.9	46.3018	11,712.9	55.2466
12,126	85.8206	12,126	86.0028	12,126	84.6743	12,126	85.2391	12,126	84.1891	12,126	83.52	12,126	83.9842	12,126	81.6718	12,126	81.9862	12,126	77.8418	12,126	79.8414	12,126	75.5427	12,126	74.636	12,126	70.5372	12,126	70.5102	12,126	67.2245	12,126	67.6032	12,126	63.7138	12,126	59.3651	12,126	60.0645	12,126	65.0531	12,126	58.4284	12,126	56.0031	12,126	55.6409	12,126	46.3946	12,126	58.8715	12,126	36.4561	12,126	61.1323	12,126	56.556	12,126	60.4967	12,126	47.6345	12,126	62.2393	12,126	43.6791	12,126	58.2433	12,126	45.6165	12,126	55.7697
12,553.7	85.345	12,553.7	85.8021	12,553.7	84.5269	12,553.7	84.6714	12,553.7	83.9506	12,553.7	83.4477	12,553.7	83.3348	12,553.7	80.7332	12,553.7	80.8841	12,553.7	78.6802	12,553.7	78.0243	12,553.7	74.5044	12,553.7	70.8463	12,553.7	70.3853	12,553.7	69.3254	12,553.7	66.3625	12,553.7	67.6458	12,553.7	63.9968	12,553.7	56.1762	12,553.7	59.5036	12,553.7	62.816	12,553.7	56.7672	12,553.7	57.8057	12,553.7	54.0951	12,553.7	51.659	12,553.7	58.1879	12,553.7	23.1968	12,553.7	60.4942	12,553.7	50.0017	12,553.7	60.8754	12,553.7	46.1104	12,553.7	61.5558	12,553.7	48.0462	12,553.7	58.4865	12,553.7	42.1651	12,553.7	56.3574
12,996.1	84.7811	12,996.1	84.9665	12,996.1	84.0553	12,996.1	84.2485	12,996.1	83.7743	12,996.1	82.8283	12,996.1	83.0987	12,996.1	80.7675	12,996.1	80.5591	12,996.1	78.533	12,996.1	76.4884	12,996.1	74.4065	12,996.1	71.0585	12,996.1	70.1808	12,996.1	68.3674	12,996.1	66.1152	12,996.1	65.3241	12,996.1	62.7323	12,996.1	48.5986	12,996.1	59.0765	12,996.1	64.822	12,996.1	55.2188	12,996.1	57.9773	12,996.1	54.8971	12,996.1	49.8049	12,996.1	57.0114	12,996.1	51.4398	12,996.1	59.3821	12,996.1	41.287	12,996.1	60.8792	12,996.1	39.7914	12,996.1	60.8512	12,996.1	48.9801	12,996.1	57.8326	12,996.1	35.3227	12,996.1	56.5353
13,454.6	84.1953	13,454.6	84.1781	13,454.6	83.6173	13,454.6	83.6502	13,454.6	83.4273	13,454.6	82.3035	13,454.6	82.4912	13,454.6	80.5561	13,454.6	80.2075	13,454.6	78.3708	13,454.6	77.2341	13,454.6	74.3136	13,454.6	72.6153	13,454.6	69.6961	13,454.6	69.3625	13,454.6	66.8559	13,454.6	61.8643	13,454.6	63.133	13,454.6	57.4919	13,454.6	59.8004	13,454.6	65.8271	13,454.6	55.8303	13,454.6	54.623	13,454.6	54.1346	13,454.6	50.9834	13,454.6	57.1364	13,454.6	52.7708	13,454.6	58.2024	13,454.6	40.2987	13,454.6	60.252	13,454.6	39.7372	13,454.6	60.122	13,454.6	46.7019	13,454.6	58.2203	13,454.6	41.4491	13,454.6	55.5385
13,929.2	83.4572	13,929.2	83.5105	13,929.2	82.8821	13,929.2	83.119	13,929.2	83.2598	13,929.2	81.9673	13,929.2	82.6998	13,929.2	80.6821	13,929.2	80.4483	13,929.2	78.4651	13,929.2	77.8771	13,929.2	74.5718	13,929.2	71.4903	13,929.2	70.3507	13,929.2	70.0863	13,929.2	66.1211	13,929.2	59.6768	13,929.2	62.5083	13,929.2	61.2718	13,929.2	57.9355	13,929.2	66.6149	13,929.2	55.5833	13,929.2	53.7382	13,929.2	52.884	13,929.2	49.2423	13,929.2	57.0976	13,929.2	52.6376	13,929.2	57.7204	13,929.2	41.0645	13,929.2	60.509	13,929.2	43.9722	13,929.2	59.8808	13,929.2	47.1631	13,929.2	59.2141	13,929.2	38.8554	13,929.2	53.3623
14,419.9	82.8742	14,419.9	83.2571	14,419.9	82.4167	14,419.9	83.0416	14,419.9	82.8285	14,419.9	81.9786	14,419.9	82.0072	14,419.9	80.8756	14,419.9	79.7	14,419.9	78.4445	14,419.9	77.2877	14,419.9	74.6141	14,419.9	71.8586	14,419.9	70.0544	14,419.9	67.6007	14,419.9	66.1786	14,419.9	55.484	14,419.9	61.9813	14,419.9	59.6113	14,419.9	58.2907	14,419.9	66.9845	14,419.9	54.0874	14,419.9	57.9216	14,419.9	50.7811	14,419.9	50.5975	14,419.9	56.2035	14,419.9	47.0064	14,419.9	57.5398	14,419.9	40.3038	14,419.9	59.9336	14,419.9	51.3234	14,419.9	59.7718	14,419.9	46.1193	14,419.9	59.6342	14,419.9	33.6602	14,419.9	51.0595
14,928.2	82.4111	14,928.2	82.7569	14,928.2	82.2875	14,928.2	82.7964	14,928.2	82.5832	14,928.2	82.344	14,928.2	81.3415	14,928.2	80.4037	14,928.2	80.2428	14,928.2	78.6564	14,928.2	78.1395	14,928.2	73.4596	14,928.2	74.248	14,928.2	69.3386	14,928.2	65.9659	14,928.2	63.8116	14,928.2	60.0612	14,928.2	60.4654	14,928.2	63.1666	14,928.2	56.6896	14,928.2	68.216	14,928.2	52.6656	14,928.2	60.3713	14,928.2	52.3319	14,928.2	53.6484	14,928.2	54.89	14,928.2	37.1773	14,928.2	55.3221	14,928.2	37.2142	14,928.2	58.7428	14,928.2	53.1867	14,928.2	59.324	14,928.2	41.9877	14,928.2	59.7661	14,928.2	39.6368	14,928.2	48.9076
15,455.6	82.4186	15,455.6	82.6017	15,455.6	82.426	15,455.6	82.7934	15,455.6	82.1065	15,455.6	82.5244	15,455.6	80.5235	15,455.6	80.7726	15,455.6	79.4591	15,455.6	78.605	15,455.6	77.6972	15,455.6	73.4586	15,455.6	71.9057	15,455.6	67.9544	15,455.6	67.4739	15,455.6	63.8341	15,455.6	58.9156	15,455.6	58.9196	15,455.6	64.3023	15,455.6	55.4869	15,455.6	67.1765	15,455.6	52.1699	15,455.6	57.2643	15,455.6	51.1057	15,455.6	48.4859	15,455.6	53.816	15,455.6	42.3761	15,455.6	54.2578	15,455.6	37.555	15,455.6	58.8887	15,455.6	52.6958	15,455.6	59.2923	15,455.6	47.9409	15,455.6	59.5973	15,455.6	46.4015	15,455.6	47.0105
16,000.5	82.9985	16,000.5	82.9887	16,000.5	83.1018	16,000.5	83.1469	16,000.5	82.0923	16,000.5	82.4783	16,000.5	80.4561	16,000.5	80.6713	16,000.5	79.5407	16,000.5	78.274	16,000.5	76.7617	16,000.5	72.0782	16,000.5	69.4256	16,000.5	66.8202	16,000.5	68.4202	16,000.5	62.6829	16,000.5	54.3223	16,000.5	58.7626	16,000.5	63.8938	16,000.5	55.4197	16,000.5	65.7719	16,000.5	51.2749	16,000.5	55.0501	16,000.5	48.4646	16,000.5	46.8213	16,000.5	54.3378	16,000.5	47.2746	16,000.5	52.5599	16,000.5	44.6085	16,000.5	57.275	16,000.5	51.843	16,000.5	57.9146	16,000.5	47.8262	16,000.5	59.3211	16,000.5	50.2555	16,000.5	45.6841
16,564.5	83.539	16,564.5	83.6523	16,564.5	83.6684	16,564.5	83.2997	16,564.5	82.5832	16,564.5	82.0152	16,564.5	80.228	16,564.5	80.0306	16,564.5	78.2709	16,564.5	76.9622	16,564.5	74.8381	16,564.5	70.8491	16,564.5	70.6412	16,564.5	65.1932	16,564.5	66.8813	16,564.5	60.989	16,564.5	53.6685	16,564.5	57.559	16,564.5	61.413	16,564.5	53.7745	16,564.5	66.8723	16,564.5	47.3209	16,564.5	55.3584	16,564.5	47.4857	16,564.5	37.5677	16,564.5	52.3936	16,564.5	44.7137	16,564.5	52.2132	16,564.5	38.7571	16,564.5	56.139	16,564.5	50.7927	16,564.5	55.8083	16,564.5	44.7154	16,564.5	56.1759	16,564.5	48.8694	16,564.5	43.8999
17,148.9	82.9398	17,148.9	82.7912	17,148.9	83.2575	17,148.9	82.8943	17,148.9	82.3579	17,148.9	82.0753	17,148.9	80.5644	17,148.9	79.9825	17,148.9	79.2023	17,148.9	76.6007	17,148.9	75.1431	17,148.9	70.2437	17,148.9	72.7168	17,148.9	65.839	17,148.9	66.1137	17,148.9	60.3383	17,148.9	53.3888	17,148.9	57.6457	17,148.9	61.2243	17,148.9	52.1875	17,148.9	68.1352	17,148.9	47.6105	17,148.9	55.6937	17,148.9	46.1579	17,148.9	37.259	17,148.9	50.0813	17,148.9	41.5279	17,148.9	51.4236	17,148.9	44.9692	17,148.9	55.4611	17,148.9	43.4836	17,148.9	55.2049	17,148.9	46.3653	17,148.9	53.8433	17,148.9	52.1199	17,148.9	44.7151
17,752.4	84.1835	17,752.4	83.9137	17,752.4	83.8659	17,752.4	83.7649	17,752.4	82.3988	17,752.4	82.291	17,752.4	80.7665	17,752.4	79.9816	17,752.4	78.4874	17,752.4	75.5069	17,752.4	75.6684	17,752.4	69.7139	17,752.4	73.2128	17,752.4	63.4683	17,752.4	63.326	17,752.4	58.9943	17,752.4	58.1057	17,752.4	55.3711	17,752.4	61.0562	17,752.4	51.0743	17,752.4	68.1095	17,752.4	44.6565	17,752.4	53.9138	17,752.4	43.0181	17,752.4	39.8368	17,752.4	50.6361	17,752.4	42.0863	17,752.4	50.2406	17,752.4	43.0681	17,752.4	53.747	17,752.4	50.3165	17,752.4	54.1911	17,752.4	48.8662	17,752.4	52.2021	17,752.4	52.3922	17,752.4	40.4644
18,379.4	85.5292	18,379.4	85.1615	18,379.4	84.9373	18,379.4	84.5751	18,379.4	82.7817	18,379.4	82.8055	18,379.4	81.2474	18,379.4	80.109	18,379.4	78.7285	18,379.4	75.2837	18,379.4	76.6512	18,379.4	68.9638	18,379.4	72.7717	18,379.4	63.2394	18,379.4	59.9461	18,379.4	56.6587	18,379.4	58.1843	18,379.4	54.1565	18,379.4	60.5493	18,379.4	50.2549	18,379.4	67.0374	18,379.4	45.4154	18,379.4	52.9525	18,379.4	43.7331	18,379.4	41.6459	18,379.4	49.251	18,379.4	28.5442	18,379.4	49.713	18,379.4	40.4711	18,379.4	53.4289	18,379.4	48.5561	18,379.4	54.884	18,379.4	47.919	18,379.4	52.7782	18,379.4	51.6466	18,379.4	41.2871
19,026.9	86.8077	19,026.9	86.0912	19,026.9	85.8659	19,026.9	84.8632	19,026.9	83.3388	19,026.9	83.1067	19,026.9	81.1502	19,026.9	80.1015	19,026.9	78.3933	19,026.9	75.7647	19,026.9	75.6258	19,026.9	67.8524	19,026.9	67.5261	19,026.9	62.4851	19,026.9	62.9699	19,026.9	57.725	19,026.9	53.3576	19,026.9	53.6935	19,026.9	62.179	19,026.9	49.351	19,026.9	65.373	19,026.9	43.9268	19,026.9	53.7416	19,026.9	43.9981	19,026.9	45.8553	19,026.9	47.018	19,026.9	36.8229	19,026.9	49.4778	19,026.9	47.0565	19,026.9	51.8082	19,026.9	50.9753	19,026.9	54.611	19,026.9	51.1384	19,026.9	52.7493	19,026.9	52.3387	19,026.9	43.067
19,697.8	87.9166	19,697.8	86.9121	19,697.8	86.9207	19,697.8	85.0347	19,697.8	84.1067	19,697.8	82.8451	19,697.8	80.8715	19,697.8	79.3735	19,697.8	77.9614	19,697.8	74.8672	19,697.8	73.7178	19,697.8	65.5604	19,697.8	66.4291	19,697.8	58.9478	19,697.8	64.5887	19,697.8	58.2409	19,697.8	56.273	19,697.8	53.9311	19,697.8	60.1789	19,697.8	47.0244	19,697.8	64.3292	19,697.8	45.4821	19,697.8	51.9063	19,697.8	39.9826	19,697.8	48.1316	19,697.8	47.0184	19,697.8	46.663	19,697.8	48.2795	19,697.8	48.7574	19,697.8	51.3314	19,697.8	51.8865	19,697.8	54.9928	19,697.8	51.9617	19,697.8	53.4552	19,697.8	52.0514	19,697.8	43.7093
19,999.5	88.3508	19,999.5	87.1764	19,999.5	87.349	19,999.5	84.9166	19,999.5	84.5645	19,999.5	82.534	19,999.5	80.8016	19,999.5	79.1753	19,999.5	77.5345	19,999.5	74.2263	19,999.5	73.6833	19,999.5	65.2122	19,999.5	67.0917	19,999.5	60.1601	19,999.5	58.4292	19,999.5	56.8069	19,999.5	58.797	19,999.5	53.5687	19,999.5	55.9543	19,999.5	42.9807	19,999.5	64.1738	19,999.5	44.4255	19,999.5	55.8775	19,999.5	41.5558	19,999.5	54.162	19,999.5	46.1491	19,999.5	57.3556	19,999.5	48.2698	19,999.5	50.7703	19,999.5	54.0228	19,999.5	54.3045	19,999.5	59.6729	19,999.5	56.244	19,999.5	41.1209	19,999.5	55.723	19,999.5	35.9547
